660nm,730nm,850nm,940nm
23182.000000,8229.000000,13226.000000,53619.000000
23224.000000,8253.000000,13290.000000,53550.000000
23173.000000,8216.000000,13194.000000,53451.000000
23129.000000,8138.000000,13384.000000,53552.000000
23155.000000,8198.000000,13286.000000,53415.000000
23264.000000,8157.000000,13265.000000,53552.000000
23178.000000,8181.000000,13311.000000,53560.000000
23163.000000,8228.000000,13267.000000,53434.000000
23166.000000,8192.000000,13233.000000,53514.000000
23119.000000,8243.000000,13312.000000,53523.000000
23237.000000,8117.000000,13297.000000,53544.000000
23174.000000,8242.000000,13173.000000,53480.000000
23259.000000,8177.000000,13328.000000,53516.000000
23127.000000,8116.000000,13311.000000,53444.000000
23120.000000,8243.000000,13326.000000,53484.000000
23164.000000,8147.000000,13289.000000,53464.000000
23161.000000,8140.000000,13202.000000,53471.000000
23141.000000,8190.000000,13220.000000,53553.000000
23150.000000,8167.000000,13130.000000,53466.000000
23128.000000,8190.000000,13181.000000,53422.000000
23134.000000,8084.000000,13243.000000,53445.000000
23064.000000,8119.000000,13199.000000,53364.000000
23124.000000,8172.000000,13181.000000,53384.000000
23114.000000,8136.000000,13189.000000,53467.000000
23116.000000,8187.000000,13155.000000,53492.000000
23105.000000,8118.000000,13131.000000,53450.000000
23059.000000,8135.000000,13050.000000,53479.000000
22999.000000,8036.000000,13165.000000,53403.000000
23019.000000,8134.000000,13175.000000,53482.000000
22963.000000,8131.000000,13253.000000,53462.000000
23070.000000,8098.000000,13185.000000,53436.000000
22999.000000,8032.000000,13130.000000,53442.000000
23033.000000,8112.000000,13070.000000,53371.000000
23050.000000,8029.000000,13084.000000,53362.000000
22970.000000,8075.000000,13184.000000,53412.000000
22924.000000,8119.000000,13182.000000,53335.000000
23000.000000,8098.000000,13115.000000,53391.000000
22989.000000,8035.000000,13095.000000,53374.000000
23089.000000,8075.000000,13077.000000,53408.000000
23033.000000,8102.000000,13084.000000,53383.000000
23038.000000,8074.000000,13111.000000,53387.000000
22979.000000,8126.000000,13058.000000,53372.000000
23011.000000,8023.000000,13106.000000,53332.000000
23015.000000,8099.000000,13132.000000,53409.000000
23040.000000,8161.000000,13034.000000,53458.000000
22985.000000,8103.000000,13124.000000,53333.000000
23035.000000,8104.000000,13120.000000,53372.000000
23039.000000,8176.000000,13129.000000,53404.000000
22930.000000,8111.000000,13107.000000,53400.000000
23022.000000,8044.000000,13139.000000,53445.000000
23091.000000,8153.000000,13091.000000,53425.000000
22989.000000,8142.000000,13103.000000,53390.000000
23171.000000,8162.000000,13000.000000,53309.000000
23047.000000,8126.000000,13190.000000,53369.000000
23105.000000,8115.000000,13204.000000,53364.000000
23093.000000,8020.000000,13139.000000,53434.000000
23060.000000,8176.000000,13115.000000,53410.000000
22995.000000,8049.000000,13136.000000,53412.000000
23153.000000,8184.000000,13144.000000,53435.000000
23158.000000,8141.000000,13141.000000,53355.000000
23060.000000,8209.000000,13312.000000,53397.000000
23144.000000,8146.000000,13278.000000,53514.000000
23123.000000,8187.000000,13146.000000,53448.000000
23198.000000,8167.000000,13265.000000,53483.000000
23152.000000,8255.000000,13309.000000,53562.000000
23244.000000,8206.000000,13282.000000,53528.000000
23248.000000,8268.000000,13345.000000,53455.000000
23306.000000,8279.000000,13407.000000,53471.000000
23287.000000,8295.000000,13460.000000,53573.000000
23276.000000,8289.000000,13469.000000,53540.000000
23331.000000,8355.000000,13397.000000,53565.000000
23340.000000,8329.000000,13466.000000,53510.000000
23434.000000,8339.000000,13480.000000,53514.000000
23433.000000,8458.000000,13535.000000,53582.000000
23475.000000,8465.000000,13462.000000,53683.000000
23483.000000,8506.000000,13545.000000,53628.000000
23539.000000,8485.000000,13552.000000,53744.000000
23577.000000,8499.000000,13623.000000,53645.000000
23662.000000,8472.000000,13693.000000,53764.000000
23632.000000,8598.000000,13670.000000,53776.000000
23631.000000,8488.000000,13639.000000,53729.000000
23729.000000,8635.000000,13724.000000,53735.000000
23744.000000,8675.000000,13787.000000,53727.000000
23687.000000,8646.000000,13775.000000,53802.000000
23687.000000,8557.000000,13749.000000,53717.000000
23674.000000,8683.000000,13702.000000,53767.000000
23760.000000,8590.000000,13704.000000,53755.000000
23744.000000,8643.000000,13760.000000,53730.000000
23757.000000,8655.000000,13833.000000,53777.000000
23731.000000,8627.000000,13821.000000,53806.000000
23689.000000,8647.000000,13819.000000,53760.000000
23809.000000,8502.000000,13714.000000,53851.000000
23693.000000,8561.000000,13630.000000,53830.000000
23662.000000,8690.000000,13765.000000,53767.000000
23701.000000,8627.000000,13756.000000,53677.000000
23689.000000,8589.000000,13770.000000,53715.000000
23636.000000,8507.000000,13699.000000,53805.000000
23633.000000,8555.000000,13752.000000,53755.000000
23686.000000,8557.000000,13723.000000,53717.000000
23661.000000,8523.000000,13700.000000,53631.000000
23567.000000,8615.000000,13619.000000,53720.000000
23673.000000,8478.000000,13701.000000,53767.000000
23638.000000,8477.000000,13752.000000,53633.000000
23613.000000,8529.000000,13651.000000,53689.000000
23496.000000,8541.000000,13679.000000,53747.000000
23601.000000,8482.000000,13778.000000,53749.000000
23621.000000,8510.000000,13712.000000,53646.000000
23559.000000,8565.000000,13701.000000,53708.000000
23546.000000,8524.000000,13587.000000,53729.000000
23600.000000,8526.000000,13608.000000,53714.000000
23590.000000,8496.000000,13636.000000,53745.000000
23574.000000,8515.000000,13637.000000,53650.000000
23553.000000,8430.000000,13594.000000,53727.000000
23514.000000,8510.000000,13571.000000,53679.000000
23507.000000,8474.000000,13541.000000,53675.000000
23552.000000,8416.000000,13622.000000,53729.000000
23481.000000,8472.000000,13525.000000,53620.000000
23569.000000,8416.000000,13568.000000,53678.000000
23490.000000,8467.000000,13601.000000,53600.000000
23450.000000,8493.000000,13550.000000,53713.000000
23538.000000,8426.000000,13595.000000,53675.000000
23491.000000,8470.000000,13617.000000,53631.000000
23528.000000,8424.000000,13469.000000,53698.000000
23458.000000,8455.000000,13566.000000,53535.000000
23467.000000,8430.000000,13623.000000,53650.000000
23454.000000,8435.000000,13600.000000,53663.000000
23440.000000,8403.000000,13458.000000,53715.000000
23391.000000,8365.000000,13578.000000,53635.000000
23461.000000,8369.000000,13495.000000,53569.000000
23395.000000,8347.000000,13537.000000,53584.000000
23449.000000,8398.000000,13481.000000,53697.000000
23403.000000,8297.000000,13583.000000,53669.000000
23385.000000,8333.000000,13389.000000,53599.000000
23312.000000,8322.000000,13434.000000,53595.000000
23396.000000,8378.000000,13417.000000,53608.000000
23269.000000,8357.000000,13431.000000,53526.000000
23351.000000,8339.000000,13366.000000,53615.000000
23289.000000,8321.000000,13292.000000,53595.000000
23391.000000,8328.000000,13399.000000,53573.000000
23333.000000,8296.000000,13475.000000,53534.000000
23479.000000,8308.000000,13474.000000,53609.000000
23381.000000,8313.000000,13398.000000,53601.000000
23308.000000,8343.000000,13453.000000,53535.000000
23378.000000,8254.000000,13422.000000,53537.000000
23378.000000,8296.000000,13395.000000,53564.000000
23377.000000,8421.000000,13504.000000,53579.000000
23331.000000,8357.000000,13360.000000,53624.000000
23324.000000,8337.000000,13447.000000,53565.000000
23338.000000,8278.000000,13411.000000,53609.000000
23339.000000,8312.000000,13421.000000,53592.000000
23430.000000,8307.000000,13489.000000,53542.000000
23353.000000,8287.000000,13473.000000,53572.000000
23371.000000,8355.000000,13439.000000,53569.000000
23384.000000,8261.000000,13518.000000,53506.000000
23272.000000,8303.000000,13423.000000,53544.000000
23365.000000,8326.000000,13438.000000,53554.000000
23353.000000,8307.000000,13426.000000,53623.000000
23348.000000,8311.000000,13420.000000,53567.000000
23400.000000,8367.000000,13473.000000,53606.000000
23291.000000,8365.000000,13369.000000,53544.000000
23318.000000,8271.000000,13455.000000,53580.000000
23313.000000,8389.000000,13427.000000,53595.000000
23311.000000,8279.000000,13571.000000,53550.000000
23315.000000,8328.000000,13416.000000,53531.000000
23331.000000,8295.000000,13428.000000,53484.000000
23377.000000,8396.000000,13453.000000,53528.000000
23306.000000,8277.000000,13517.000000,53516.000000
23366.000000,8331.000000,13317.000000,53524.000000
23387.000000,8330.000000,13396.000000,53496.000000
23330.000000,8244.000000,13352.000000,53577.000000
23274.000000,8294.000000,13336.000000,53521.000000
23336.000000,8314.000000,13347.000000,53628.000000
23357.000000,8266.000000,13383.000000,53574.000000
23268.000000,8308.000000,13285.000000,53509.000000
23292.000000,8320.000000,13241.000000,53524.000000
23333.000000,8291.000000,13357.000000,53536.000000
23274.000000,8195.000000,13341.000000,53503.000000
23227.000000,8221.000000,13296.000000,53539.000000
23251.000000,8205.000000,13402.000000,53486.000000
23260.000000,8229.000000,13340.000000,53533.000000
23216.000000,8205.000000,13322.000000,53469.000000
23235.000000,8169.000000,13168.000000,53412.000000
23133.000000,8179.000000,13246.000000,53518.000000
23205.000000,8152.000000,13206.000000,53570.000000
23169.000000,8220.000000,13294.000000,53406.000000
23140.000000,8161.000000,13195.000000,53458.000000
23218.000000,8060.000000,13290.000000,53459.000000
23123.000000,8222.000000,13217.000000,53425.000000
23131.000000,8206.000000,13174.000000,53505.000000
23165.000000,8184.000000,13243.000000,53471.000000
23123.000000,8202.000000,13165.000000,53432.000000
23116.000000,8237.000000,13226.000000,53421.000000
23211.000000,8152.000000,13197.000000,53490.000000
23180.000000,8167.000000,13314.000000,53423.000000
23220.000000,8202.000000,13268.000000,53453.000000
23139.000000,8246.000000,13283.000000,53489.000000
23198.000000,8273.000000,13281.000000,53498.000000
23208.000000,8204.000000,13252.000000,53533.000000
23224.000000,8226.000000,13398.000000,53521.000000
23221.000000,8234.000000,13336.000000,53476.000000
23271.000000,8265.000000,13340.000000,53564.000000
23187.000000,8203.000000,13240.000000,53462.000000
23228.000000,8232.000000,13327.000000,53610.000000
23275.000000,8335.000000,13359.000000,53481.000000
23173.000000,8322.000000,13351.000000,53582.000000
23288.000000,8311.000000,13379.000000,53547.000000
23240.000000,8199.000000,13320.000000,53540.000000
23187.000000,8287.000000,13305.000000,53574.000000
23256.000000,8264.000000,13503.000000,53474.000000
23359.000000,8093.000000,13361.000000,53491.000000
23317.000000,8288.000000,13375.000000,53570.000000
23295.000000,8335.000000,13393.000000,53552.000000
23306.000000,8367.000000,13398.000000,53513.000000
23342.000000,8206.000000,13485.000000,53642.000000
23355.000000,8316.000000,13465.000000,53693.000000
23398.000000,8425.000000,13417.000000,53552.000000
23411.000000,8406.000000,13541.000000,53617.000000
23431.000000,8377.000000,13448.000000,53563.000000
23476.000000,8349.000000,13643.000000,53640.000000
23486.000000,8432.000000,13610.000000,53732.000000
23469.000000,8459.000000,13645.000000,53659.000000
23728.000000,8494.000000,13619.000000,53742.000000
23699.000000,8393.000000,13707.000000,53733.000000
23689.000000,8533.000000,13689.000000,53755.000000
23638.000000,8571.000000,13727.000000,53718.000000
23592.000000,8628.000000,13820.000000,53797.000000
23766.000000,8664.000000,13849.000000,53873.000000
23803.000000,8596.000000,13886.000000,53822.000000
23768.000000,8640.000000,13916.000000,53845.000000
23861.000000,8641.000000,13904.000000,53911.000000
23915.000000,8764.000000,13854.000000,53824.000000
23861.000000,8738.000000,13968.000000,53890.000000
23923.000000,8740.000000,14058.000000,53933.000000
23888.000000,8705.000000,14028.000000,53913.000000
23881.000000,8905.000000,14050.000000,53921.000000
23903.000000,8769.000000,13982.000000,53897.000000
23885.000000,8786.000000,13921.000000,53948.000000
23890.000000,8810.000000,14030.000000,53924.000000
23979.000000,8854.000000,13988.000000,53941.000000
23886.000000,8774.000000,14032.000000,53847.000000
23794.000000,8720.000000,14044.000000,53859.000000
23959.000000,8766.000000,13986.000000,53920.000000
23941.000000,8740.000000,13892.000000,53963.000000
23850.000000,8790.000000,14010.000000,53893.000000
23792.000000,8753.000000,14009.000000,53920.000000
23892.000000,8769.000000,13974.000000,53892.000000
23848.000000,8728.000000,14054.000000,53842.000000
23938.000000,8673.000000,13949.000000,53860.000000
23791.000000,8666.000000,13887.000000,53858.000000
23820.000000,8692.000000,13962.000000,53866.000000
23829.000000,8713.000000,13928.000000,53870.000000
23825.000000,8638.000000,13974.000000,53909.000000
23863.000000,8624.000000,13902.000000,53888.000000
23808.000000,8691.000000,13874.000000,53811.000000
23746.000000,8698.000000,13868.000000,53904.000000
23887.000000,8695.000000,13840.000000,53852.000000
23776.000000,8650.000000,13800.000000,53874.000000
23822.000000,8675.000000,13835.000000,53854.000000
23734.000000,8617.000000,13875.000000,53882.000000
23784.000000,8638.000000,13808.000000,53828.000000
23752.000000,8664.000000,13809.000000,53766.000000
23745.000000,8649.000000,13797.000000,53903.000000
23870.000000,8607.000000,13795.000000,53878.000000
23741.000000,8641.000000,13825.000000,53713.000000
23708.000000,8594.000000,13862.000000,53756.000000
23778.000000,8584.000000,13785.000000,53754.000000
23766.000000,8606.000000,13789.000000,53800.000000
23757.000000,8564.000000,13770.000000,53793.000000
23781.000000,8603.000000,13725.000000,53749.000000
23746.000000,8616.000000,13845.000000,53849.000000
23795.000000,8628.000000,13717.000000,53723.000000
23693.000000,8604.000000,13704.000000,53758.000000
23687.000000,8625.000000,13802.000000,53748.000000
23706.000000,8666.000000,13740.000000,53836.000000
23763.000000,8603.000000,13766.000000,53771.000000
23651.000000,8626.000000,13820.000000,53870.000000
23708.000000,8644.000000,13789.000000,53800.000000
23768.000000,8587.000000,13771.000000,53736.000000
23699.000000,8629.000000,13753.000000,53800.000000
23746.000000,8590.000000,13717.000000,53731.000000
23700.000000,8593.000000,13747.000000,53782.000000
23694.000000,8546.000000,13667.000000,53759.000000
23641.000000,8651.000000,13735.000000,53728.000000
23618.000000,8549.000000,13687.000000,53756.000000
23694.000000,8539.000000,13736.000000,53742.000000
23653.000000,8617.000000,13672.000000,53765.000000
23594.000000,8573.000000,13681.000000,53855.000000
23662.000000,8500.000000,13677.000000,53748.000000
23641.000000,8473.000000,13721.000000,53762.000000
23617.000000,8476.000000,13607.000000,53741.000000
23635.000000,8605.000000,13627.000000,53691.000000
23494.000000,8475.000000,13649.000000,53736.000000
23524.000000,8565.000000,13708.000000,53702.000000
23639.000000,8525.000000,13725.000000,53751.000000
23580.000000,8539.000000,13672.000000,53790.000000
23543.000000,8381.000000,13667.000000,53715.000000
23597.000000,8598.000000,13569.000000,53725.000000
23591.000000,8371.000000,13701.000000,53659.000000
23622.000000,8484.000000,13683.000000,53660.000000
23548.000000,8522.000000,13661.000000,53626.000000
23569.000000,8464.000000,13623.000000,53771.000000
23556.000000,8444.000000,13648.000000,53733.000000
23535.000000,8582.000000,13722.000000,53771.000000
23510.000000,8465.000000,13807.000000,53762.000000
23554.000000,8510.000000,13737.000000,53677.000000
23479.000000,8463.000000,13600.000000,53735.000000
23549.000000,8522.000000,13624.000000,53676.000000
23508.000000,8444.000000,13644.000000,53758.000000
23547.000000,8483.000000,13615.000000,53715.000000
23525.000000,8427.000000,13626.000000,53715.000000
23519.000000,8502.000000,13642.000000,53707.000000
23488.000000,8544.000000,13485.000000,53637.000000
23510.000000,8445.000000,13615.000000,53615.000000
23468.000000,8456.000000,13536.000000,53732.000000
23419.000000,8495.000000,13657.000000,53729.000000
23510.000000,8470.000000,13559.000000,53697.000000
23495.000000,8466.000000,13648.000000,53709.000000
23541.000000,8429.000000,13544.000000,53701.000000
23539.000000,8369.000000,13592.000000,53800.000000
23586.000000,8456.000000,13599.000000,53693.000000
23514.000000,8501.000000,13570.000000,53677.000000
23546.000000,8469.000000,13602.000000,53705.000000
23479.000000,8373.000000,13537.000000,53733.000000
23539.000000,8423.000000,13661.000000,53727.000000
23574.000000,8464.000000,13572.000000,53694.000000
23350.000000,8529.000000,13656.000000,53763.000000
23467.000000,8478.000000,13554.000000,53748.000000
23512.000000,8420.000000,13517.000000,53665.000000
23546.000000,8453.000000,13605.000000,53663.000000
23507.000000,8388.000000,13566.000000,53728.000000
23480.000000,8461.000000,13407.000000,53601.000000
23438.000000,8459.000000,13587.000000,53609.000000
23412.000000,8338.000000,13571.000000,53656.000000
23403.000000,8359.000000,13518.000000,53673.000000
23437.000000,8396.000000,13365.000000,53686.000000
23371.000000,8392.000000,13460.000000,53548.000000
23414.000000,8424.000000,13477.000000,53691.000000
23420.000000,8281.000000,13454.000000,53637.000000
23363.000000,8351.000000,13541.000000,53634.000000
23355.000000,8353.000000,13470.000000,53681.000000
23427.000000,8531.000000,13495.000000,53666.000000
23411.000000,8351.000000,13485.000000,53606.000000
23421.000000,8398.000000,13489.000000,53659.000000
23389.000000,8361.000000,13500.000000,53660.000000
23435.000000,8372.000000,13684.000000,53666.000000
23380.000000,8429.000000,13552.000000,53586.000000
23397.000000,8439.000000,13623.000000,53667.000000
23471.000000,8427.000000,13557.000000,53700.000000
23509.000000,8353.000000,13638.000000,53784.000000
23466.000000,8394.000000,13591.000000,53686.000000
23488.000000,8428.000000,13539.000000,53631.000000
23504.000000,8471.000000,13537.000000,53675.000000
23431.000000,8464.000000,13599.000000,53604.000000
23448.000000,8434.000000,13608.000000,53624.000000
23447.000000,8353.000000,13549.000000,53658.000000
23502.000000,8450.000000,13617.000000,53767.000000
23526.000000,8470.000000,13599.000000,53691.000000
23462.000000,8468.000000,13622.000000,53700.000000
23524.000000,8510.000000,13631.000000,53691.000000
23541.000000,8532.000000,13661.000000,53675.000000
23542.000000,8399.000000,13681.000000,53744.000000
23562.000000,8492.000000,13711.000000,53763.000000
23638.000000,8524.000000,13745.000000,53797.000000
23695.000000,8567.000000,13757.000000,53701.000000
23626.000000,8544.000000,13732.000000,53818.000000
23619.000000,8630.000000,13809.000000,53802.000000
23782.000000,8589.000000,13806.000000,53783.000000
23700.000000,8568.000000,13949.000000,53831.000000
23702.000000,8586.000000,13871.000000,53886.000000
23786.000000,8668.000000,13853.000000,53840.000000
23803.000000,8603.000000,13916.000000,53906.000000
23913.000000,8751.000000,13998.000000,53875.000000
23875.000000,8744.000000,14019.000000,53993.000000
23937.000000,8698.000000,14101.000000,53990.000000
23923.000000,8801.000000,14096.000000,53983.000000
23976.000000,8823.000000,14141.000000,54063.000000
24061.000000,8812.000000,14097.000000,54030.000000
24068.000000,8805.000000,14118.000000,54115.000000
24073.000000,8940.000000,14157.000000,54019.000000
24143.000000,8944.000000,14150.000000,54055.000000
24111.000000,8920.000000,14207.000000,54152.000000
24094.000000,8919.000000,14192.000000,54046.000000
24128.000000,8952.000000,14270.000000,54099.000000
24050.000000,8942.000000,14164.000000,54048.000000
24118.000000,8896.000000,14215.000000,54029.000000
24088.000000,8844.000000,14207.000000,54062.000000
24080.000000,8855.000000,14230.000000,54027.000000
24141.000000,8850.000000,14155.000000,54046.000000
24086.000000,8882.000000,14266.000000,54058.000000
24044.000000,8902.000000,14124.000000,54000.000000
24187.000000,8889.000000,14274.000000,54119.000000
24077.000000,8885.000000,14221.000000,54062.000000
24020.000000,8862.000000,14159.000000,54091.000000
24076.000000,8904.000000,14160.000000,54042.000000
24028.000000,8917.000000,14285.000000,54040.000000
24054.000000,8873.000000,14193.000000,54027.000000
24091.000000,8908.000000,14189.000000,54071.000000
24081.000000,8904.000000,14177.000000,54005.000000
24066.000000,8838.000000,14268.000000,53988.000000
24070.000000,8926.000000,14145.000000,53981.000000
24031.000000,8736.000000,14095.000000,54037.000000
24051.000000,8915.000000,14195.000000,54034.000000
24028.000000,8805.000000,14176.000000,54069.000000
24015.000000,8777.000000,14111.000000,54137.000000
24031.000000,8776.000000,14206.000000,53954.000000
23990.000000,8858.000000,14051.000000,54044.000000
23952.000000,8820.000000,14197.000000,54002.000000
23962.000000,8941.000000,14129.000000,54004.000000
24020.000000,8818.000000,14157.000000,53953.000000
23949.000000,8746.000000,14111.000000,54057.000000
24032.000000,8841.000000,14099.000000,53989.000000
23992.000000,8867.000000,14087.000000,54017.000000
23933.000000,8676.000000,14084.000000,53987.000000
23981.000000,8800.000000,14069.000000,54038.000000
23941.000000,8854.000000,14105.000000,54024.000000
23976.000000,8870.000000,14074.000000,53971.000000
23958.000000,8813.000000,14042.000000,53999.000000
24032.000000,8780.000000,14087.000000,53951.000000
23952.000000,8836.000000,14155.000000,53994.000000
23943.000000,8792.000000,13996.000000,54055.000000
23923.000000,8793.000000,14037.000000,53995.000000
24052.000000,8836.000000,14095.000000,53969.000000
23942.000000,8747.000000,14137.000000,53978.000000
23859.000000,8782.000000,14088.000000,53995.000000
23897.000000,8847.000000,14061.000000,53939.000000
23876.000000,8710.000000,14003.000000,53944.000000
23924.000000,8726.000000,13944.000000,53933.000000
23881.000000,8727.000000,14000.000000,53957.000000
23752.000000,8740.000000,14066.000000,53935.000000
23965.000000,8667.000000,13992.000000,53934.000000
23886.000000,8689.000000,14030.000000,53895.000000
23796.000000,8621.000000,14077.000000,53949.000000
23859.000000,8720.000000,14067.000000,53978.000000
23812.000000,8613.000000,14042.000000,53914.000000
23886.000000,8707.000000,14011.000000,53937.000000
23837.000000,8686.000000,14024.000000,53917.000000
23827.000000,8673.000000,14029.000000,53939.000000
23779.000000,8719.000000,13921.000000,53882.000000
23863.000000,8694.000000,13907.000000,53885.000000
23805.000000,8632.000000,13870.000000,53905.000000
23789.000000,8622.000000,13931.000000,53878.000000
23766.000000,8712.000000,13827.000000,53842.000000
23831.000000,8656.000000,13853.000000,53872.000000
23726.000000,8649.000000,13937.000000,53748.000000
23722.000000,8623.000000,13876.000000,53907.000000
23824.000000,8634.000000,13917.000000,53842.000000
23732.000000,8632.000000,13883.000000,53813.000000
23738.000000,8602.000000,13818.000000,53899.000000
23662.000000,8756.000000,13931.000000,53939.000000
23618.000000,8607.000000,13921.000000,53910.000000
23750.000000,8657.000000,13845.000000,53864.000000
23659.000000,8556.000000,13890.000000,53805.000000
23683.000000,8630.000000,13801.000000,53872.000000
23787.000000,8581.000000,13889.000000,53823.000000
23670.000000,8588.000000,13791.000000,53981.000000
23702.000000,8678.000000,13782.000000,53861.000000
23689.000000,8537.000000,13778.000000,53904.000000
23702.000000,8634.000000,13808.000000,53849.000000
23676.000000,8604.000000,13859.000000,53796.000000
23630.000000,8615.000000,13821.000000,53978.000000
23738.000000,8599.000000,13854.000000,53841.000000
23689.000000,8605.000000,13920.000000,53870.000000
23694.000000,8613.000000,13822.000000,53862.000000
23679.000000,8599.000000,13865.000000,53819.000000
23756.000000,8612.000000,13810.000000,53845.000000
23572.000000,8659.000000,13812.000000,53861.000000
23756.000000,8572.000000,13875.000000,53898.000000
23652.000000,8457.000000,13872.000000,53854.000000
23690.000000,8590.000000,13879.000000,53768.000000
23700.000000,8705.000000,13725.000000,53826.000000
23682.000000,8615.000000,13829.000000,53836.000000
23642.000000,8581.000000,13811.000000,53769.000000
23702.000000,8605.000000,13828.000000,53753.000000
23637.000000,8582.000000,13719.000000,53838.000000
23561.000000,8508.000000,13784.000000,53809.000000
23669.000000,8572.000000,13822.000000,53799.000000
23517.000000,8576.000000,13667.000000,53717.000000
23580.000000,8571.000000,13735.000000,53775.000000
23549.000000,8521.000000,13724.000000,53824.000000
23522.000000,8472.000000,13708.000000,53769.000000
23603.000000,8507.000000,13640.000000,53732.000000
23589.000000,8474.000000,13618.000000,53743.000000
23523.000000,8506.000000,13688.000000,53699.000000
23526.000000,8538.000000,13666.000000,53696.000000
23518.000000,8499.000000,13715.000000,53709.000000
23527.000000,8442.000000,13731.000000,53692.000000
23571.000000,8497.000000,13684.000000,53803.000000
23455.000000,8407.000000,13658.000000,53799.000000
23567.000000,8505.000000,13645.000000,53783.000000
23508.000000,8484.000000,13670.000000,53743.000000
23460.000000,8376.000000,13643.000000,53727.000000
23547.000000,8526.000000,13732.000000,53806.000000
23507.000000,8453.000000,13701.000000,53696.000000
23506.000000,8466.000000,13707.000000,53770.000000
23458.000000,8398.000000,13680.000000,53700.000000
23502.000000,8487.000000,13695.000000,53779.000000
23571.000000,8467.000000,13755.000000,53829.000000
23521.000000,8461.000000,13717.000000,53782.000000
23491.000000,8470.000000,13680.000000,53734.000000
23521.000000,8488.000000,13741.000000,53858.000000
23488.000000,8580.000000,13762.000000,53801.000000
23505.000000,8472.000000,13718.000000,53728.000000
23551.000000,8488.000000,13696.000000,53766.000000
23595.000000,8517.000000,13712.000000,53781.000000
23581.000000,8451.000000,13800.000000,53805.000000
23593.000000,8568.000000,13730.000000,53779.000000
23607.000000,8492.000000,13757.000000,53768.000000
23665.000000,8671.000000,13814.000000,53833.000000
23631.000000,8689.000000,13806.000000,53873.000000
23658.000000,8620.000000,13801.000000,53763.000000
23676.000000,8554.000000,13823.000000,53845.000000
23698.000000,8565.000000,13878.000000,53856.000000
23809.000000,8664.000000,13890.000000,53921.000000
23724.000000,8682.000000,13912.000000,53921.000000
23848.000000,8670.000000,13929.000000,53885.000000
23793.000000,8680.000000,14034.000000,53953.000000
23847.000000,8705.000000,13986.000000,53986.000000
23759.000000,8715.000000,14131.000000,53995.000000
23901.000000,8819.000000,14093.000000,54004.000000
24011.000000,8763.000000,14145.000000,54017.000000
23945.000000,8926.000000,14094.000000,54131.000000
24001.000000,8853.000000,14193.000000,54071.000000
24098.000000,8811.000000,14206.000000,54078.000000
24097.000000,8854.000000,14243.000000,54163.000000
24130.000000,8968.000000,14241.000000,54144.000000
24172.000000,8894.000000,14294.000000,54098.000000
24200.000000,8869.000000,14337.000000,54123.000000
24184.000000,8924.000000,14300.000000,54106.000000
24182.000000,8976.000000,14350.000000,54190.000000
24140.000000,8917.000000,14199.000000,54072.000000
24180.000000,8894.000000,14225.000000,54235.000000
24177.000000,8908.000000,14296.000000,54191.000000
24177.000000,8945.000000,14337.000000,54277.000000
24192.000000,8933.000000,14368.000000,54086.000000
24202.000000,8867.000000,14244.000000,54104.000000
24208.000000,8914.000000,14250.000000,54193.000000
24222.000000,8974.000000,14248.000000,54158.000000
24108.000000,8931.000000,14210.000000,54124.000000
24128.000000,8902.000000,14355.000000,54114.000000
24176.000000,8911.000000,14271.000000,54210.000000
24103.000000,8899.000000,14270.000000,54124.000000
24063.000000,8914.000000,14198.000000,54054.000000
24185.000000,8930.000000,14235.000000,54087.000000
24158.000000,8912.000000,14178.000000,54142.000000
24098.000000,8849.000000,14204.000000,54028.000000
24084.000000,8870.000000,14202.000000,54118.000000
24146.000000,8836.000000,14243.000000,54122.000000
24116.000000,8916.000000,14163.000000,54115.000000
24158.000000,8838.000000,14278.000000,54012.000000
23989.000000,8896.000000,14162.000000,54074.000000
23990.000000,8841.000000,14219.000000,54005.000000
24014.000000,8785.000000,14121.000000,54102.000000
23982.000000,8820.000000,14120.000000,54027.000000
24026.000000,8810.000000,14180.000000,54127.000000
24069.000000,8872.000000,14078.000000,53939.000000
23946.000000,8824.000000,14112.000000,53999.000000
23933.000000,8791.000000,14111.000000,54107.000000
23970.000000,8700.000000,14117.000000,54032.000000
23894.000000,8718.000000,14104.000000,53993.000000
23983.000000,8709.000000,14039.000000,53996.000000
23869.000000,8767.000000,14089.000000,54010.000000
23818.000000,8738.000000,14099.000000,54019.000000
23911.000000,8745.000000,14021.000000,54009.000000
23871.000000,8752.000000,14059.000000,53956.000000
23880.000000,8676.000000,14040.000000,54017.000000
23876.000000,8690.000000,13966.000000,53960.000000
23810.000000,8675.000000,13987.000000,53974.000000
23834.000000,8719.000000,14023.000000,53978.000000
23770.000000,8651.000000,13973.000000,53958.000000
23781.000000,8684.000000,13993.000000,53975.000000
23805.000000,8733.000000,14068.000000,54007.000000
23848.000000,8567.000000,14011.000000,53944.000000
23820.000000,8767.000000,13957.000000,53958.000000
23862.000000,8687.000000,13888.000000,53935.000000
23813.000000,8700.000000,14002.000000,53936.000000
23873.000000,8697.000000,13963.000000,53975.000000
23812.000000,8666.000000,13979.000000,53950.000000
23891.000000,8656.000000,13950.000000,53969.000000
23898.000000,8725.000000,13893.000000,53928.000000
23811.000000,8736.000000,13909.000000,53832.000000
23801.000000,8611.000000,13881.000000,53972.000000
23881.000000,8598.000000,13860.000000,53905.000000
23801.000000,8595.000000,13974.000000,53848.000000
23785.000000,8699.000000,13925.000000,53939.000000
23628.000000,8671.000000,13805.000000,53931.000000
23843.000000,8643.000000,13884.000000,53870.000000
23724.000000,8633.000000,13836.000000,53916.000000
23718.000000,8602.000000,13882.000000,53908.000000
23766.000000,8502.000000,13945.000000,53978.000000
23778.000000,8658.000000,13891.000000,53875.000000
23733.000000,8588.000000,13872.000000,53858.000000
23753.000000,8555.000000,13927.000000,53888.000000
23742.000000,8591.000000,13925.000000,53921.000000
23799.000000,8577.000000,13695.000000,53913.000000
23768.000000,8616.000000,13892.000000,53831.000000
23728.000000,8606.000000,13739.000000,53869.000000
23687.000000,8596.000000,13860.000000,53891.000000
23684.000000,8546.000000,13836.000000,53753.000000
23774.000000,8682.000000,13905.000000,53895.000000
23652.000000,8468.000000,13861.000000,54008.000000
23711.000000,8553.000000,13841.000000,53871.000000
23699.000000,8530.000000,13713.000000,53903.000000
23756.000000,8574.000000,13764.000000,53868.000000
23592.000000,8457.000000,13726.000000,53860.000000
23633.000000,8502.000000,13823.000000,53862.000000
23542.000000,8509.000000,13726.000000,53895.000000
23709.000000,8541.000000,13757.000000,53795.000000
23646.000000,8544.000000,13740.000000,53857.000000
23599.000000,8583.000000,13763.000000,53883.000000
23633.000000,8524.000000,13762.000000,53885.000000
23521.000000,8567.000000,13786.000000,53816.000000
23602.000000,8515.000000,13735.000000,53879.000000
23546.000000,8533.000000,13754.000000,53765.000000
23599.000000,8488.000000,13759.000000,53815.000000
23626.000000,8490.000000,13744.000000,53778.000000
23543.000000,8527.000000,13612.000000,53940.000000
23580.000000,8502.000000,13645.000000,53740.000000
23605.000000,8536.000000,13735.000000,53810.000000
23547.000000,8463.000000,13820.000000,53726.000000
23580.000000,8473.000000,13725.000000,53917.000000
23570.000000,8479.000000,13795.000000,53785.000000
23487.000000,8470.000000,13682.000000,53784.000000
23550.000000,8491.000000,13590.000000,53762.000000
23572.000000,8500.000000,13678.000000,53830.000000
23614.000000,8430.000000,13735.000000,53849.000000
23604.000000,8451.000000,13745.000000,53774.000000
23567.000000,8425.000000,13763.000000,53831.000000
23616.000000,8532.000000,13713.000000,53842.000000
23612.000000,8505.000000,13717.000000,53825.000000
23569.000000,8533.000000,13703.000000,53717.000000
23603.000000,8504.000000,13665.000000,53857.000000
23601.000000,8466.000000,13747.000000,53741.000000
23596.000000,8489.000000,13704.000000,53769.000000
23582.000000,8489.000000,13692.000000,53767.000000
23549.000000,8397.000000,13734.000000,53715.000000
23579.000000,8422.000000,13698.000000,53797.000000
23461.000000,8396.000000,13703.000000,53760.000000
23559.000000,8448.000000,13646.000000,53851.000000
23497.000000,8450.000000,13522.000000,53769.000000
23384.000000,8404.000000,13614.000000,53720.000000
23446.000000,8381.000000,13631.000000,53731.000000
23495.000000,8378.000000,13591.000000,53720.000000
23376.000000,8452.000000,13538.000000,53687.000000
23506.000000,8453.000000,13557.000000,53756.000000
23505.000000,8376.000000,13530.000000,53557.000000
23463.000000,8417.000000,13684.000000,53722.000000
23371.000000,8423.000000,13687.000000,53702.000000
23453.000000,8358.000000,13445.000000,53757.000000
23462.000000,8398.000000,13576.000000,53817.000000
23442.000000,8390.000000,13561.000000,53713.000000
23367.000000,8283.000000,13553.000000,53727.000000
23375.000000,8277.000000,13552.000000,53678.000000
23467.000000,8396.000000,13574.000000,53711.000000
23451.000000,8338.000000,13605.000000,53715.000000
23477.000000,8331.000000,13560.000000,53699.000000
23493.000000,8449.000000,13563.000000,53714.000000
23467.000000,8417.000000,13617.000000,53792.000000
23475.000000,8393.000000,13626.000000,53812.000000
23448.000000,8415.000000,13680.000000,53756.000000
23457.000000,8363.000000,13619.000000,53724.000000
23534.000000,8493.000000,13603.000000,53715.000000
23541.000000,8407.000000,13671.000000,53822.000000
23456.000000,8405.000000,13677.000000,53758.000000
23542.000000,8364.000000,13608.000000,53730.000000
23437.000000,8502.000000,13617.000000,53772.000000
23497.000000,8416.000000,13685.000000,53758.000000
23577.000000,8334.000000,13749.000000,53769.000000
23562.000000,8432.000000,13681.000000,53798.000000
23512.000000,8507.000000,13693.000000,53835.000000
23449.000000,8502.000000,13655.000000,53791.000000
23548.000000,8461.000000,13708.000000,53793.000000
23630.000000,8471.000000,13737.000000,53821.000000
23624.000000,8597.000000,13778.000000,53841.000000
23721.000000,8584.000000,13773.000000,53862.000000
23704.000000,8548.000000,13801.000000,53901.000000
23740.000000,8610.000000,13866.000000,53950.000000
23801.000000,8582.000000,13907.000000,53937.000000
23745.000000,8644.000000,13950.000000,53970.000000
23893.000000,8668.000000,13943.000000,53955.000000
23869.000000,8644.000000,14031.000000,54059.000000
23928.000000,8726.000000,14076.000000,54084.000000
23878.000000,8765.000000,14115.000000,54025.000000
24013.000000,8802.000000,14144.000000,54122.000000
23964.000000,8829.000000,14210.000000,54019.000000
24080.000000,8859.000000,14180.000000,54084.000000
24127.000000,8812.000000,14250.000000,54144.000000
24103.000000,8964.000000,14254.000000,54012.000000
24157.000000,8898.000000,14223.000000,54090.000000
24125.000000,8891.000000,14255.000000,54172.000000
24078.000000,8862.000000,14304.000000,54249.000000
24129.000000,8936.000000,14161.000000,54225.000000
24126.000000,8938.000000,14304.000000,54202.000000
24142.000000,8920.000000,14342.000000,54206.000000
24142.000000,8861.000000,14169.000000,54224.000000
24116.000000,8857.000000,14307.000000,54136.000000
24123.000000,8857.000000,14369.000000,54197.000000
24181.000000,8838.000000,14248.000000,54168.000000
24187.000000,8886.000000,14264.000000,54144.000000
24156.000000,8949.000000,14339.000000,54168.000000
24156.000000,8928.000000,14338.000000,54043.000000
24124.000000,8917.000000,14252.000000,54168.000000
24030.000000,8816.000000,14151.000000,54075.000000
24142.000000,8851.000000,14182.000000,54186.000000
24107.000000,8895.000000,14214.000000,54160.000000
24056.000000,8827.000000,14117.000000,54168.000000
24054.000000,8762.000000,14160.000000,54154.000000
24108.000000,8833.000000,14287.000000,54100.000000
24068.000000,8814.000000,14079.000000,54130.000000
23915.000000,8751.000000,14114.000000,54083.000000
24035.000000,8800.000000,14204.000000,54079.000000
24061.000000,8828.000000,14158.000000,54094.000000
24033.000000,8855.000000,14160.000000,54074.000000
24047.000000,8851.000000,14143.000000,54064.000000
24094.000000,8836.000000,14190.000000,54075.000000
24082.000000,8795.000000,14058.000000,54146.000000
24037.000000,8906.000000,14154.000000,54029.000000
24085.000000,8738.000000,14119.000000,54185.000000
23984.000000,8802.000000,14156.000000,54043.000000
24080.000000,8829.000000,14181.000000,54117.000000
24021.000000,8794.000000,14144.000000,54073.000000
24015.000000,8745.000000,14093.000000,54112.000000
24001.000000,8811.000000,14133.000000,54041.000000
24037.000000,8755.000000,14099.000000,54019.000000
23991.000000,8793.000000,14140.000000,54116.000000
23938.000000,8822.000000,14043.000000,54053.000000
23960.000000,8690.000000,14056.000000,53993.000000
23963.000000,8757.000000,14073.000000,54078.000000
24016.000000,8863.000000,14101.000000,54055.000000
24016.000000,8814.000000,14163.000000,54072.000000
23963.000000,8815.000000,14121.000000,54007.000000
24041.000000,8778.000000,14124.000000,54028.000000
24068.000000,8791.000000,14058.000000,53992.000000
24013.000000,8761.000000,14127.000000,53971.000000
24021.000000,8764.000000,14083.000000,54041.000000
24079.000000,8737.000000,14136.000000,54039.000000
23979.000000,8802.000000,14134.000000,54113.000000
23990.000000,8769.000000,14198.000000,54030.000000
24020.000000,8753.000000,14036.000000,54029.000000
24055.000000,8862.000000,14051.000000,54080.000000
24024.000000,8769.000000,14094.000000,54004.000000
23998.000000,8709.000000,14070.000000,54069.000000
23941.000000,8727.000000,14151.000000,54057.000000
23980.000000,8732.000000,14064.000000,53975.000000
23853.000000,8738.000000,14122.000000,54032.000000
23875.000000,8768.000000,14067.000000,53949.000000
24013.000000,8763.000000,14061.000000,54007.000000
23958.000000,8710.000000,14095.000000,54060.000000
23898.000000,8690.000000,13948.000000,53980.000000
23972.000000,8720.000000,13957.000000,53977.000000
23877.000000,8740.000000,14046.000000,54088.000000
23975.000000,8678.000000,13977.000000,53953.000000
23856.000000,8714.000000,14020.000000,53950.000000
23827.000000,8650.000000,14017.000000,53974.000000
23838.000000,8642.000000,13924.000000,53954.000000
23800.000000,8723.000000,13932.000000,54039.000000
23825.000000,8650.000000,13978.000000,53948.000000
23915.000000,8667.000000,13959.000000,53922.000000
23924.000000,8671.000000,13911.000000,53999.000000
23792.000000,8668.000000,13952.000000,54044.000000
23885.000000,8622.000000,13942.000000,53990.000000
23821.000000,8663.000000,13903.000000,53912.000000
23779.000000,8579.000000,13912.000000,54043.000000
23823.000000,8636.000000,13889.000000,53902.000000
23752.000000,8620.000000,13789.000000,53889.000000
23785.000000,8574.000000,13937.000000,53923.000000
23798.000000,8595.000000,13934.000000,53937.000000
23849.000000,8642.000000,13952.000000,53957.000000
23731.000000,8668.000000,13893.000000,53832.000000
23767.000000,8624.000000,13825.000000,53927.000000
23772.000000,8614.000000,13829.000000,53911.000000
23684.000000,8656.000000,13860.000000,54059.000000
23762.000000,8557.000000,13781.000000,53925.000000
23780.000000,8495.000000,13821.000000,53881.000000
23733.000000,8594.000000,13859.000000,53860.000000
23685.000000,8523.000000,13912.000000,54010.000000
23704.000000,8552.000000,13840.000000,53877.000000
23798.000000,8532.000000,13853.000000,53833.000000
23674.000000,8492.000000,13820.000000,53930.000000
23718.000000,8561.000000,13849.000000,53923.000000
23673.000000,8591.000000,13855.000000,53977.000000
23688.000000,8534.000000,13841.000000,53861.000000
23643.000000,8560.000000,13801.000000,53866.000000
23619.000000,8522.000000,13808.000000,53933.000000
23637.000000,8520.000000,13734.000000,53860.000000
23727.000000,8567.000000,13773.000000,53924.000000
23664.000000,8570.000000,13864.000000,53943.000000
23661.000000,8559.000000,13815.000000,53872.000000
23626.000000,8547.000000,13698.000000,53837.000000
23646.000000,8590.000000,13773.000000,53842.000000
23669.000000,8553.000000,13727.000000,53855.000000
23667.000000,8443.000000,13774.000000,53869.000000
23615.000000,8425.000000,13786.000000,53844.000000
23625.000000,8467.000000,13706.000000,53838.000000
23689.000000,8497.000000,13804.000000,53881.000000
23652.000000,8544.000000,13724.000000,53754.000000
23658.000000,8589.000000,13748.000000,53832.000000
23634.000000,8513.000000,13687.000000,53814.000000
23633.000000,8593.000000,13818.000000,53804.000000
23631.000000,8483.000000,13857.000000,53923.000000
23625.000000,8498.000000,13760.000000,53873.000000
23662.000000,8549.000000,13821.000000,53795.000000
23652.000000,8483.000000,13685.000000,53887.000000
23541.000000,8407.000000,13691.000000,53817.000000
23653.000000,8500.000000,13656.000000,53778.000000
23604.000000,8448.000000,13728.000000,53793.000000
23627.000000,8489.000000,13745.000000,53889.000000
23535.000000,8460.000000,13722.000000,53815.000000
23546.000000,8411.000000,13615.000000,53817.000000
23529.000000,8417.000000,13735.000000,53790.000000
23573.000000,8452.000000,13654.000000,53846.000000
23511.000000,8296.000000,13645.000000,53764.000000
23523.000000,8418.000000,13637.000000,53810.000000
23440.000000,8337.000000,13531.000000,53720.000000
23515.000000,8349.000000,13577.000000,53800.000000
23476.000000,8380.000000,13635.000000,53752.000000
23523.000000,8376.000000,13521.000000,53732.000000
23516.000000,8453.000000,13590.000000,53814.000000
23476.000000,8423.000000,13581.000000,53826.000000
23522.000000,8362.000000,13589.000000,53745.000000
23471.000000,8400.000000,13639.000000,53786.000000
23550.000000,8415.000000,13692.000000,53792.000000
23536.000000,8323.000000,13575.000000,53752.000000
23496.000000,8369.000000,13627.000000,53815.000000
23604.000000,8378.000000,13743.000000,53782.000000
23573.000000,8429.000000,13762.000000,53785.000000
23545.000000,8433.000000,13692.000000,53755.000000
23550.000000,8419.000000,13839.000000,53937.000000
23500.000000,8436.000000,13736.000000,53866.000000
23570.000000,8485.000000,13713.000000,53820.000000
23639.000000,8446.000000,13645.000000,53792.000000
23588.000000,8478.000000,13732.000000,53853.000000
23644.000000,8518.000000,13733.000000,53722.000000
23619.000000,8518.000000,13757.000000,53861.000000
23625.000000,8479.000000,13738.000000,53772.000000
23672.000000,8506.000000,13779.000000,53904.000000
23646.000000,8525.000000,13910.000000,53958.000000
23751.000000,8530.000000,13806.000000,53930.000000
23702.000000,8485.000000,13800.000000,53833.000000
23739.000000,8592.000000,13815.000000,53976.000000
23806.000000,8590.000000,14054.000000,53975.000000
23864.000000,8590.000000,13952.000000,53953.000000
23764.000000,8608.000000,14033.000000,54005.000000
23922.000000,8692.000000,13945.000000,53975.000000
23970.000000,8657.000000,14037.000000,54127.000000
24007.000000,8797.000000,14129.000000,54128.000000
23871.000000,8772.000000,14107.000000,54113.000000
24042.000000,8809.000000,14177.000000,54104.000000
24001.000000,8827.000000,14188.000000,54130.000000
24103.000000,8869.000000,14289.000000,54233.000000
24156.000000,8836.000000,14301.000000,54206.000000
24170.000000,8978.000000,14430.000000,54187.000000
24240.000000,8920.000000,14424.000000,54256.000000
24180.000000,9074.000000,14240.000000,54203.000000
24239.000000,8947.000000,14390.000000,54222.000000
24281.000000,9025.000000,14313.000000,54256.000000
24296.000000,8930.000000,14375.000000,54292.000000
24291.000000,8975.000000,14342.000000,54308.000000
24281.000000,8943.000000,14492.000000,54268.000000
24304.000000,8976.000000,14493.000000,54309.000000
24385.000000,8936.000000,14424.000000,54245.000000
24321.000000,9070.000000,14420.000000,54306.000000
24328.000000,9109.000000,14501.000000,54301.000000
24346.000000,9099.000000,14494.000000,54265.000000
24320.000000,9002.000000,14489.000000,54232.000000
24298.000000,8927.000000,14417.000000,54262.000000
24292.000000,8999.000000,14407.000000,54253.000000
24314.000000,8996.000000,14354.000000,54262.000000
24295.000000,8981.000000,14403.000000,54309.000000
24267.000000,9010.000000,14333.000000,54272.000000
24205.000000,8906.000000,14341.000000,54299.000000
24266.000000,8983.000000,14496.000000,54219.000000
24224.000000,8968.000000,14380.000000,54254.000000
24205.000000,8981.000000,14394.000000,54128.000000
24247.000000,9021.000000,14390.000000,54236.000000
24213.000000,8977.000000,14325.000000,54290.000000
24267.000000,8964.000000,14359.000000,54246.000000
24160.000000,8893.000000,14311.000000,54284.000000
24252.000000,9014.000000,14386.000000,54259.000000
24198.000000,8913.000000,14341.000000,54197.000000
24226.000000,8826.000000,14362.000000,54137.000000
24204.000000,8982.000000,14370.000000,54151.000000
24152.000000,9059.000000,14377.000000,54268.000000
24246.000000,8950.000000,14362.000000,54165.000000
24199.000000,8924.000000,14305.000000,54241.000000
24166.000000,8910.000000,14289.000000,54137.000000
24208.000000,8915.000000,14335.000000,54188.000000
24113.000000,8915.000000,14257.000000,54148.000000
24163.000000,8931.000000,14320.000000,54220.000000
24106.000000,8874.000000,14228.000000,54213.000000
24181.000000,8842.000000,14245.000000,54153.000000
24134.000000,8860.000000,14275.000000,54078.000000
24225.000000,8713.000000,14136.000000,54204.000000
24098.000000,8857.000000,14255.000000,54097.000000
24162.000000,8856.000000,14156.000000,54082.000000
24138.000000,8859.000000,14257.000000,54142.000000
24056.000000,8786.000000,14168.000000,54139.000000
24076.000000,8792.000000,14244.000000,54174.000000
24181.000000,8779.000000,14238.000000,54247.000000
24134.000000,8826.000000,14252.000000,54291.000000
24083.000000,8830.000000,14256.000000,54118.000000
24109.000000,8834.000000,14216.000000,54141.000000
24054.000000,8884.000000,14161.000000,54136.000000
24066.000000,8815.000000,14134.000000,54067.000000
23949.000000,8795.000000,14175.000000,54048.000000
24000.000000,8813.000000,14203.000000,54152.000000
24007.000000,8836.000000,14169.000000,54190.000000
23988.000000,8813.000000,14122.000000,54134.000000
23997.000000,8763.000000,13993.000000,54072.000000
23985.000000,8746.000000,14103.000000,53958.000000
24014.000000,8768.000000,14098.000000,54051.000000
23970.000000,8740.000000,14047.000000,54035.000000
23844.000000,8703.000000,14080.000000,54027.000000
23917.000000,8666.000000,14063.000000,54094.000000
23901.000000,8670.000000,14071.000000,54058.000000
23967.000000,8688.000000,13926.000000,54047.000000
23853.000000,8675.000000,13985.000000,53963.000000
23875.000000,8624.000000,13933.000000,53958.000000
23887.000000,8605.000000,13898.000000,53881.000000
23868.000000,8597.000000,13936.000000,54007.000000
23650.000000,8575.000000,13974.000000,54076.000000
23802.000000,8580.000000,13899.000000,54080.000000
23865.000000,8551.000000,14008.000000,54082.000000
23798.000000,8576.000000,13887.000000,53919.000000
23804.000000,8588.000000,13961.000000,53942.000000
23805.000000,8586.000000,13912.000000,53995.000000
23750.000000,8610.000000,13946.000000,53953.000000
23724.000000,8625.000000,13859.000000,53986.000000
23736.000000,8564.000000,13815.000000,54004.000000
23714.000000,8504.000000,13819.000000,53955.000000
23628.000000,8588.000000,13812.000000,53923.000000
23675.000000,8526.000000,13835.000000,53892.000000
23594.000000,8401.000000,13751.000000,53787.000000
23712.000000,8502.000000,13794.000000,53857.000000
23668.000000,8451.000000,13694.000000,53901.000000
23701.000000,8365.000000,13756.000000,53937.000000
23650.000000,8441.000000,13753.000000,53760.000000
23597.000000,8407.000000,13663.000000,53856.000000
23571.000000,8461.000000,13700.000000,53899.000000
23499.000000,8425.000000,13683.000000,53888.000000
23485.000000,8244.000000,13706.000000,53767.000000
23593.000000,8327.000000,13587.000000,53943.000000
23519.000000,8333.000000,13608.000000,53853.000000
23509.000000,8398.000000,13636.000000,53806.000000
23598.000000,8336.000000,13616.000000,53774.000000
23560.000000,8363.000000,13627.000000,53794.000000
23511.000000,8368.000000,13695.000000,53718.000000
23392.000000,8370.000000,13668.000000,53762.000000
23518.000000,8298.000000,13541.000000,53775.000000
23466.000000,8328.000000,13528.000000,53872.000000
23491.000000,8384.000000,13548.000000,53753.000000
23494.000000,8297.000000,13537.000000,53817.000000
23511.000000,8332.000000,13553.000000,53802.000000
23450.000000,8331.000000,13694.000000,53840.000000
23527.000000,8339.000000,13625.000000,53717.000000
23438.000000,8290.000000,13543.000000,53834.000000
23557.000000,8360.000000,13569.000000,53752.000000
23500.000000,8347.000000,13642.000000,53776.000000
23425.000000,8376.000000,13606.000000,53830.000000
23511.000000,8313.000000,13534.000000,53779.000000
23554.000000,8305.000000,13603.000000,53779.000000
23493.000000,8322.000000,13526.000000,53853.000000
23390.000000,8246.000000,13566.000000,53799.000000
23379.000000,8269.000000,13550.000000,53810.000000
23523.000000,8313.000000,13513.000000,53794.000000
23365.000000,8249.000000,13530.000000,53812.000000
23454.000000,8335.000000,13502.000000,53778.000000
23473.000000,8201.000000,13492.000000,53778.000000
23411.000000,8185.000000,13470.000000,53681.000000
23382.000000,8236.000000,13531.000000,53709.000000
23414.000000,8275.000000,13523.000000,53756.000000
23330.000000,8211.000000,13497.000000,53777.000000
23333.000000,8210.000000,13521.000000,53744.000000
23353.000000,8244.000000,13492.000000,53775.000000
23407.000000,8179.000000,13506.000000,53742.000000
23347.000000,8185.000000,13414.000000,53765.000000
23320.000000,8228.000000,13494.000000,53731.000000
23384.000000,8231.000000,13446.000000,53811.000000
23299.000000,8239.000000,13476.000000,53736.000000
23309.000000,8197.000000,13376.000000,53680.000000
23352.000000,8170.000000,13382.000000,53721.000000
23381.000000,8258.000000,13480.000000,53765.000000
23352.000000,8281.000000,13418.000000,53718.000000
23375.000000,8154.000000,13494.000000,53746.000000
23447.000000,8273.000000,13466.000000,53796.000000
23389.000000,8284.000000,13511.000000,53764.000000
23343.000000,8262.000000,13484.000000,53723.000000
23379.000000,8243.000000,13390.000000,53748.000000
23438.000000,8330.000000,13476.000000,53833.000000
23431.000000,8292.000000,13534.000000,53747.000000
23398.000000,8367.000000,13509.000000,53714.000000
23459.000000,8324.000000,13498.000000,53677.000000
23413.000000,8276.000000,13588.000000,53792.000000
23409.000000,8331.000000,13527.000000,53755.000000
23423.000000,8263.000000,13511.000000,53763.000000
23413.000000,8286.000000,13623.000000,53832.000000
23449.000000,8360.000000,13598.000000,53806.000000
23429.000000,8284.000000,13631.000000,53815.000000
23411.000000,8268.000000,13633.000000,53815.000000
23438.000000,8367.000000,13622.000000,53835.000000
23472.000000,8406.000000,13684.000000,53773.000000
23430.000000,8173.000000,13633.000000,53771.000000
23515.000000,8314.000000,13550.000000,53846.000000
23535.000000,8360.000000,13575.000000,53764.000000
23516.000000,8431.000000,13571.000000,53830.000000
23531.000000,8364.000000,13656.000000,53828.000000
23457.000000,8399.000000,13663.000000,53871.000000
23564.000000,8331.000000,13643.000000,53914.000000
23514.000000,8339.000000,13698.000000,53826.000000
23364.000000,8439.000000,13695.000000,53745.000000
23574.000000,8313.000000,13659.000000,53817.000000
23571.000000,8468.000000,13800.000000,53839.000000
23582.000000,8496.000000,13681.000000,53946.000000
23625.000000,8370.000000,13783.000000,53949.000000
23622.000000,8457.000000,13916.000000,53962.000000
23691.000000,8469.000000,13941.000000,54036.000000
23729.000000,8535.000000,13821.000000,53956.000000
23808.000000,8557.000000,13925.000000,54101.000000
23817.000000,8624.000000,13925.000000,54008.000000
23783.000000,8599.000000,13944.000000,54113.000000
23947.000000,8548.000000,14035.000000,54039.000000
23923.000000,8656.000000,14052.000000,54093.000000
24053.000000,8738.000000,14070.000000,54008.000000
23974.000000,8653.000000,14085.000000,54154.000000
24009.000000,8725.000000,14215.000000,54103.000000
24046.000000,8642.000000,14085.000000,54135.000000
24003.000000,8655.000000,14097.000000,54108.000000
24033.000000,8710.000000,14026.000000,54066.000000
24039.000000,8703.000000,14142.000000,54126.000000
23911.000000,8711.000000,14087.000000,54123.000000
23990.000000,8644.000000,14055.000000,54127.000000
24012.000000,8648.000000,14038.000000,54215.000000
23938.000000,8721.000000,13987.000000,54118.000000
23914.000000,8695.000000,14064.000000,54122.000000
23955.000000,8595.000000,14071.000000,54146.000000
23979.000000,8592.000000,14123.000000,54152.000000
23994.000000,8604.000000,14000.000000,54061.000000
23962.000000,8658.000000,14049.000000,54112.000000
23907.000000,8699.000000,14106.000000,53995.000000
23947.000000,8628.000000,14031.000000,54131.000000
23863.000000,8593.000000,14125.000000,54087.000000
23734.000000,8546.000000,14025.000000,54045.000000
23938.000000,8521.000000,13886.000000,54049.000000
23839.000000,8492.000000,13979.000000,54044.000000
23839.000000,8561.000000,13933.000000,54067.000000
23822.000000,8559.000000,13892.000000,54029.000000
23762.000000,8587.000000,13912.000000,54066.000000
23803.000000,8577.000000,13906.000000,54049.000000
23723.000000,8529.000000,13822.000000,54044.000000
23782.000000,8518.000000,13910.000000,54007.000000
23875.000000,8519.000000,13939.000000,53973.000000
23753.000000,8543.000000,13853.000000,54025.000000
23728.000000,8565.000000,13889.000000,54099.000000
23748.000000,8496.000000,13892.000000,53970.000000
23837.000000,8440.000000,13925.000000,53979.000000
23605.000000,8467.000000,13884.000000,54029.000000
23824.000000,8526.000000,13865.000000,53981.000000
23743.000000,8420.000000,13921.000000,53950.000000
23745.000000,8506.000000,13883.000000,54009.000000
23766.000000,8542.000000,13845.000000,54020.000000
23757.000000,8477.000000,13895.000000,53956.000000
23604.000000,8579.000000,13922.000000,54056.000000
23669.000000,8482.000000,13858.000000,53951.000000
23714.000000,8409.000000,13915.000000,53966.000000
23625.000000,8498.000000,13804.000000,54003.000000
23692.000000,8409.000000,13742.000000,53995.000000
23720.000000,8398.000000,13859.000000,53920.000000
23609.000000,8419.000000,13827.000000,54006.000000
23613.000000,8411.000000,13763.000000,53941.000000
23682.000000,8402.000000,13737.000000,53929.000000
23641.000000,8405.000000,13733.000000,54036.000000
23602.000000,8367.000000,13701.000000,53936.000000
23566.000000,8269.000000,13694.000000,53962.000000
23695.000000,8402.000000,13772.000000,53848.000000
23631.000000,8440.000000,13738.000000,53884.000000
23676.000000,8374.000000,13823.000000,53961.000000
23583.000000,8441.000000,13846.000000,53975.000000
23633.000000,8412.000000,13774.000000,53966.000000
23613.000000,8424.000000,13719.000000,54016.000000
23615.000000,8436.000000,13706.000000,53913.000000
23647.000000,8380.000000,13672.000000,53998.000000
23622.000000,8389.000000,13769.000000,54013.000000
23604.000000,8354.000000,13706.000000,53928.000000
23567.000000,8313.000000,13773.000000,53824.000000
23472.000000,8360.000000,13712.000000,53883.000000
23582.000000,8358.000000,13731.000000,53972.000000
23538.000000,8470.000000,13694.000000,53974.000000
23612.000000,8238.000000,13728.000000,53887.000000
23443.000000,8292.000000,13610.000000,53854.000000
23588.000000,8346.000000,13711.000000,53898.000000
23572.000000,8378.000000,13692.000000,53878.000000
23440.000000,8275.000000,13683.000000,53891.000000
23518.000000,8352.000000,13681.000000,53857.000000
23530.000000,8338.000000,13619.000000,53944.000000
23465.000000,8295.000000,13649.000000,53859.000000
23478.000000,8276.000000,13696.000000,53758.000000
23435.000000,8238.000000,13662.000000,53888.000000
23423.000000,8296.000000,13596.000000,53818.000000
23430.000000,8367.000000,13556.000000,53854.000000
23370.000000,8176.000000,13642.000000,53766.000000
23388.000000,8253.000000,13542.000000,53858.000000
23452.000000,8262.000000,13600.000000,53859.000000
23350.000000,8245.000000,13551.000000,53819.000000
23385.000000,8225.000000,13544.000000,53851.000000
23346.000000,8174.000000,13586.000000,53789.000000
23388.000000,8187.000000,13444.000000,53785.000000
23339.000000,8190.000000,13481.000000,53795.000000
23318.000000,8225.000000,13454.000000,53758.000000
23341.000000,8205.000000,13497.000000,53763.000000
23359.000000,8124.000000,13384.000000,53776.000000
23293.000000,8184.000000,13494.000000,53812.000000
23258.000000,8115.000000,13464.000000,53783.000000
23314.000000,8196.000000,13404.000000,53733.000000
23331.000000,8159.000000,13385.000000,53820.000000
23239.000000,8166.000000,13384.000000,53771.000000
23253.000000,8183.000000,13376.000000,53801.000000
23276.000000,8059.000000,13356.000000,53814.000000
23293.000000,8139.000000,13429.000000,53779.000000
23308.000000,8114.000000,13445.000000,53730.000000
23286.000000,8120.000000,13390.000000,53726.000000
23229.000000,8181.000000,13472.000000,53757.000000
23240.000000,8173.000000,13471.000000,53648.000000
23220.000000,8193.000000,13345.000000,53837.000000
23305.000000,8055.000000,13455.000000,53747.000000
23224.000000,8213.000000,13325.000000,53733.000000
23184.000000,8138.000000,13395.000000,53794.000000
23166.000000,8140.000000,13375.000000,53650.000000
23233.000000,8070.000000,13313.000000,53759.000000
23308.000000,8088.000000,13375.000000,53802.000000
23287.000000,8127.000000,13482.000000,53760.000000
23205.000000,8161.000000,13316.000000,53733.000000
23246.000000,8027.000000,13440.000000,53744.000000
23264.000000,8075.000000,13413.000000,53753.000000
23266.000000,8174.000000,13437.000000,53736.000000
23225.000000,8058.000000,13383.000000,53827.000000
23307.000000,8161.000000,13366.000000,53707.000000
23228.000000,8139.000000,13425.000000,53655.000000
23148.000000,8073.000000,13455.000000,53764.000000
23205.000000,8104.000000,13332.000000,53716.000000
23232.000000,8158.000000,13481.000000,53718.000000
23272.000000,8138.000000,13421.000000,53682.000000
23213.000000,8092.000000,13346.000000,53786.000000
23265.000000,8084.000000,13369.000000,53710.000000
23217.000000,8073.000000,13368.000000,53711.000000
23252.000000,8090.000000,13326.000000,53718.000000
23221.000000,8129.000000,13391.000000,53781.000000
23191.000000,8094.000000,13332.000000,53685.000000
23260.000000,8052.000000,13406.000000,53730.000000
23160.000000,8087.000000,13313.000000,53706.000000
23268.000000,8129.000000,13411.000000,53762.000000
23251.000000,8177.000000,13422.000000,53728.000000
23230.000000,8106.000000,13307.000000,53749.000000
23259.000000,8088.000000,13363.000000,53782.000000
23289.000000,8146.000000,13394.000000,53734.000000
23166.000000,8128.000000,13469.000000,53793.000000
23172.000000,8133.000000,13388.000000,53864.000000
23229.000000,8106.000000,13444.000000,53741.000000
23262.000000,8052.000000,13451.000000,53802.000000
23214.000000,8090.000000,13443.000000,53813.000000
23266.000000,8155.000000,13490.000000,53821.000000
23291.000000,8220.000000,13464.000000,53757.000000
23336.000000,8231.000000,13474.000000,53781.000000
23222.000000,8202.000000,13538.000000,53864.000000
23281.000000,8224.000000,13503.000000,53750.000000
23375.000000,8199.000000,13559.000000,53779.000000
23304.000000,8111.000000,13562.000000,53830.000000
23367.000000,8294.000000,13544.000000,53780.000000
23320.000000,8272.000000,13551.000000,53888.000000
23361.000000,8205.000000,13575.000000,53883.000000
23385.000000,8268.000000,13513.000000,53932.000000
23378.000000,8299.000000,13641.000000,53810.000000
23376.000000,8298.000000,13597.000000,53883.000000
23405.000000,8345.000000,13652.000000,53846.000000
23435.000000,8316.000000,13681.000000,53901.000000
23367.000000,8306.000000,13674.000000,53855.000000
23357.000000,8342.000000,13616.000000,53848.000000
23386.000000,8326.000000,13605.000000,53885.000000
23487.000000,8326.000000,13651.000000,53866.000000
23462.000000,8336.000000,13630.000000,53870.000000
23380.000000,8322.000000,13640.000000,53888.000000
23486.000000,8369.000000,13652.000000,53925.000000
23651.000000,8304.000000,13784.000000,53944.000000
23541.000000,8360.000000,13786.000000,54035.000000
23530.000000,8481.000000,13811.000000,53989.000000
23605.000000,8462.000000,13789.000000,53909.000000
23533.000000,8387.000000,13813.000000,54017.000000
23689.000000,8471.000000,13911.000000,54000.000000
23792.000000,8528.000000,13922.000000,54037.000000
23745.000000,8539.000000,13943.000000,54052.000000
23740.000000,8560.000000,13947.000000,53993.000000
23783.000000,8529.000000,14002.000000,54075.000000
23782.000000,8608.000000,14067.000000,54130.000000
23960.000000,8643.000000,14094.000000,54092.000000
23799.000000,8488.000000,13971.000000,54086.000000
23915.000000,8560.000000,14039.000000,54120.000000
23847.000000,8675.000000,14081.000000,54112.000000
23909.000000,8699.000000,14184.000000,54215.000000
23811.000000,8708.000000,14199.000000,54162.000000
23899.000000,8636.000000,14073.000000,54181.000000
23979.000000,8646.000000,14030.000000,54172.000000
23798.000000,8665.000000,14179.000000,54176.000000
23859.000000,8631.000000,14058.000000,54150.000000
23905.000000,8647.000000,14129.000000,54120.000000
23844.000000,8646.000000,14108.000000,54179.000000
23822.000000,8655.000000,14057.000000,54070.000000
23825.000000,8537.000000,14060.000000,54082.000000
23874.000000,8640.000000,14144.000000,54149.000000
23875.000000,8551.000000,14069.000000,54133.000000
23805.000000,8632.000000,14073.000000,54128.000000
23902.000000,8573.000000,14130.000000,54111.000000
23837.000000,8660.000000,14084.000000,54074.000000
23789.000000,8545.000000,14067.000000,54089.000000
23860.000000,8591.000000,14053.000000,54146.000000
23843.000000,8541.000000,14017.000000,54140.000000
23858.000000,8626.000000,14107.000000,54151.000000
23952.000000,8637.000000,14100.000000,54150.000000
23736.000000,8620.000000,14049.000000,54158.000000
23757.000000,8589.000000,14115.000000,54117.000000
23763.000000,8554.000000,14095.000000,54042.000000
23744.000000,8625.000000,14075.000000,54148.000000
23798.000000,8565.000000,13994.000000,54200.000000
23870.000000,8645.000000,13957.000000,54121.000000
23773.000000,8545.000000,13961.000000,54194.000000
23862.000000,8649.000000,14048.000000,54124.000000
23853.000000,8547.000000,14002.000000,54104.000000
23886.000000,8583.000000,14074.000000,54097.000000
23897.000000,8558.000000,14018.000000,54186.000000
23789.000000,8651.000000,14070.000000,54197.000000
23682.000000,8656.000000,14076.000000,54143.000000
23881.000000,8553.000000,14043.000000,54075.000000
23863.000000,8528.000000,14093.000000,54018.000000
23776.000000,8582.000000,14009.000000,54223.000000
23765.000000,8485.000000,14081.000000,54117.000000
23771.000000,8582.000000,13965.000000,54021.000000
23801.000000,8471.000000,13998.000000,54155.000000
23728.000000,8640.000000,13990.000000,54092.000000
23811.000000,8578.000000,13996.000000,54040.000000
23699.000000,8496.000000,14036.000000,54082.000000
23745.000000,8575.000000,13991.000000,54065.000000
23758.000000,8557.000000,13951.000000,54110.000000
23707.000000,8583.000000,13947.000000,54103.000000
23751.000000,8515.000000,13987.000000,54027.000000
23691.000000,8548.000000,13916.000000,54081.000000
23775.000000,8477.000000,13930.000000,54071.000000
23693.000000,8558.000000,14024.000000,54065.000000
23739.000000,8527.000000,14015.000000,54214.000000
23753.000000,8578.000000,13919.000000,54037.000000
23731.000000,8570.000000,13990.000000,54132.000000
23762.000000,8545.000000,13971.000000,54062.000000
23822.000000,8558.000000,13993.000000,54003.000000
23803.000000,8566.000000,13986.000000,54070.000000
23767.000000,8553.000000,13939.000000,54081.000000
23766.000000,8501.000000,13966.000000,54080.000000
23813.000000,8584.000000,13916.000000,54236.000000
23705.000000,8542.000000,13921.000000,54142.000000
23719.000000,8435.000000,13947.000000,54086.000000
23795.000000,8496.000000,13976.000000,54085.000000
23725.000000,8471.000000,13937.000000,54058.000000
23725.000000,8501.000000,13966.000000,54031.000000
23716.000000,8598.000000,13924.000000,54093.000000
23673.000000,8495.000000,13992.000000,54066.000000
23793.000000,8484.000000,13983.000000,54074.000000
23707.000000,8547.000000,13945.000000,54076.000000
23643.000000,8424.000000,13972.000000,54071.000000
23634.000000,8471.000000,13937.000000,54042.000000
23733.000000,8420.000000,13837.000000,54006.000000
23706.000000,8511.000000,13859.000000,54048.000000
23639.000000,8429.000000,13828.000000,54103.000000
23640.000000,8431.000000,13830.000000,54042.000000
23644.000000,8363.000000,13887.000000,54022.000000
23539.000000,8451.000000,13938.000000,54062.000000
23549.000000,8390.000000,13849.000000,53980.000000
23549.000000,8389.000000,13839.000000,54018.000000
23557.000000,8346.000000,13829.000000,53999.000000
23565.000000,8332.000000,13790.000000,53950.000000
23565.000000,8356.000000,13741.000000,53999.000000
23546.000000,8451.000000,13773.000000,53948.000000
23509.000000,8398.000000,13788.000000,53917.000000
23433.000000,8371.000000,13775.000000,53991.000000
23435.000000,8295.000000,13750.000000,54033.000000
23440.000000,8285.000000,13690.000000,53983.000000
23447.000000,8417.000000,13726.000000,54049.000000
23374.000000,8308.000000,13655.000000,53911.000000
23369.000000,8301.000000,13678.000000,53911.000000
23390.000000,8313.000000,13638.000000,53931.000000
23434.000000,8334.000000,13665.000000,53895.000000
23337.000000,8319.000000,13626.000000,53906.000000
23350.000000,8328.000000,13626.000000,53896.000000
23381.000000,8304.000000,13663.000000,53907.000000
23451.000000,8297.000000,13659.000000,53910.000000
23388.000000,8292.000000,13611.000000,53863.000000
23263.000000,8211.000000,13588.000000,53924.000000
23307.000000,8267.000000,13617.000000,53901.000000
23329.000000,8189.000000,13614.000000,53874.000000
23350.000000,8176.000000,13598.000000,53893.000000
23316.000000,8340.000000,13566.000000,53870.000000
23384.000000,8064.000000,13589.000000,53878.000000
23343.000000,8265.000000,13637.000000,53877.000000
23290.000000,8289.000000,13589.000000,53888.000000
23362.000000,8220.000000,13623.000000,53843.000000
23307.000000,8183.000000,13580.000000,53843.000000
23322.000000,8147.000000,13590.000000,53879.000000
23351.000000,8098.000000,13595.000000,53868.000000
23424.000000,8229.000000,13600.000000,53872.000000
23310.000000,8252.000000,13593.000000,53904.000000
23219.000000,8247.000000,13602.000000,53927.000000
23293.000000,8184.000000,13549.000000,53852.000000
23299.000000,8232.000000,13667.000000,53884.000000
23268.000000,8159.000000,13467.000000,53847.000000
23350.000000,8215.000000,13495.000000,53875.000000
23283.000000,8137.000000,13623.000000,53852.000000
23246.000000,8200.000000,13459.000000,53846.000000
23330.000000,8156.000000,13454.000000,53805.000000
23249.000000,8135.000000,13544.000000,53852.000000
23232.000000,8154.000000,13600.000000,53809.000000
23238.000000,8164.000000,13508.000000,53848.000000
23200.000000,8130.000000,13487.000000,53927.000000
23187.000000,8228.000000,13428.000000,53794.000000
23132.000000,8116.000000,13403.000000,53746.000000
23199.000000,8065.000000,13436.000000,53812.000000
23178.000000,8107.000000,13437.000000,53753.000000
23144.000000,8073.000000,13376.000000,53794.000000
23074.000000,8027.000000,13381.000000,53805.000000
23229.000000,8008.000000,13369.000000,53792.000000
23101.000000,8099.000000,13356.000000,53757.000000
23035.000000,8086.000000,13409.000000,53773.000000
23035.000000,8130.000000,13389.000000,53750.000000
23034.000000,8059.000000,13427.000000,53799.000000
23113.000000,8059.000000,13421.000000,53776.000000
23094.000000,8158.000000,13414.000000,53742.000000
23130.000000,8104.000000,13348.000000,53741.000000
23150.000000,8121.000000,13427.000000,53818.000000
23056.000000,8052.000000,13425.000000,53766.000000
23102.000000,8184.000000,13437.000000,53838.000000
23126.000000,8063.000000,13488.000000,53789.000000
23161.000000,8092.000000,13454.000000,53800.000000
23149.000000,8129.000000,13512.000000,53782.000000
23180.000000,8064.000000,13552.000000,53772.000000
23122.000000,8129.000000,13548.000000,53854.000000
23127.000000,8162.000000,13419.000000,53846.000000
23228.000000,8181.000000,13545.000000,53829.000000
23242.000000,8047.000000,13472.000000,53841.000000
23212.000000,8142.000000,13552.000000,53771.000000
23153.000000,8167.000000,13557.000000,53853.000000
23193.000000,8167.000000,13569.000000,53842.000000
23222.000000,8162.000000,13537.000000,53821.000000
23256.000000,8201.000000,13527.000000,53867.000000
23274.000000,8204.000000,13562.000000,53758.000000
23236.000000,8177.000000,13614.000000,53870.000000
23269.000000,8176.000000,13596.000000,53901.000000
23181.000000,8184.000000,13549.000000,53930.000000
23303.000000,8181.000000,13688.000000,53956.000000
23295.000000,8194.000000,13647.000000,53875.000000
23309.000000,8281.000000,13637.000000,53916.000000
23382.000000,8268.000000,13708.000000,53964.000000
23394.000000,8270.000000,13788.000000,53973.000000
23406.000000,8334.000000,13678.000000,53922.000000
23367.000000,8294.000000,13706.000000,53979.000000
23398.000000,8398.000000,13833.000000,53997.000000
23489.000000,8409.000000,13830.000000,54018.000000
23488.000000,8355.000000,13745.000000,54053.000000
23573.000000,8393.000000,13809.000000,53998.000000
23634.000000,8441.000000,13876.000000,54061.000000
23658.000000,8558.000000,14003.000000,54059.000000
23666.000000,8428.000000,13962.000000,54100.000000
23606.000000,8421.000000,13952.000000,54050.000000
23761.000000,8530.000000,14014.000000,54131.000000
23756.000000,8491.000000,14106.000000,54193.000000
23727.000000,8489.000000,14064.000000,54100.000000
23751.000000,8652.000000,14039.000000,54215.000000
23758.000000,8548.000000,14116.000000,54155.000000
23773.000000,8567.000000,14068.000000,54157.000000
23778.000000,8480.000000,14001.000000,54121.000000
23740.000000,8488.000000,14027.000000,54212.000000
23785.000000,8504.000000,14046.000000,54217.000000
23781.000000,8523.000000,14084.000000,54172.000000
23740.000000,8642.000000,14014.000000,54113.000000
23735.000000,8488.000000,13926.000000,54130.000000
23766.000000,8556.000000,14117.000000,54161.000000
23770.000000,8546.000000,14005.000000,54192.000000
23862.000000,8466.000000,14023.000000,54253.000000
23777.000000,8590.000000,14030.000000,54151.000000
23709.000000,8531.000000,13961.000000,54183.000000
23800.000000,8581.000000,14040.000000,54184.000000
23818.000000,8586.000000,14104.000000,54229.000000
23828.000000,8584.000000,14024.000000,54169.000000
23691.000000,8584.000000,14100.000000,54123.000000
23787.000000,8539.000000,14023.000000,54212.000000
23746.000000,8514.000000,14037.000000,54201.000000
23843.000000,8571.000000,14053.000000,54167.000000
23720.000000,8531.000000,14054.000000,54128.000000
23756.000000,8531.000000,14040.000000,54159.000000
23682.000000,8550.000000,14095.000000,54061.000000
23615.000000,8525.000000,14049.000000,54138.000000
23674.000000,8413.000000,14009.000000,54174.000000
23725.000000,8539.000000,13946.000000,54105.000000
23715.000000,8491.000000,13864.000000,54154.000000
23725.000000,8507.000000,13987.000000,54186.000000
23773.000000,8553.000000,14059.000000,54128.000000
23569.000000,8455.000000,13915.000000,54100.000000
23602.000000,8437.000000,13929.000000,54049.000000
23644.000000,8436.000000,13999.000000,54164.000000
23692.000000,8433.000000,13999.000000,54024.000000
23661.000000,8484.000000,13967.000000,54041.000000
23541.000000,8405.000000,13896.000000,54108.000000
23536.000000,8481.000000,13951.000000,54101.000000
23640.000000,8463.000000,13874.000000,54097.000000
23580.000000,8370.000000,13905.000000,54151.000000
23530.000000,8373.000000,13870.000000,54055.000000
23622.000000,8397.000000,13917.000000,53991.000000
23476.000000,8414.000000,13920.000000,54074.000000
23585.000000,8361.000000,13861.000000,54088.000000
23548.000000,8396.000000,13744.000000,53996.000000
23541.000000,8362.000000,13774.000000,54022.000000
23494.000000,8356.000000,13813.000000,54057.000000
23399.000000,8292.000000,13782.000000,53995.000000
23459.000000,8310.000000,13802.000000,53996.000000
23483.000000,8419.000000,13768.000000,54036.000000
23425.000000,8296.000000,13707.000000,53984.000000
23416.000000,8238.000000,13756.000000,54034.000000
23429.000000,8387.000000,13801.000000,53988.000000
23446.000000,8361.000000,13775.000000,54021.000000
23479.000000,8311.000000,13728.000000,54077.000000
23357.000000,8207.000000,13763.000000,54106.000000
23448.000000,8263.000000,13736.000000,53993.000000
23501.000000,8171.000000,13665.000000,54045.000000
23429.000000,8239.000000,13827.000000,53969.000000
23320.000000,8216.000000,13744.000000,53937.000000
23401.000000,8284.000000,13674.000000,53937.000000
23439.000000,8229.000000,13750.000000,53963.000000
23370.000000,8246.000000,13683.000000,54066.000000
23432.000000,8245.000000,13576.000000,53981.000000
23314.000000,8269.000000,13720.000000,53994.000000
23348.000000,8247.000000,13647.000000,53956.000000
23337.000000,8241.000000,13730.000000,53977.000000
23210.000000,8168.000000,13699.000000,54025.000000
23353.000000,8228.000000,13733.000000,53949.000000
23426.000000,8212.000000,13604.000000,53971.000000
23366.000000,8263.000000,13721.000000,53964.000000
23244.000000,8262.000000,13683.000000,53900.000000
23310.000000,8149.000000,13655.000000,53935.000000
23312.000000,8239.000000,13665.000000,53966.000000
23293.000000,8244.000000,13630.000000,53951.000000
23351.000000,8213.000000,13605.000000,53941.000000
23259.000000,8225.000000,13562.000000,53953.000000
23253.000000,8121.000000,13552.000000,53925.000000
23264.000000,8211.000000,13546.000000,53873.000000
23253.000000,8121.000000,13676.000000,53905.000000
23256.000000,8170.000000,13528.000000,53811.000000
23220.000000,8178.000000,13527.000000,53899.000000
23253.000000,8106.000000,13506.000000,53948.000000
23173.000000,8105.000000,13477.000000,53919.000000
23170.000000,8142.000000,13455.000000,53873.000000
23145.000000,8108.000000,13523.000000,53925.000000
23018.000000,8084.000000,13575.000000,53887.000000
23158.000000,8038.000000,13487.000000,53837.000000
23165.000000,8109.000000,13488.000000,53907.000000
23140.000000,8064.000000,13477.000000,53763.000000
23237.000000,7985.000000,13444.000000,53910.000000
23190.000000,8063.000000,13481.000000,53822.000000
23180.000000,8053.000000,13519.000000,53861.000000
23203.000000,8142.000000,13494.000000,53860.000000
23132.000000,8030.000000,13434.000000,53833.000000
23090.000000,8044.000000,13500.000000,53774.000000
23129.000000,8056.000000,13526.000000,53699.000000
23214.000000,8068.000000,13466.000000,53837.000000
23093.000000,8074.000000,13458.000000,53819.000000
23013.000000,7994.000000,13382.000000,53834.000000
23123.000000,8067.000000,13369.000000,53842.000000
23128.000000,8078.000000,13385.000000,53853.000000
23146.000000,8097.000000,13469.000000,53839.000000
23132.000000,8048.000000,13302.000000,53789.000000
23106.000000,8078.000000,13448.000000,53898.000000
23114.000000,8099.000000,13466.000000,53834.000000
23118.000000,8048.000000,13547.000000,53829.000000
23091.000000,8091.000000,13483.000000,53800.000000
23109.000000,8012.000000,13420.000000,53871.000000
23119.000000,7989.000000,13410.000000,53939.000000
23065.000000,8047.000000,13400.000000,53831.000000
23066.000000,8002.000000,13416.000000,53773.000000
23091.000000,8064.000000,13472.000000,53877.000000
23096.000000,8010.000000,13429.000000,53808.000000
23043.000000,7940.000000,13397.000000,53757.000000
23050.000000,8003.000000,13420.000000,53760.000000
23047.000000,8007.000000,13388.000000,53859.000000
22977.000000,8033.000000,13331.000000,53790.000000
22989.000000,7909.000000,13345.000000,53736.000000
23044.000000,8050.000000,13361.000000,53764.000000
23068.000000,8022.000000,13340.000000,53757.000000
23019.000000,7990.000000,13369.000000,53752.000000
23065.000000,7909.000000,13312.000000,53795.000000
23004.000000,7977.000000,13346.000000,53788.000000
22978.000000,7982.000000,13329.000000,53810.000000
23042.000000,8026.000000,13386.000000,53768.000000
22940.000000,7960.000000,13319.000000,53737.000000
23037.000000,7976.000000,13341.000000,53759.000000
22952.000000,7963.000000,13347.000000,53757.000000
22938.000000,7934.000000,13284.000000,53877.000000
22959.000000,7891.000000,13302.000000,53716.000000
22974.000000,7994.000000,13382.000000,53758.000000
23051.000000,8022.000000,13352.000000,53743.000000
23051.000000,7960.000000,13420.000000,53685.000000
23010.000000,7978.000000,13397.000000,53789.000000
23028.000000,8171.000000,13220.000000,53709.000000
23001.000000,8083.000000,13446.000000,53769.000000
23027.000000,7993.000000,13419.000000,53796.000000
23113.000000,8049.000000,13447.000000,53832.000000
23129.000000,8060.000000,13398.000000,53789.000000
23209.000000,8066.000000,13340.000000,53858.000000
23116.000000,8088.000000,13460.000000,53912.000000
23102.000000,8115.000000,13485.000000,53892.000000
23077.000000,8070.000000,13536.000000,53894.000000
23147.000000,8133.000000,13450.000000,53916.000000
23140.000000,8094.000000,13505.000000,53781.000000
23110.000000,8111.000000,13421.000000,53833.000000
23202.000000,8223.000000,13463.000000,53757.000000
23181.000000,8126.000000,13585.000000,53899.000000
23135.000000,8067.000000,13558.000000,53897.000000
23170.000000,8067.000000,13560.000000,53875.000000
23289.000000,8107.000000,13561.000000,53910.000000
23258.000000,8265.000000,13595.000000,53895.000000
23218.000000,8186.000000,13604.000000,53911.000000
23257.000000,8161.000000,13660.000000,54003.000000
23220.000000,8300.000000,13654.000000,53956.000000
23361.000000,8243.000000,13683.000000,54038.000000
23284.000000,8308.000000,13782.000000,53999.000000
23424.000000,8308.000000,13655.000000,54041.000000
23444.000000,8317.000000,13868.000000,54014.000000
23504.000000,8327.000000,13723.000000,54089.000000
23550.000000,8302.000000,13902.000000,53997.000000
23495.000000,8339.000000,13935.000000,54077.000000
23608.000000,8417.000000,13939.000000,54066.000000
23604.000000,8371.000000,13949.000000,54060.000000
23621.000000,8444.000000,13954.000000,54122.000000
23657.000000,8541.000000,14009.000000,54195.000000
23729.000000,8513.000000,14038.000000,54236.000000
23638.000000,8435.000000,14107.000000,54228.000000
23710.000000,8562.000000,14064.000000,54210.000000
23759.000000,8598.000000,13987.000000,54188.000000
23748.000000,8605.000000,14061.000000,54213.000000
23799.000000,8436.000000,14066.000000,54178.000000
23790.000000,8534.000000,14103.000000,54252.000000
23748.000000,8606.000000,14098.000000,54288.000000
23793.000000,8521.000000,14069.000000,54286.000000
23712.000000,8585.000000,14084.000000,54258.000000
23724.000000,8524.000000,14209.000000,54271.000000
23717.000000,8593.000000,14147.000000,54233.000000
23808.000000,8476.000000,14119.000000,54265.000000
23777.000000,8438.000000,14188.000000,54320.000000
23861.000000,8574.000000,14185.000000,54238.000000
23782.000000,8593.000000,14060.000000,54201.000000
23813.000000,8593.000000,14137.000000,54341.000000
23767.000000,8654.000000,14100.000000,54240.000000
23829.000000,8545.000000,14127.000000,54244.000000
23813.000000,8596.000000,14150.000000,54296.000000
23882.000000,8537.000000,14193.000000,54217.000000
23748.000000,8522.000000,14205.000000,54227.000000
23797.000000,8577.000000,14063.000000,54229.000000
23738.000000,8573.000000,14074.000000,54213.000000
23778.000000,8559.000000,14097.000000,54185.000000
23736.000000,8525.000000,14032.000000,54224.000000
23754.000000,8560.000000,14069.000000,54173.000000
23701.000000,8579.000000,14019.000000,54188.000000
23763.000000,8479.000000,14012.000000,54265.000000
23766.000000,8458.000000,14074.000000,54187.000000
23666.000000,8530.000000,14063.000000,54208.000000
23632.000000,8552.000000,14078.000000,54245.000000
23699.000000,8427.000000,13988.000000,54194.000000
23703.000000,8537.000000,14089.000000,54296.000000
23740.000000,8549.000000,14040.000000,54249.000000
23734.000000,8586.000000,14064.000000,54150.000000
23746.000000,8559.000000,14073.000000,54203.000000
23674.000000,8490.000000,14022.000000,54150.000000
23731.000000,8566.000000,13984.000000,54244.000000
23692.000000,8523.000000,14019.000000,54170.000000
23701.000000,8484.000000,13953.000000,54134.000000
23654.000000,8514.000000,14021.000000,54173.000000
23579.000000,8418.000000,14079.000000,54150.000000
23647.000000,8467.000000,13984.000000,54189.000000
23626.000000,8427.000000,13964.000000,54197.000000
23594.000000,8493.000000,13950.000000,54098.000000
23580.000000,8478.000000,13951.000000,54083.000000
23567.000000,8463.000000,13979.000000,54134.000000
23572.000000,8346.000000,13956.000000,54095.000000
23564.000000,8324.000000,13932.000000,54055.000000
23571.000000,8302.000000,13896.000000,54211.000000
23533.000000,8382.000000,13869.000000,54160.000000
23564.000000,8346.000000,13885.000000,54103.000000
23477.000000,8384.000000,13897.000000,54098.000000
23509.000000,8430.000000,13884.000000,53978.000000
23447.000000,8414.000000,13870.000000,54055.000000
23468.000000,8252.000000,13831.000000,54023.000000
23466.000000,8308.000000,13786.000000,54065.000000
23448.000000,8322.000000,13761.000000,54023.000000
23414.000000,8180.000000,13798.000000,54015.000000
23342.000000,8279.000000,13737.000000,54121.000000
23420.000000,8311.000000,13722.000000,54030.000000
23353.000000,8245.000000,13707.000000,54059.000000
23385.000000,8282.000000,13768.000000,54062.000000
23431.000000,8283.000000,13767.000000,54021.000000
23457.000000,8242.000000,13823.000000,54045.000000
23414.000000,8215.000000,13776.000000,53981.000000
23449.000000,8239.000000,13758.000000,54010.000000
23434.000000,8310.000000,13752.000000,53983.000000
23420.000000,8298.000000,13791.000000,53997.000000
23469.000000,8282.000000,13649.000000,53986.000000
23435.000000,8234.000000,13768.000000,54041.000000
23391.000000,8333.000000,13650.000000,53959.000000
23493.000000,8278.000000,13732.000000,54028.000000
23402.000000,8222.000000,13768.000000,54023.000000
23398.000000,8281.000000,13782.000000,54090.000000
23373.000000,8257.000000,13732.000000,54033.000000
23447.000000,8250.000000,13659.000000,53941.000000
23328.000000,8250.000000,13712.000000,54047.000000
23355.000000,8181.000000,13641.000000,53969.000000
23275.000000,8243.000000,13706.000000,53978.000000
23264.000000,8197.000000,13631.000000,53961.000000
23320.000000,8153.000000,13657.000000,53970.000000
23273.000000,8095.000000,13662.000000,53907.000000
23284.000000,8188.000000,13633.000000,53963.000000
23198.000000,8204.000000,13610.000000,53921.000000
23345.000000,8182.000000,13675.000000,53970.000000
23305.000000,8210.000000,13648.000000,53911.000000
23314.000000,8181.000000,13624.000000,53879.000000
23269.000000,8176.000000,13581.000000,53824.000000
23221.000000,8107.000000,13679.000000,53966.000000
23221.000000,8134.000000,13670.000000,53958.000000
23235.000000,8128.000000,13599.000000,54012.000000
23232.000000,8180.000000,13575.000000,53934.000000
23224.000000,8107.000000,13519.000000,53928.000000
23278.000000,8143.000000,13529.000000,54000.000000
23223.000000,8143.000000,13554.000000,53923.000000
23279.000000,8073.000000,13599.000000,53848.000000
23160.000000,8180.000000,13508.000000,53883.000000
23150.000000,8046.000000,13594.000000,53934.000000
23159.000000,8142.000000,13537.000000,53928.000000
23225.000000,8170.000000,13494.000000,53878.000000
23219.000000,8182.000000,13616.000000,53963.000000
23195.000000,8077.000000,13481.000000,53904.000000
23122.000000,8106.000000,13558.000000,53847.000000
23194.000000,8159.000000,13576.000000,53877.000000
23187.000000,8095.000000,13452.000000,53966.000000
23271.000000,8145.000000,13571.000000,53917.000000
23220.000000,8109.000000,13565.000000,53967.000000
23220.000000,8081.000000,13595.000000,53926.000000
23161.000000,8132.000000,13545.000000,53929.000000
23214.000000,8122.000000,13519.000000,53923.000000
23119.000000,8080.000000,13579.000000,53903.000000
23164.000000,8098.000000,13603.000000,53929.000000
23127.000000,8221.000000,13579.000000,53833.000000
23117.000000,8090.000000,13498.000000,53868.000000
23116.000000,8046.000000,13440.000000,53877.000000
23095.000000,7984.000000,13486.000000,53856.000000
23019.000000,8064.000000,13525.000000,53916.000000
23061.000000,8064.000000,13423.000000,53843.000000
23144.000000,7992.000000,13495.000000,53873.000000
23100.000000,8041.000000,13434.000000,53886.000000
23075.000000,7918.000000,13353.000000,53814.000000
23100.000000,8023.000000,13295.000000,53820.000000
22996.000000,7954.000000,13369.000000,53846.000000
22977.000000,7956.000000,13433.000000,53798.000000
23026.000000,7964.000000,13372.000000,53871.000000
23019.000000,8091.000000,13422.000000,53885.000000
22943.000000,7919.000000,13263.000000,53790.000000
23079.000000,8038.000000,13366.000000,53846.000000
23041.000000,8011.000000,13411.000000,53770.000000
23024.000000,8116.000000,13447.000000,53806.000000
22982.000000,8090.000000,13387.000000,53829.000000
23059.000000,8051.000000,13485.000000,53966.000000
23060.000000,8066.000000,13471.000000,53933.000000
23105.000000,8043.000000,13431.000000,53850.000000
23175.000000,8042.000000,13443.000000,53863.000000
23118.000000,8123.000000,13616.000000,53957.000000
23149.000000,8182.000000,13543.000000,53929.000000
23138.000000,8060.000000,13505.000000,53958.000000
23121.000000,8164.000000,13590.000000,53942.000000
23194.000000,8136.000000,13607.000000,53953.000000
23130.000000,8085.000000,13619.000000,53848.000000
23208.000000,8133.000000,13629.000000,53937.000000
23236.000000,8127.000000,13639.000000,53914.000000
23241.000000,8231.000000,13584.000000,53985.000000
23115.000000,8188.000000,13549.000000,54000.000000
23237.000000,8166.000000,13591.000000,53864.000000
23098.000000,8140.000000,13643.000000,53870.000000
23164.000000,8104.000000,13641.000000,53969.000000
23257.000000,8088.000000,13712.000000,53960.000000
23240.000000,8186.000000,13612.000000,53979.000000
23277.000000,8169.000000,13687.000000,54021.000000
23347.000000,8212.000000,13693.000000,53995.000000
23329.000000,8256.000000,13713.000000,53999.000000
23376.000000,8205.000000,13702.000000,54010.000000
23334.000000,8242.000000,13798.000000,54084.000000
23360.000000,8304.000000,13765.000000,54069.000000
23369.000000,8292.000000,13817.000000,54108.000000
23401.000000,8300.000000,13893.000000,54036.000000
23534.000000,8301.000000,13900.000000,54133.000000
23474.000000,8331.000000,13835.000000,54227.000000
23547.000000,8452.000000,13984.000000,54097.000000
23657.000000,8413.000000,13991.000000,54115.000000
23567.000000,8421.000000,14081.000000,54260.000000
23642.000000,8508.000000,14042.000000,54201.000000
23690.000000,8540.000000,14067.000000,54286.000000
23557.000000,8524.000000,14116.000000,54246.000000
23778.000000,8508.000000,14117.000000,54314.000000
23799.000000,8555.000000,14191.000000,54358.000000
23845.000000,8579.000000,14219.000000,54248.000000
23778.000000,8636.000000,14177.000000,54353.000000
23840.000000,8627.000000,14159.000000,54355.000000
23737.000000,8648.000000,14200.000000,54325.000000
23749.000000,8568.000000,14172.000000,54341.000000
23804.000000,8560.000000,14160.000000,54298.000000
23743.000000,8551.000000,14168.000000,54297.000000
23687.000000,8565.000000,14087.000000,54292.000000
23814.000000,8590.000000,14146.000000,54325.000000
23728.000000,8561.000000,14246.000000,54279.000000
23769.000000,8535.000000,14179.000000,54289.000000
23733.000000,8574.000000,14182.000000,54281.000000
23755.000000,8525.000000,14131.000000,54230.000000
23750.000000,8513.000000,14113.000000,54228.000000
23740.000000,8616.000000,14088.000000,54294.000000
23758.000000,8604.000000,14092.000000,54273.000000
23784.000000,8575.000000,14158.000000,54314.000000
23777.000000,8530.000000,14029.000000,54275.000000
23728.000000,8505.000000,14184.000000,54295.000000
23678.000000,8608.000000,14212.000000,54340.000000
23700.000000,8510.000000,14146.000000,54359.000000
23679.000000,8507.000000,14078.000000,54250.000000
23790.000000,8492.000000,14048.000000,54200.000000
23639.000000,8539.000000,14122.000000,54247.000000
23619.000000,8426.000000,14024.000000,54311.000000
23640.000000,8442.000000,14033.000000,54232.000000
23583.000000,8426.000000,14000.000000,54259.000000
23616.000000,8470.000000,14055.000000,54208.000000
23678.000000,8427.000000,14013.000000,54169.000000
23531.000000,8434.000000,14041.000000,54229.000000
23582.000000,8406.000000,14001.000000,54246.000000
23588.000000,8435.000000,13996.000000,54203.000000
23562.000000,8380.000000,13968.000000,54201.000000
23600.000000,8398.000000,13883.000000,54173.000000
23526.000000,8382.000000,13918.000000,54215.000000
23583.000000,8451.000000,13997.000000,54228.000000
23584.000000,8444.000000,14004.000000,54124.000000
23456.000000,8397.000000,13925.000000,54189.000000
23462.000000,8401.000000,13898.000000,54155.000000
23451.000000,8358.000000,13904.000000,54147.000000
23444.000000,8273.000000,14023.000000,54105.000000
23467.000000,8322.000000,13918.000000,54202.000000
23472.000000,8269.000000,13875.000000,54103.000000
23372.000000,8357.000000,13876.000000,54115.000000
23453.000000,8285.000000,13899.000000,54140.000000
23522.000000,8355.000000,13888.000000,54170.000000
23440.000000,8365.000000,13909.000000,54173.000000
23424.000000,8314.000000,13876.000000,54103.000000
23431.000000,8327.000000,13877.000000,54051.000000
23451.000000,8345.000000,13839.000000,54125.000000
23402.000000,8333.000000,13766.000000,54169.000000
23466.000000,8255.000000,13853.000000,54100.000000
23348.000000,8284.000000,13875.000000,54109.000000
23389.000000,8306.000000,13737.000000,54118.000000
23389.000000,8308.000000,13869.000000,54065.000000
23376.000000,8299.000000,13817.000000,54082.000000
23413.000000,8254.000000,13794.000000,54079.000000
23408.000000,8251.000000,13771.000000,54043.000000
23346.000000,8283.000000,13786.000000,54051.000000
23370.000000,8253.000000,13819.000000,54143.000000
23371.000000,8269.000000,13808.000000,54035.000000
23386.000000,8200.000000,13825.000000,54121.000000
23385.000000,8242.000000,13806.000000,54098.000000
23369.000000,8258.000000,13754.000000,54065.000000
23316.000000,8196.000000,13769.000000,54072.000000
23322.000000,8297.000000,13770.000000,54151.000000
23323.000000,8215.000000,13806.000000,54060.000000
23373.000000,8176.000000,13700.000000,54018.000000
23266.000000,8158.000000,13773.000000,54051.000000
23319.000000,8140.000000,13655.000000,54113.000000
23291.000000,8228.000000,13689.000000,54113.000000
23251.000000,8174.000000,13773.000000,54087.000000
23317.000000,8197.000000,13640.000000,53986.000000
23278.000000,8196.000000,13700.000000,54007.000000
23240.000000,8174.000000,13782.000000,53962.000000
23198.000000,8162.000000,13682.000000,53984.000000
23268.000000,8137.000000,13766.000000,54034.000000
23286.000000,8115.000000,13720.000000,54149.000000
23269.000000,8183.000000,13718.000000,54084.000000
23240.000000,8301.000000,13680.000000,53983.000000
23240.000000,8202.000000,13729.000000,54027.000000
23279.000000,8178.000000,13651.000000,54012.000000
23302.000000,8195.000000,13710.000000,54098.000000
23233.000000,8105.000000,13666.000000,54016.000000
23193.000000,8149.000000,13672.000000,53986.000000
23239.000000,8182.000000,13709.000000,54046.000000
23256.000000,8135.000000,13629.000000,53985.000000
23140.000000,8123.000000,13639.000000,53987.000000
23190.000000,8236.000000,13625.000000,54013.000000
23278.000000,8123.000000,13677.000000,54041.000000
23248.000000,8114.000000,13686.000000,54028.000000
23230.000000,8111.000000,13608.000000,53966.000000
23251.000000,8170.000000,13640.000000,54017.000000
23205.000000,8142.000000,13688.000000,54090.000000
23229.000000,8144.000000,13635.000000,54017.000000
23168.000000,8090.000000,13745.000000,54133.000000
23236.000000,8137.000000,13642.000000,53977.000000
23263.000000,8188.000000,13651.000000,54045.000000
23252.000000,8164.000000,13714.000000,54016.000000
23165.000000,8095.000000,13666.000000,53925.000000
23297.000000,8070.000000,13659.000000,54013.000000
23144.000000,8112.000000,13704.000000,54006.000000
23269.000000,8074.000000,13686.000000,53965.000000
23129.000000,8078.000000,13539.000000,53973.000000
23121.000000,8076.000000,13579.000000,54041.000000
23166.000000,8102.000000,13593.000000,53929.000000
23061.000000,8095.000000,13530.000000,53853.000000
23029.000000,8111.000000,13569.000000,53919.000000
22967.000000,8059.000000,13479.000000,53902.000000
23083.000000,7993.000000,13615.000000,53934.000000
23011.000000,8017.000000,13608.000000,53879.000000
23087.000000,8010.000000,13474.000000,53859.000000
23093.000000,8022.000000,13510.000000,54054.000000
23100.000000,8117.000000,13552.000000,53938.000000
22992.000000,7947.000000,13634.000000,53921.000000
23108.000000,8025.000000,13603.000000,53977.000000
23042.000000,8117.000000,13593.000000,53959.000000
23155.000000,8037.000000,13557.000000,53912.000000
23055.000000,8100.000000,13619.000000,53954.000000
23112.000000,8016.000000,13568.000000,53958.000000
23063.000000,8031.000000,13550.000000,53942.000000
23096.000000,7991.000000,13542.000000,53998.000000
22972.000000,8076.000000,13511.000000,53903.000000
22989.000000,8012.000000,13504.000000,53916.000000
23051.000000,8065.000000,13633.000000,53957.000000
23038.000000,7997.000000,13517.000000,53958.000000
22935.000000,8019.000000,13564.000000,54027.000000
23013.000000,8135.000000,13550.000000,53998.000000
23130.000000,8032.000000,13547.000000,53941.000000
23087.000000,8084.000000,13644.000000,54046.000000
23202.000000,8139.000000,13655.000000,53957.000000
23017.000000,8162.000000,13618.000000,54049.000000
23150.000000,8173.000000,13644.000000,53942.000000
23123.000000,8108.000000,13650.000000,53984.000000
23159.000000,7997.000000,13689.000000,54021.000000
23143.000000,8182.000000,13657.000000,54042.000000
23188.000000,8161.000000,13670.000000,53988.000000
23138.000000,8111.000000,13681.000000,54037.000000
23160.000000,8168.000000,13754.000000,54067.000000
23171.000000,8179.000000,13714.000000,54007.000000
23138.000000,8137.000000,13723.000000,54132.000000
23150.000000,8184.000000,13705.000000,54045.000000
23217.000000,8159.000000,13649.000000,54091.000000
23186.000000,8137.000000,13748.000000,54060.000000
23217.000000,8238.000000,13744.000000,54132.000000
23210.000000,8307.000000,13708.000000,54022.000000
23301.000000,8295.000000,13789.000000,54138.000000
23316.000000,8167.000000,13835.000000,54092.000000
23282.000000,8265.000000,13894.000000,54092.000000
23304.000000,8288.000000,13883.000000,54123.000000
23350.000000,8264.000000,13893.000000,54156.000000
23378.000000,8243.000000,13856.000000,54137.000000
23346.000000,8224.000000,13844.000000,54212.000000
23374.000000,8291.000000,13892.000000,54256.000000
23478.000000,8415.000000,13955.000000,54199.000000
23382.000000,8427.000000,14019.000000,54229.000000
23510.000000,8445.000000,14118.000000,54221.000000
23411.000000,8366.000000,13952.000000,54224.000000
23571.000000,8442.000000,14120.000000,54361.000000
23593.000000,8418.000000,14072.000000,54384.000000
23645.000000,8481.000000,14160.000000,54333.000000
23658.000000,8475.000000,14074.000000,54239.000000
23671.000000,8506.000000,14251.000000,54344.000000
23679.000000,8544.000000,14203.000000,54340.000000
23644.000000,8523.000000,14236.000000,54355.000000
23614.000000,8387.000000,14238.000000,54393.000000
23654.000000,8587.000000,14083.000000,54383.000000
23615.000000,8482.000000,14144.000000,54384.000000
23654.000000,8478.000000,14248.000000,54331.000000
23652.000000,8509.000000,14170.000000,54368.000000
23723.000000,8491.000000,14023.000000,54312.000000
23689.000000,8437.000000,14111.000000,54350.000000
23654.000000,8478.000000,14192.000000,54273.000000
23657.000000,8553.000000,14149.000000,54354.000000
23681.000000,8505.000000,14158.000000,54402.000000
23654.000000,8485.000000,14184.000000,54300.000000
23709.000000,8554.000000,14209.000000,54321.000000
23600.000000,8413.000000,14161.000000,54307.000000
23606.000000,8430.000000,14199.000000,54302.000000
23604.000000,8459.000000,14089.000000,54410.000000
23620.000000,8456.000000,14130.000000,54216.000000
23600.000000,8437.000000,14157.000000,54304.000000
23628.000000,8495.000000,14142.000000,54359.000000
23628.000000,8398.000000,14184.000000,54320.000000
23622.000000,8434.000000,14134.000000,54286.000000
23681.000000,8455.000000,14028.000000,54359.000000
23590.000000,8434.000000,14173.000000,54377.000000
23434.000000,8459.000000,14083.000000,54283.000000
23544.000000,8407.000000,14087.000000,54314.000000
23536.000000,8542.000000,14216.000000,54298.000000
23463.000000,8433.000000,14160.000000,54266.000000
23562.000000,8365.000000,14020.000000,54299.000000
23477.000000,8393.000000,14007.000000,54305.000000
23548.000000,8434.000000,14052.000000,54213.000000
23478.000000,8430.000000,13979.000000,54345.000000
23520.000000,8339.000000,14055.000000,54253.000000
23477.000000,8359.000000,14062.000000,54263.000000
23502.000000,8354.000000,13919.000000,54281.000000
23506.000000,8373.000000,14100.000000,54263.000000
23403.000000,8354.000000,14001.000000,54196.000000
23445.000000,8336.000000,14057.000000,54265.000000
23398.000000,8326.000000,13964.000000,54183.000000
23346.000000,8316.000000,13893.000000,54224.000000
23400.000000,8316.000000,13979.000000,54333.000000
23313.000000,8279.000000,13962.000000,54157.000000
23381.000000,8273.000000,13766.000000,54229.000000
23333.000000,8269.000000,13890.000000,54173.000000
23300.000000,8253.000000,13912.000000,54154.000000
23329.000000,8248.000000,13849.000000,54149.000000
23327.000000,8236.000000,13996.000000,54157.000000
23309.000000,8267.000000,13859.000000,54132.000000
23350.000000,8260.000000,13764.000000,54257.000000
23284.000000,8201.000000,13821.000000,54193.000000
23295.000000,8258.000000,13831.000000,54118.000000
23282.000000,8173.000000,13780.000000,54116.000000
23165.000000,8151.000000,13778.000000,54144.000000
23253.000000,8132.000000,13748.000000,54079.000000
23283.000000,8159.000000,13763.000000,54105.000000
23243.000000,8188.000000,13819.000000,54162.000000
23159.000000,8088.000000,13733.000000,54064.000000
23187.000000,8166.000000,13745.000000,54073.000000
23205.000000,8137.000000,13742.000000,54161.000000
23131.000000,8098.000000,13810.000000,54082.000000
23137.000000,8068.000000,13782.000000,54086.000000
23168.000000,8144.000000,13721.000000,54062.000000
23169.000000,8118.000000,13781.000000,54092.000000
23193.000000,8116.000000,13710.000000,54041.000000
23130.000000,8178.000000,13624.000000,54084.000000
23171.000000,8159.000000,13752.000000,54029.000000
23110.000000,8128.000000,13585.000000,54021.000000
23071.000000,8121.000000,13698.000000,54134.000000
23088.000000,8070.000000,13619.000000,54089.000000
23167.000000,8053.000000,13580.000000,54065.000000
23154.000000,8091.000000,13681.000000,54061.000000
23106.000000,8147.000000,13706.000000,53965.000000
23068.000000,8111.000000,13643.000000,54077.000000
23108.000000,8091.000000,13694.000000,53971.000000
23124.000000,8055.000000,13648.000000,54042.000000
23114.000000,8136.000000,13761.000000,54079.000000
23037.000000,8056.000000,13650.000000,54034.000000
23125.000000,8011.000000,13663.000000,54004.000000
23129.000000,8079.000000,13711.000000,54144.000000
23148.000000,8137.000000,13688.000000,54091.000000
23085.000000,8098.000000,13644.000000,54055.000000
23088.000000,8034.000000,13673.000000,54054.000000
23129.000000,8126.000000,13737.000000,53932.000000
23073.000000,8099.000000,13640.000000,53985.000000
23097.000000,8110.000000,13660.000000,54108.000000
23118.000000,8051.000000,13730.000000,54082.000000
23174.000000,8147.000000,13653.000000,54058.000000
23159.000000,8193.000000,13757.000000,54107.000000
23181.000000,8148.000000,13688.000000,53992.000000
23219.000000,8086.000000,13751.000000,54081.000000
23185.000000,8117.000000,13737.000000,54082.000000
23167.000000,8157.000000,13735.000000,54094.000000
23186.000000,8095.000000,13752.000000,53961.000000
23137.000000,8134.000000,13732.000000,54070.000000
23182.000000,8191.000000,13724.000000,54098.000000
23195.000000,8138.000000,13694.000000,54062.000000
23253.000000,8100.000000,13738.000000,54106.000000
23213.000000,8112.000000,13771.000000,54038.000000
23157.000000,8141.000000,13729.000000,54047.000000
23149.000000,8161.000000,13752.000000,54130.000000
23064.000000,8165.000000,13717.000000,54044.000000
23082.000000,8115.000000,13612.000000,54135.000000
23053.000000,8157.000000,13716.000000,54095.000000
23038.000000,8110.000000,13738.000000,54081.000000
23055.000000,8165.000000,13654.000000,54073.000000
23073.000000,8112.000000,13622.000000,53987.000000
23059.000000,8154.000000,13607.000000,54075.000000
23085.000000,8110.000000,13707.000000,54067.000000
23113.000000,8100.000000,13601.000000,54001.000000
23075.000000,8068.000000,13600.000000,54063.000000
23030.000000,8027.000000,13605.000000,54065.000000
22924.000000,8049.000000,13550.000000,54008.000000
23079.000000,8111.000000,13566.000000,54091.000000
22978.000000,7924.000000,13523.000000,54027.000000
23000.000000,8041.000000,13622.000000,54055.000000
22987.000000,8090.000000,13635.000000,53936.000000
23000.000000,7980.000000,13588.000000,54000.000000
23005.000000,8123.000000,13669.000000,53971.000000
23009.000000,8038.000000,13580.000000,54065.000000
22935.000000,8017.000000,13567.000000,54079.000000
23069.000000,8113.000000,13633.000000,54059.000000
22986.000000,8064.000000,13578.000000,54032.000000
23000.000000,8106.000000,13625.000000,54103.000000
23069.000000,8135.000000,13651.000000,54052.000000
23103.000000,8129.000000,13602.000000,54121.000000
23043.000000,8101.000000,13694.000000,54016.000000
23026.000000,8080.000000,13654.000000,54081.000000
23093.000000,8075.000000,13708.000000,54045.000000
23128.000000,8035.000000,13699.000000,54056.000000
23108.000000,8162.000000,13737.000000,54048.000000
23190.000000,8101.000000,13772.000000,54043.000000
23084.000000,8120.000000,13727.000000,54100.000000
22982.000000,8203.000000,13756.000000,54096.000000
23171.000000,8178.000000,13799.000000,54061.000000
23130.000000,8114.000000,13738.000000,54051.000000
23229.000000,8147.000000,13810.000000,54057.000000
23196.000000,8140.000000,13899.000000,54139.000000
23347.000000,8220.000000,13902.000000,54146.000000
23215.000000,8211.000000,13884.000000,54157.000000
23258.000000,8259.000000,13912.000000,54207.000000
23265.000000,8189.000000,14034.000000,54236.000000
23247.000000,8212.000000,13904.000000,54167.000000
23286.000000,8230.000000,13937.000000,54280.000000
23427.000000,8344.000000,14003.000000,54212.000000
23444.000000,8317.000000,14017.000000,54315.000000
23416.000000,8351.000000,14114.000000,54294.000000
23448.000000,8351.000000,14092.000000,54366.000000
23469.000000,8396.000000,14125.000000,54365.000000
23491.000000,8361.000000,14098.000000,54363.000000
23574.000000,8448.000000,14182.000000,54326.000000
23583.000000,8582.000000,14210.000000,54369.000000
23632.000000,8506.000000,14277.000000,54365.000000
23683.000000,8553.000000,14253.000000,54313.000000
23475.000000,8536.000000,14297.000000,54484.000000
23653.000000,8431.000000,14314.000000,54486.000000
23704.000000,8539.000000,14217.000000,54493.000000
23730.000000,8611.000000,14296.000000,54511.000000
23632.000000,8567.000000,14401.000000,54423.000000
23779.000000,8497.000000,14364.000000,54433.000000
23711.000000,8564.000000,14357.000000,54422.000000
23738.000000,8554.000000,14325.000000,54450.000000
23738.000000,8551.000000,14368.000000,54462.000000
23720.000000,8556.000000,14364.000000,54488.000000
23803.000000,8620.000000,14230.000000,54465.000000
23742.000000,8607.000000,14316.000000,54405.000000
23782.000000,8613.000000,14324.000000,54513.000000
23742.000000,8503.000000,14307.000000,54514.000000
23753.000000,8535.000000,14305.000000,54438.000000
23751.000000,8579.000000,14320.000000,54437.000000
23682.000000,8535.000000,14318.000000,54438.000000
23735.000000,8539.000000,14318.000000,54439.000000
23699.000000,8571.000000,14355.000000,54453.000000
23712.000000,8626.000000,14334.000000,54464.000000
23692.000000,8446.000000,14288.000000,54476.000000
23628.000000,8528.000000,14304.000000,54427.000000
23699.000000,8639.000000,14363.000000,54392.000000
23646.000000,8547.000000,14232.000000,54435.000000
23697.000000,8514.000000,14215.000000,54378.000000
23709.000000,8519.000000,14290.000000,54399.000000
23661.000000,8541.000000,14266.000000,54433.000000
23635.000000,8641.000000,14299.000000,54430.000000
23666.000000,8503.000000,14251.000000,54401.000000
23623.000000,8444.000000,14294.000000,54409.000000
23567.000000,8545.000000,14200.000000,54392.000000
23575.000000,8484.000000,14241.000000,54447.000000
23549.000000,8440.000000,14179.000000,54456.000000
23617.000000,8507.000000,14235.000000,54417.000000
23570.000000,8491.000000,14233.000000,54443.000000
23635.000000,8528.000000,14169.000000,54360.000000
23569.000000,8537.000000,14203.000000,54421.000000
23565.000000,8443.000000,14249.000000,54391.000000
23597.000000,8438.000000,14188.000000,54375.000000
23626.000000,8513.000000,14264.000000,54428.000000
23593.000000,8469.000000,14201.000000,54334.000000
23646.000000,8459.000000,14249.000000,54375.000000
23596.000000,8451.000000,14246.000000,54420.000000
23573.000000,8486.000000,14215.000000,54385.000000
23596.000000,8467.000000,14310.000000,54437.000000
23685.000000,8550.000000,14218.000000,54379.000000
23589.000000,8472.000000,14070.000000,54357.000000
23541.000000,8456.000000,14194.000000,54381.000000
23544.000000,8435.000000,14219.000000,54293.000000
23582.000000,8509.000000,14190.000000,54361.000000
23588.000000,8533.000000,14116.000000,54393.000000
23540.000000,8490.000000,14279.000000,54320.000000
23562.000000,8341.000000,14117.000000,54432.000000
23589.000000,8414.000000,14232.000000,54351.000000
23588.000000,8435.000000,14108.000000,54396.000000
23560.000000,8480.000000,14267.000000,54326.000000
23506.000000,8462.000000,14193.000000,54265.000000
23518.000000,8436.000000,14179.000000,54353.000000
23516.000000,8406.000000,14170.000000,54259.000000
23554.000000,8313.000000,14264.000000,54319.000000
23533.000000,8406.000000,14093.000000,54315.000000
23589.000000,8400.000000,14089.000000,54263.000000
23450.000000,8357.000000,14153.000000,54306.000000
23486.000000,8414.000000,14166.000000,54255.000000
23548.000000,8411.000000,14111.000000,54336.000000
23481.000000,8354.000000,14115.000000,54342.000000
23540.000000,8353.000000,14039.000000,54254.000000
23508.000000,8398.000000,13997.000000,54280.000000
23437.000000,8358.000000,14127.000000,54337.000000
23401.000000,8446.000000,14110.000000,54265.000000
23418.000000,8405.000000,14040.000000,54317.000000
23369.000000,8302.000000,14025.000000,54321.000000
23413.000000,8405.000000,13970.000000,54218.000000
23381.000000,8313.000000,13996.000000,54268.000000
23406.000000,8303.000000,14102.000000,54227.000000
23389.000000,8284.000000,13970.000000,54251.000000
23414.000000,8294.000000,14112.000000,54297.000000
23355.000000,8269.000000,13968.000000,54252.000000
23374.000000,8419.000000,14062.000000,54312.000000
23411.000000,8324.000000,14000.000000,54221.000000
23410.000000,8229.000000,14047.000000,54178.000000
23401.000000,8334.000000,14063.000000,54312.000000
23427.000000,8308.000000,14136.000000,54294.000000
23378.000000,8263.000000,14082.000000,54228.000000
23413.000000,8399.000000,14131.000000,54254.000000
23418.000000,8346.000000,13946.000000,54395.000000
23430.000000,8446.000000,14008.000000,54287.000000
23482.000000,8354.000000,14063.000000,54248.000000
23479.000000,8290.000000,14212.000000,54327.000000
23418.000000,8304.000000,14076.000000,54289.000000
23421.000000,8309.000000,14019.000000,54264.000000
23372.000000,8353.000000,14014.000000,54319.000000
23452.000000,8337.000000,14041.000000,54327.000000
23383.000000,8358.000000,14049.000000,54239.000000
23425.000000,8256.000000,13989.000000,54227.000000
23397.000000,8384.000000,14042.000000,54154.000000
23364.000000,8291.000000,13979.000000,54263.000000
23373.000000,8332.000000,14024.000000,54251.000000
23416.000000,8247.000000,13895.000000,54133.000000
23378.000000,8275.000000,13984.000000,54237.000000
23358.000000,8271.000000,14005.000000,54163.000000
23319.000000,8250.000000,13992.000000,54265.000000
23336.000000,8291.000000,13938.000000,54262.000000
23342.000000,8363.000000,13955.000000,54239.000000
23176.000000,8172.000000,13899.000000,54236.000000
23354.000000,8272.000000,13876.000000,54221.000000
23306.000000,8194.000000,13924.000000,54245.000000
23256.000000,8273.000000,13870.000000,54230.000000
23278.000000,8248.000000,13900.000000,54180.000000
23292.000000,8260.000000,13942.000000,54299.000000
23288.000000,8224.000000,13887.000000,54138.000000
23284.000000,8207.000000,13932.000000,54157.000000
23320.000000,8123.000000,13937.000000,54154.000000
23267.000000,8197.000000,13904.000000,54195.000000
23250.000000,8142.000000,13904.000000,54187.000000
23279.000000,8224.000000,13830.000000,54224.000000
23273.000000,8227.000000,13935.000000,54286.000000
23258.000000,8234.000000,13923.000000,54200.000000
23334.000000,8264.000000,14004.000000,54206.000000
23278.000000,8243.000000,13858.000000,54140.000000
23240.000000,8379.000000,14021.000000,54261.000000
23323.000000,8211.000000,13888.000000,54311.000000
23285.000000,8292.000000,13933.000000,54270.000000
23378.000000,8383.000000,13897.000000,54241.000000
23245.000000,8245.000000,13920.000000,54249.000000
23351.000000,8288.000000,13960.000000,54266.000000
23379.000000,8243.000000,14034.000000,54275.000000
23455.000000,8235.000000,14077.000000,54251.000000
23396.000000,8358.000000,13987.000000,54256.000000
23360.000000,8336.000000,13948.000000,54297.000000
23359.000000,8261.000000,13977.000000,54182.000000
23495.000000,8281.000000,14035.000000,54283.000000
23426.000000,8328.000000,14017.000000,54316.000000
23366.000000,8396.000000,14088.000000,54238.000000
23424.000000,8416.000000,14161.000000,54335.000000
23495.000000,8391.000000,14155.000000,54369.000000
23551.000000,8427.000000,14160.000000,54357.000000
23465.000000,8405.000000,14181.000000,54324.000000
23597.000000,8439.000000,14194.000000,54350.000000
23591.000000,8522.000000,14206.000000,54371.000000
23616.000000,8504.000000,14252.000000,54431.000000
23656.000000,8519.000000,14281.000000,54425.000000
23608.000000,8484.000000,14261.000000,54481.000000
23677.000000,8629.000000,14355.000000,54475.000000
23751.000000,8569.000000,14360.000000,54473.000000
23703.000000,8580.000000,14463.000000,54454.000000
23795.000000,8652.000000,14430.000000,54555.000000
23874.000000,8645.000000,14535.000000,54529.000000
23868.000000,8779.000000,14471.000000,54500.000000
23868.000000,8619.000000,14493.000000,54587.000000
23848.000000,8684.000000,14558.000000,54568.000000
23958.000000,8747.000000,14558.000000,54625.000000
23894.000000,8724.000000,14552.000000,54599.000000
24013.000000,8795.000000,14582.000000,54496.000000
24046.000000,8682.000000,14586.000000,54586.000000
23934.000000,8767.000000,14530.000000,54695.000000
23877.000000,8732.000000,14561.000000,54660.000000
23907.000000,8646.000000,14613.000000,54613.000000
23952.000000,8718.000000,14597.000000,54600.000000
23932.000000,8750.000000,14504.000000,54486.000000
23936.000000,8615.000000,14585.000000,54579.000000
23937.000000,8656.000000,14482.000000,54522.000000
23964.000000,8649.000000,14440.000000,54528.000000
23853.000000,8667.000000,14532.000000,54671.000000
23885.000000,8618.000000,14453.000000,54544.000000
23835.000000,8642.000000,14390.000000,54603.000000
23826.000000,8680.000000,14524.000000,54641.000000
23832.000000,8631.000000,14418.000000,54476.000000
23835.000000,8733.000000,14400.000000,54476.000000
23766.000000,8657.000000,14463.000000,54569.000000
23763.000000,8561.000000,14421.000000,54452.000000
23758.000000,8600.000000,14428.000000,54519.000000
23830.000000,8543.000000,14309.000000,54489.000000
23766.000000,8570.000000,14341.000000,54522.000000
23799.000000,8629.000000,14395.000000,54467.000000
23784.000000,8571.000000,14315.000000,54455.000000
23786.000000,8462.000000,14382.000000,54491.000000
23723.000000,8497.000000,14302.000000,54469.000000
23756.000000,8476.000000,14305.000000,54496.000000
23745.000000,8501.000000,14303.000000,54432.000000
23701.000000,8434.000000,14256.000000,54437.000000
23700.000000,8558.000000,14381.000000,54402.000000
23683.000000,8491.000000,14298.000000,54469.000000
23707.000000,8480.000000,14340.000000,54441.000000
23650.000000,8437.000000,14182.000000,54337.000000
23668.000000,8499.000000,14256.000000,54381.000000
23692.000000,8430.000000,14127.000000,54409.000000
23629.000000,8420.000000,14223.000000,54399.000000
23583.000000,8432.000000,14150.000000,54415.000000
23674.000000,8531.000000,14180.000000,54365.000000
23700.000000,8352.000000,14224.000000,54430.000000
23676.000000,8453.000000,14179.000000,54400.000000
23659.000000,8472.000000,14239.000000,54422.000000
23652.000000,8485.000000,14166.000000,54449.000000
23627.000000,8435.000000,14204.000000,54356.000000
23686.000000,8438.000000,14162.000000,54378.000000
23569.000000,8423.000000,14185.000000,54389.000000
23638.000000,8451.000000,14174.000000,54364.000000
23493.000000,8463.000000,14145.000000,54354.000000
23534.000000,8373.000000,14118.000000,54383.000000
23599.000000,8363.000000,14114.000000,54362.000000
23551.000000,8400.000000,14143.000000,54368.000000
23569.000000,8402.000000,14134.000000,54342.000000
23499.000000,8427.000000,14101.000000,54440.000000
23456.000000,8311.000000,14122.000000,54371.000000
23509.000000,8352.000000,14143.000000,54305.000000
23510.000000,8395.000000,14083.000000,54342.000000
23539.000000,8362.000000,14148.000000,54297.000000
23531.000000,8397.000000,14039.000000,54335.000000
23506.000000,8318.000000,14071.000000,54300.000000
23426.000000,8335.000000,14018.000000,54245.000000
23408.000000,8332.000000,14052.000000,54293.000000
23427.000000,8272.000000,13992.000000,54292.000000
23437.000000,8332.000000,14128.000000,54245.000000
23409.000000,8360.000000,13960.000000,54283.000000
23317.000000,8201.000000,14032.000000,54190.000000
23425.000000,8279.000000,13973.000000,54232.000000
23435.000000,8263.000000,13898.000000,54288.000000
23352.000000,8266.000000,13954.000000,54250.000000
23357.000000,8305.000000,13904.000000,54218.000000
23327.000000,8234.000000,13959.000000,54278.000000
23281.000000,8255.000000,13933.000000,54245.000000
23436.000000,8224.000000,13936.000000,54287.000000
23402.000000,8221.000000,13793.000000,54239.000000
23353.000000,8242.000000,13937.000000,54275.000000
23391.000000,8288.000000,13936.000000,54252.000000
23246.000000,8230.000000,13988.000000,54294.000000
23296.000000,8200.000000,13926.000000,54303.000000
23419.000000,8266.000000,14014.000000,54213.000000
23366.000000,8258.000000,13870.000000,54301.000000
23267.000000,8258.000000,13903.000000,54229.000000
23312.000000,8181.000000,13860.000000,54130.000000
23404.000000,8291.000000,13994.000000,54278.000000
23337.000000,8224.000000,13939.000000,54268.000000
23283.000000,8253.000000,13916.000000,54387.000000
23314.000000,8221.000000,13918.000000,54392.000000
23409.000000,8274.000000,13937.000000,54119.000000
23329.000000,8258.000000,13938.000000,54225.000000
23318.000000,8189.000000,13960.000000,54299.000000
23246.000000,8132.000000,13874.000000,54183.000000
23300.000000,8226.000000,13919.000000,54207.000000
23294.000000,8229.000000,13857.000000,54200.000000
23316.000000,8218.000000,13887.000000,54218.000000
23309.000000,8107.000000,13856.000000,54214.000000
23297.000000,8119.000000,13769.000000,54191.000000
23298.000000,8133.000000,13846.000000,54150.000000
23181.000000,8154.000000,13824.000000,54123.000000
23198.000000,8116.000000,13694.000000,54117.000000
23275.000000,8216.000000,13766.000000,54139.000000
23234.000000,8116.000000,13749.000000,54170.000000
23218.000000,8169.000000,13759.000000,54160.000000
23236.000000,8127.000000,13793.000000,54142.000000
23225.000000,8108.000000,13780.000000,54150.000000
23226.000000,8144.000000,13725.000000,54130.000000
23206.000000,8132.000000,13712.000000,54004.000000
23214.000000,8113.000000,13791.000000,54175.000000
23157.000000,8127.000000,13790.000000,54096.000000
23144.000000,8022.000000,13811.000000,54203.000000
23158.000000,8102.000000,13725.000000,54152.000000
23155.000000,8078.000000,13799.000000,54152.000000
23224.000000,8043.000000,13788.000000,54125.000000
23238.000000,8054.000000,13701.000000,54167.000000
23146.000000,8156.000000,13659.000000,54097.000000
23186.000000,8172.000000,13774.000000,54147.000000
23244.000000,8128.000000,13793.000000,54041.000000
23155.000000,8125.000000,13765.000000,54122.000000
23086.000000,8049.000000,13754.000000,54082.000000
23138.000000,8030.000000,13640.000000,54103.000000
23132.000000,8043.000000,13626.000000,54088.000000
23168.000000,7944.000000,13769.000000,54164.000000
23054.000000,8121.000000,13504.000000,54086.000000
23169.000000,8030.000000,13729.000000,54085.000000
23205.000000,8005.000000,13738.000000,54140.000000
23239.000000,8086.000000,13751.000000,54176.000000
23161.000000,8023.000000,13678.000000,54187.000000
23203.000000,8076.000000,13763.000000,54178.000000
23269.000000,8061.000000,13848.000000,54065.000000
23197.000000,8091.000000,13877.000000,54136.000000
23236.000000,8121.000000,13803.000000,54210.000000
23240.000000,8149.000000,13795.000000,54203.000000
23284.000000,8235.000000,13883.000000,54041.000000
23290.000000,8122.000000,13817.000000,54178.000000
23205.000000,8098.000000,13779.000000,54246.000000
23152.000000,8197.000000,13900.000000,54117.000000
23223.000000,8075.000000,13814.000000,54108.000000
23133.000000,8119.000000,13910.000000,54162.000000
23180.000000,8145.000000,13853.000000,54157.000000
23318.000000,8158.000000,13859.000000,54219.000000
23259.000000,8176.000000,13779.000000,54130.000000
23283.000000,8112.000000,13911.000000,54285.000000
23303.000000,8163.000000,13787.000000,54135.000000
23342.000000,8155.000000,13835.000000,54163.000000
23276.000000,8223.000000,13888.000000,54225.000000
23282.000000,8240.000000,13909.000000,54211.000000
23340.000000,8248.000000,13871.000000,54256.000000
23362.000000,8225.000000,13896.000000,54262.000000
23367.000000,8215.000000,13911.000000,54278.000000
23470.000000,8285.000000,13882.000000,54285.000000
23449.000000,8265.000000,13937.000000,54315.000000
23413.000000,8309.000000,14016.000000,54319.000000
23480.000000,8404.000000,14103.000000,54301.000000
23490.000000,8225.000000,14058.000000,54338.000000
23630.000000,8348.000000,14191.000000,54369.000000
23565.000000,8386.000000,14108.000000,54443.000000
23679.000000,8362.000000,14154.000000,54369.000000
23626.000000,8476.000000,14106.000000,54367.000000
23684.000000,8425.000000,14208.000000,54489.000000
23679.000000,8616.000000,14213.000000,54409.000000
23788.000000,8547.000000,14190.000000,54540.000000
23806.000000,8447.000000,14360.000000,54550.000000
23800.000000,8439.000000,14301.000000,54434.000000
23743.000000,8525.000000,14313.000000,54459.000000
23885.000000,8473.000000,14256.000000,54492.000000
23825.000000,8545.000000,14347.000000,54422.000000
23862.000000,8549.000000,14293.000000,54520.000000
23825.000000,8551.000000,14346.000000,54524.000000
23803.000000,8583.000000,14252.000000,54516.000000
23877.000000,8493.000000,14303.000000,54412.000000
23853.000000,8514.000000,14339.000000,54462.000000
23878.000000,8521.000000,14374.000000,54540.000000
23881.000000,8594.000000,14362.000000,54526.000000
23765.000000,8651.000000,14309.000000,54562.000000
23860.000000,8601.000000,14332.000000,54545.000000
23789.000000,8626.000000,14429.000000,54553.000000
23746.000000,8615.000000,14387.000000,54551.000000
23789.000000,8537.000000,14335.000000,54446.000000
23859.000000,8499.000000,14300.000000,54442.000000
23825.000000,8598.000000,14346.000000,54551.000000
23759.000000,8571.000000,14342.000000,54463.000000
23815.000000,8538.000000,14401.000000,54569.000000
23902.000000,8602.000000,14251.000000,54526.000000
23831.000000,8531.000000,14307.000000,54480.000000
