660nm,730nm,850nm,940nm
20445.000000,45509.000000,47436.000000,26223.000000
20514.000000,45604.000000,47487.000000,26272.000000
20637.000000,45719.000000,47577.000000,26297.000000
20722.000000,45833.000000,47603.000000,26322.000000
20850.000000,45919.000000,47687.000000,26379.000000
20872.000000,46024.000000,47769.000000,26400.000000
20996.000000,46145.000000,47834.000000,26431.000000
21107.000000,46242.000000,47861.000000,26450.000000
21118.000000,46342.000000,47915.000000,26474.000000
21243.000000,46444.000000,47970.000000,26489.000000
21244.000000,46475.000000,48007.000000,26532.000000
21341.000000,46497.000000,48014.000000,26543.000000
21339.000000,46577.000000,48009.000000,26512.000000
21335.000000,46581.000000,48066.000000,26555.000000
21347.000000,46580.000000,48081.000000,26566.000000
21320.000000,46560.000000,48076.000000,26530.000000
21342.000000,46549.000000,48068.000000,26552.000000
21314.000000,46548.000000,47984.000000,26546.000000
21297.000000,46513.000000,48002.000000,26539.000000
21283.000000,46494.000000,48014.000000,26515.000000
21256.000000,46437.000000,47981.000000,26542.000000
21260.000000,46425.000000,47998.000000,26534.000000
21198.000000,46423.000000,47980.000000,26508.000000
21187.000000,46391.000000,47960.000000,26485.000000
21166.000000,46397.000000,47934.000000,26523.000000
21126.000000,46351.000000,47930.000000,26494.000000
21144.000000,46347.000000,47896.000000,26501.000000
21138.000000,46329.000000,47909.000000,26469.000000
21134.000000,46289.000000,47866.000000,26489.000000
21093.000000,46270.000000,47885.000000,26467.000000
21080.000000,46248.000000,47858.000000,26459.000000
21079.000000,46235.000000,47857.000000,26501.000000
21008.000000,46186.000000,47846.000000,26423.000000
20971.000000,46153.000000,47808.000000,26444.000000
20981.000000,46183.000000,47800.000000,26472.000000
20952.000000,46160.000000,47805.000000,26450.000000
20931.000000,46134.000000,47811.000000,26433.000000
20900.000000,46092.000000,47759.000000,26426.000000
20906.000000,46072.000000,47755.000000,26414.000000
20875.000000,46062.000000,47731.000000,26424.000000
20848.000000,45985.000000,47698.000000,26440.000000
20855.000000,46006.000000,47708.000000,26408.000000
20799.000000,45972.000000,47676.000000,26422.000000
20795.000000,45935.000000,47674.000000,26393.000000
20735.000000,45932.000000,47694.000000,26358.000000
20741.000000,45906.000000,47633.000000,26373.000000
20726.000000,45863.000000,47613.000000,26391.000000
20691.000000,45861.000000,47621.000000,26367.000000
20677.000000,45850.000000,47607.000000,26355.000000
20625.000000,45815.000000,47592.000000,26362.000000
20642.000000,45769.000000,47561.000000,26340.000000
20565.000000,45744.000000,47555.000000,26339.000000
20588.000000,45714.000000,47501.000000,26322.000000
20537.000000,45713.000000,47498.000000,26347.000000
20560.000000,45681.000000,47473.000000,26314.000000
20479.000000,45676.000000,47489.000000,26316.000000
20470.000000,45623.000000,47456.000000,26302.000000
20476.000000,45591.000000,47447.000000,26288.000000
20432.000000,45588.000000,47473.000000,26288.000000
20400.000000,45546.000000,47428.000000,26315.000000
20381.000000,45530.000000,47429.000000,26280.000000
20371.000000,45521.000000,47419.000000,26261.000000
20329.000000,45471.000000,47385.000000,26252.000000
20302.000000,45479.000000,47354.000000,26257.000000
20287.000000,45441.000000,47338.000000,26248.000000
20263.000000,45390.000000,47355.000000,26250.000000
20219.000000,45383.000000,47311.000000,26221.000000
20180.000000,45362.000000,47304.000000,26237.000000
20215.000000,45326.000000,47289.000000,26199.000000
20195.000000,45338.000000,47275.000000,26217.000000
20139.000000,45260.000000,47264.000000,26219.000000
20146.000000,45253.000000,47246.000000,26207.000000
20123.000000,45226.000000,47230.000000,26197.000000
20087.000000,45193.000000,47217.000000,26194.000000
20061.000000,45187.000000,47206.000000,26171.000000
20042.000000,45164.000000,47200.000000,26187.000000
20011.000000,45137.000000,47167.000000,26190.000000
20002.000000,45110.000000,47164.000000,26172.000000
20004.000000,45092.000000,47111.000000,26167.000000
19933.000000,45082.000000,47124.000000,26159.000000
19961.000000,45057.000000,47108.000000,26161.000000
19911.000000,45003.000000,47109.000000,26130.000000
19891.000000,44999.000000,47103.000000,26099.000000
19889.000000,44955.000000,47094.000000,26126.000000
19822.000000,44979.000000,47080.000000,26152.000000
19829.000000,44911.000000,47068.000000,26130.000000
19796.000000,44921.000000,47029.000000,26107.000000
19799.000000,44907.000000,47027.000000,26090.000000
19784.000000,44867.000000,47005.000000,26086.000000
19744.000000,44836.000000,47025.000000,26087.000000
19713.000000,44810.000000,47003.000000,26082.000000
19723.000000,44804.000000,46973.000000,26079.000000
19675.000000,44754.000000,46950.000000,26078.000000
19685.000000,44727.000000,46954.000000,26060.000000
19639.000000,44713.000000,46948.000000,26053.000000
19641.000000,44675.000000,46902.000000,26059.000000
19582.000000,44706.000000,46913.000000,26036.000000
19588.000000,44639.000000,46890.000000,26047.000000
19553.000000,44638.000000,46910.000000,26030.000000
19544.000000,44608.000000,46849.000000,26043.000000
19502.000000,44628.000000,46877.000000,26013.000000
19485.000000,44588.000000,46861.000000,26005.000000
19514.000000,44525.000000,46841.000000,26009.000000
19429.000000,44560.000000,46835.000000,26009.000000
19464.000000,44542.000000,46851.000000,26013.000000
19412.000000,44517.000000,46821.000000,25981.000000
19440.000000,44523.000000,46807.000000,25996.000000
19429.000000,44520.000000,46834.000000,25971.000000
19426.000000,44502.000000,46841.000000,26001.000000
19451.000000,44513.000000,46837.000000,25972.000000
19457.000000,44540.000000,46859.000000,26011.000000
19536.000000,44525.000000,46839.000000,25983.000000
19511.000000,44536.000000,46846.000000,25967.000000
19536.000000,44537.000000,46851.000000,25998.000000
19546.000000,44542.000000,46838.000000,25945.000000
19583.000000,44522.000000,46869.000000,25968.000000
19607.000000,44512.000000,46842.000000,25954.000000
19556.000000,44504.000000,46862.000000,25945.000000
19602.000000,44509.000000,46860.000000,25978.000000
19617.000000,44556.000000,46838.000000,25952.000000
19565.000000,44481.000000,46868.000000,25919.000000
19615.000000,44423.000000,46839.000000,25929.000000
19559.000000,44413.000000,46833.000000,25904.000000
19590.000000,44398.000000,46808.000000,25917.000000
19524.000000,44351.000000,46776.000000,25911.000000
19516.000000,44303.000000,46774.000000,25865.000000
19492.000000,44308.000000,46782.000000,25889.000000
19507.000000,44280.000000,46750.000000,25888.000000
19488.000000,44255.000000,46741.000000,25859.000000
19460.000000,44248.000000,46736.000000,25860.000000
19476.000000,44265.000000,46765.000000,25824.000000
19430.000000,44246.000000,46772.000000,25839.000000
19482.000000,44262.000000,46749.000000,25849.000000
19471.000000,44275.000000,46721.000000,25834.000000
19536.000000,44252.000000,46741.000000,25853.000000
19482.000000,44313.000000,46764.000000,25872.000000
19515.000000,44318.000000,46776.000000,25883.000000
19515.000000,44335.000000,46791.000000,25859.000000
19552.000000,44371.000000,46802.000000,25872.000000
19620.000000,44379.000000,46828.000000,25904.000000
19573.000000,44426.000000,46815.000000,25914.000000
19640.000000,44454.000000,46858.000000,25896.000000
19663.000000,44509.000000,46891.000000,25910.000000
19687.000000,44539.000000,46892.000000,25945.000000
19736.000000,44636.000000,46936.000000,25919.000000
19775.000000,44627.000000,46948.000000,25965.000000
19793.000000,44641.000000,47001.000000,25992.000000
19804.000000,44687.000000,47040.000000,26002.000000
19897.000000,44783.000000,47058.000000,26006.000000
19897.000000,44775.000000,47086.000000,26020.000000
19949.000000,44862.000000,47094.000000,26032.000000
19990.000000,44863.000000,47116.000000,26039.000000
20036.000000,44937.000000,47166.000000,26077.000000
20130.000000,44993.000000,47172.000000,26072.000000
20157.000000,45043.000000,47217.000000,26081.000000
20207.000000,45146.000000,47255.000000,26083.000000
20239.000000,45171.000000,47299.000000,26134.000000
20355.000000,45221.000000,47330.000000,26158.000000
20423.000000,45343.000000,47411.000000,26170.000000
20502.000000,45450.000000,47447.000000,26210.000000
20551.000000,45507.000000,47488.000000,26229.000000
20633.000000,45604.000000,47529.000000,26244.000000
20721.000000,45714.000000,47570.000000,26279.000000
20811.000000,45827.000000,47670.000000,26288.000000
20903.000000,45930.000000,47711.000000,26353.000000
20999.000000,46014.000000,47767.000000,26366.000000
21095.000000,46118.000000,47856.000000,26395.000000
21197.000000,46249.000000,47906.000000,26439.000000
21272.000000,46347.000000,47961.000000,26461.000000
21316.000000,46458.000000,48015.000000,26481.000000
21433.000000,46520.000000,48057.000000,26510.000000
21466.000000,46590.000000,48073.000000,26526.000000
21487.000000,46620.000000,48134.000000,26547.000000
21531.000000,46655.000000,48175.000000,26539.000000
21548.000000,46660.000000,48168.000000,26570.000000
21533.000000,46664.000000,48155.000000,26563.000000
21513.000000,46655.000000,48176.000000,26564.000000
21508.000000,46623.000000,48163.000000,26549.000000
21520.000000,46664.000000,48155.000000,26552.000000
21494.000000,46606.000000,48114.000000,26525.000000
21457.000000,46625.000000,48131.000000,26527.000000
21472.000000,46584.000000,48140.000000,26561.000000
21467.000000,46574.000000,48091.000000,26547.000000
21434.000000,46551.000000,48106.000000,26514.000000
21409.000000,46558.000000,48085.000000,26533.000000
21410.000000,46500.000000,48080.000000,26490.000000
21387.000000,46517.000000,48046.000000,26521.000000
21399.000000,46511.000000,48055.000000,26508.000000
21361.000000,46467.000000,48059.000000,26510.000000
21380.000000,46486.000000,48035.000000,26501.000000
21348.000000,46437.000000,48039.000000,26485.000000
21310.000000,46429.000000,47995.000000,26516.000000
21292.000000,46412.000000,48022.000000,26465.000000
21322.000000,46405.000000,48003.000000,26486.000000
21249.000000,46388.000000,47990.000000,26488.000000
21275.000000,46361.000000,48008.000000,26474.000000
21259.000000,46385.000000,47959.000000,26480.000000
21243.000000,46312.000000,47989.000000,26469.000000
21268.000000,46325.000000,47978.000000,26480.000000
21248.000000,46295.000000,47969.000000,26465.000000
21226.000000,46330.000000,47927.000000,26451.000000
21220.000000,46293.000000,47958.000000,26453.000000
21192.000000,46281.000000,47920.000000,26439.000000
21166.000000,46247.000000,47929.000000,26461.000000
21155.000000,46256.000000,47909.000000,26433.000000
21169.000000,46226.000000,47933.000000,26446.000000
21173.000000,46221.000000,47893.000000,26457.000000
21146.000000,46227.000000,47883.000000,26430.000000
21116.000000,46164.000000,47874.000000,26434.000000
21122.000000,46169.000000,47850.000000,26428.000000
21074.000000,46142.000000,47855.000000,26421.000000
21071.000000,46143.000000,47851.000000,26405.000000
21070.000000,46113.000000,47880.000000,26410.000000
21050.000000,46089.000000,47819.000000,26386.000000
21009.000000,46076.000000,47810.000000,26382.000000
21022.000000,46054.000000,47808.000000,26407.000000
20977.000000,46021.000000,47808.000000,26396.000000
20980.000000,45998.000000,47794.000000,26398.000000
20957.000000,46009.000000,47773.000000,26385.000000
20945.000000,45962.000000,47770.000000,26380.000000
20961.000000,45950.000000,47753.000000,26378.000000
20883.000000,45926.000000,47747.000000,26359.000000
20914.000000,45922.000000,47741.000000,26362.000000
20838.000000,45925.000000,47739.000000,26336.000000
20877.000000,45893.000000,47700.000000,26359.000000
20832.000000,45890.000000,47692.000000,26336.000000
20824.000000,45835.000000,47694.000000,26343.000000
20826.000000,45856.000000,47677.000000,26321.000000
20788.000000,45803.000000,47678.000000,26305.000000
20777.000000,45810.000000,47640.000000,26316.000000
20751.000000,45760.000000,47661.000000,26295.000000
20747.000000,45733.000000,47572.000000,26303.000000
20720.000000,45725.000000,47623.000000,26293.000000
20668.000000,45678.000000,47568.000000,26271.000000
20673.000000,45669.000000,47613.000000,26282.000000
20655.000000,45650.000000,47575.000000,26280.000000
20618.000000,45616.000000,47550.000000,26280.000000
20585.000000,45608.000000,47554.000000,26257.000000
20600.000000,45606.000000,47539.000000,26252.000000
20572.000000,45558.000000,47530.000000,26271.000000
20537.000000,45529.000000,47502.000000,26259.000000
20512.000000,45491.000000,47495.000000,26240.000000
20534.000000,45501.000000,47475.000000,26230.000000
20491.000000,45478.000000,47469.000000,26215.000000
20481.000000,45435.000000,47454.000000,26209.000000
20444.000000,45428.000000,47435.000000,26226.000000
20424.000000,45401.000000,47431.000000,26192.000000
20418.000000,45381.000000,47406.000000,26185.000000
20373.000000,45367.000000,47401.000000,26188.000000
20343.000000,45320.000000,47387.000000,26174.000000
20344.000000,45339.000000,47361.000000,26172.000000
20301.000000,45293.000000,47376.000000,26181.000000
20300.000000,45272.000000,47348.000000,26161.000000
20288.000000,45265.000000,47316.000000,26155.000000
20266.000000,45221.000000,47329.000000,26137.000000
20257.000000,45207.000000,47328.000000,26121.000000
20275.000000,45202.000000,47299.000000,26139.000000
20192.000000,45186.000000,47297.000000,26109.000000
20204.000000,45155.000000,47282.000000,26107.000000
20188.000000,45158.000000,47260.000000,26124.000000
20186.000000,45125.000000,47259.000000,26123.000000
20148.000000,45133.000000,47264.000000,26124.000000
20133.000000,45103.000000,47248.000000,26105.000000
20121.000000,45074.000000,47239.000000,26090.000000
20077.000000,45031.000000,47230.000000,26080.000000
20070.000000,44998.000000,47211.000000,26083.000000
20041.000000,44993.000000,47158.000000,26052.000000
19985.000000,44945.000000,47165.000000,26051.000000
19972.000000,44908.000000,47168.000000,26060.000000
19987.000000,44890.000000,47121.000000,26041.000000
19912.000000,44863.000000,47088.000000,26018.000000
19894.000000,44796.000000,47080.000000,26000.000000
19886.000000,44772.000000,47052.000000,26002.000000
19818.000000,44731.000000,47011.000000,25972.000000
19776.000000,44707.000000,47009.000000,25990.000000
19746.000000,44680.000000,46999.000000,25964.000000
19734.000000,44645.000000,46967.000000,25968.000000
19688.000000,44601.000000,46961.000000,25964.000000
19690.000000,44562.000000,46933.000000,25940.000000
19635.000000,44545.000000,46915.000000,25958.000000
19650.000000,44516.000000,46890.000000,25932.000000
19586.000000,44525.000000,46900.000000,25927.000000
19583.000000,44473.000000,46919.000000,25921.000000
19590.000000,44498.000000,46860.000000,25905.000000
19603.000000,44476.000000,46886.000000,25926.000000
19621.000000,44497.000000,46878.000000,25929.000000
19631.000000,44515.000000,46907.000000,25931.000000
19619.000000,44529.000000,46917.000000,25917.000000
19607.000000,44503.000000,46919.000000,25930.000000
19619.000000,44559.000000,46927.000000,25929.000000
19646.000000,44582.000000,46955.000000,25916.000000
19694.000000,44571.000000,46951.000000,25958.000000
19692.000000,44639.000000,46944.000000,25948.000000
19737.000000,44655.000000,46978.000000,25973.000000
19749.000000,44695.000000,47000.000000,25972.000000
19805.000000,44748.000000,47023.000000,26008.000000
19835.000000,44765.000000,47049.000000,25980.000000
19851.000000,44779.000000,47069.000000,26003.000000
19907.000000,44836.000000,47088.000000,26025.000000
19915.000000,44898.000000,47106.000000,26021.000000
19988.000000,44934.000000,47116.000000,26039.000000
19975.000000,44987.000000,47161.000000,26051.000000
20017.000000,45032.000000,47196.000000,26077.000000
20060.000000,45071.000000,47194.000000,26099.000000
20097.000000,45133.000000,47252.000000,26083.000000
20149.000000,45179.000000,47269.000000,26134.000000
20225.000000,45196.000000,47327.000000,26113.000000
20289.000000,45294.000000,47337.000000,26132.000000
20337.000000,45339.000000,47398.000000,26152.000000
20398.000000,45430.000000,47419.000000,26195.000000
20455.000000,45504.000000,47472.000000,26213.000000
20535.000000,45572.000000,47489.000000,26225.000000
20623.000000,45710.000000,47578.000000,26271.000000
20710.000000,45785.000000,47622.000000,26302.000000
20807.000000,45893.000000,47689.000000,26313.000000
20908.000000,45974.000000,47744.000000,26343.000000
21030.000000,46102.000000,47813.000000,26354.000000
21062.000000,46183.000000,47880.000000,26403.000000
21192.000000,46325.000000,47926.000000,26440.000000
21241.000000,46397.000000,48005.000000,26463.000000
21360.000000,46497.000000,48053.000000,26486.000000
21397.000000,46561.000000,48093.000000,26518.000000
21450.000000,46633.000000,48115.000000,26541.000000
21499.000000,46706.000000,48135.000000,26577.000000
21519.000000,46700.000000,48200.000000,26550.000000
21546.000000,46762.000000,48178.000000,26602.000000
21574.000000,46734.000000,48218.000000,26583.000000
21582.000000,46736.000000,48194.000000,26603.000000
21538.000000,46716.000000,48221.000000,26567.000000
21578.000000,46729.000000,48202.000000,26563.000000
21510.000000,46741.000000,48160.000000,26557.000000
21511.000000,46688.000000,48172.000000,26562.000000
21501.000000,46683.000000,48139.000000,26544.000000
21456.000000,46665.000000,48140.000000,26563.000000
21490.000000,46645.000000,48141.000000,26537.000000
21425.000000,46604.000000,48137.000000,26531.000000
21478.000000,46579.000000,48106.000000,26539.000000
21407.000000,46577.000000,48087.000000,26545.000000
21381.000000,46566.000000,48079.000000,26527.000000
21382.000000,46566.000000,48083.000000,26512.000000
21353.000000,46539.000000,48050.000000,26502.000000
21349.000000,46512.000000,48042.000000,26499.000000
21304.000000,46482.000000,48050.000000,26508.000000
21318.000000,46474.000000,48010.000000,26497.000000
21282.000000,46437.000000,48020.000000,26505.000000
21274.000000,46435.000000,47991.000000,26485.000000
21275.000000,46415.000000,47998.000000,26489.000000
21247.000000,46390.000000,47976.000000,26494.000000
21230.000000,46363.000000,47955.000000,26476.000000
21177.000000,46329.000000,47944.000000,26459.000000
21194.000000,46345.000000,47967.000000,26488.000000
21168.000000,46324.000000,47958.000000,26440.000000
21150.000000,46299.000000,47910.000000,26451.000000
21093.000000,46275.000000,47896.000000,26483.000000
21094.000000,46238.000000,47907.000000,26438.000000
21075.000000,46213.000000,47889.000000,26440.000000
21049.000000,46215.000000,47899.000000,26432.000000
21047.000000,46183.000000,47866.000000,26448.000000
21037.000000,46173.000000,47847.000000,26426.000000
21022.000000,46136.000000,47831.000000,26410.000000
20995.000000,46147.000000,47808.000000,26407.000000
20986.000000,46097.000000,47832.000000,26424.000000
20953.000000,46065.000000,47785.000000,26394.000000
20931.000000,46049.000000,47789.000000,26406.000000
20947.000000,46028.000000,47763.000000,26395.000000
20914.000000,46033.000000,47747.000000,26390.000000
20902.000000,46001.000000,47745.000000,26376.000000
20880.000000,46003.000000,47729.000000,26364.000000
20843.000000,45960.000000,47723.000000,26377.000000
20863.000000,45957.000000,47709.000000,26344.000000
20788.000000,45902.000000,47708.000000,26345.000000
20853.000000,45914.000000,47666.000000,26370.000000
20778.000000,45888.000000,47666.000000,26336.000000
20757.000000,45868.000000,47642.000000,26349.000000
20788.000000,45833.000000,47673.000000,26315.000000
20739.000000,45810.000000,47623.000000,26338.000000
20724.000000,45799.000000,47623.000000,26330.000000
20697.000000,45752.000000,47623.000000,26309.000000
20707.000000,45709.000000,47593.000000,26310.000000
20640.000000,45736.000000,47567.000000,26293.000000
20645.000000,45696.000000,47591.000000,26299.000000
20583.000000,45686.000000,47544.000000,26302.000000
20599.000000,45665.000000,47535.000000,26278.000000
20573.000000,45643.000000,47534.000000,26287.000000
20541.000000,45594.000000,47509.000000,26261.000000
20563.000000,45569.000000,47506.000000,26268.000000
20496.000000,45569.000000,47511.000000,26255.000000
20478.000000,45515.000000,47492.000000,26249.000000
20455.000000,45523.000000,47460.000000,26242.000000
20449.000000,45468.000000,47463.000000,26222.000000
20420.000000,45460.000000,47423.000000,26231.000000
20403.000000,45416.000000,47404.000000,26217.000000
20374.000000,45401.000000,47397.000000,26194.000000
20328.000000,45362.000000,47393.000000,26177.000000
20331.000000,45349.000000,47370.000000,26222.000000
20252.000000,45330.000000,47351.000000,26176.000000
20278.000000,45307.000000,47330.000000,26175.000000
20197.000000,45301.000000,47317.000000,26173.000000
20248.000000,45236.000000,47311.000000,26164.000000
20208.000000,45215.000000,47296.000000,26146.000000
20185.000000,45187.000000,47247.000000,26141.000000
20168.000000,45150.000000,47254.000000,26139.000000
20086.000000,45123.000000,47263.000000,26141.000000
20110.000000,45134.000000,47219.000000,26129.000000
20102.000000,45108.000000,47226.000000,26084.000000
20060.000000,45066.000000,47203.000000,26124.000000
20031.000000,45039.000000,47212.000000,26082.000000
20024.000000,45017.000000,47163.000000,26098.000000
20016.000000,45012.000000,47165.000000,26080.000000
19995.000000,44985.000000,47162.000000,26099.000000
19985.000000,45010.000000,47117.000000,26096.000000
19964.000000,44948.000000,47144.000000,26070.000000
19953.000000,44954.000000,47115.000000,26078.000000
19960.000000,44943.000000,47134.000000,26084.000000
19945.000000,44913.000000,47095.000000,26048.000000
19899.000000,44907.000000,47088.000000,26053.000000
19928.000000,44892.000000,47070.000000,26046.000000
19873.000000,44898.000000,47086.000000,26033.000000
19908.000000,44819.000000,47062.000000,26042.000000
19870.000000,44851.000000,47079.000000,26034.000000
19860.000000,44818.000000,47055.000000,26046.000000
19861.000000,44811.000000,47026.000000,26029.000000
19820.000000,44798.000000,47050.000000,26005.000000
19800.000000,44768.000000,47012.000000,26034.000000
19779.000000,44754.000000,46982.000000,26001.000000
19735.000000,44672.000000,47000.000000,25975.000000
19756.000000,44666.000000,46961.000000,25993.000000
19645.000000,44614.000000,46945.000000,25984.000000
19629.000000,44570.000000,46935.000000,25953.000000
19593.000000,44511.000000,46925.000000,25951.000000
19579.000000,44506.000000,46875.000000,25932.000000
19560.000000,44471.000000,46835.000000,25928.000000
19516.000000,44433.000000,46826.000000,25919.000000
19482.000000,44455.000000,46806.000000,25924.000000
19470.000000,44365.000000,46794.000000,25905.000000
19476.000000,44391.000000,46790.000000,25884.000000
19438.000000,44328.000000,46772.000000,25879.000000
19410.000000,44346.000000,46760.000000,25870.000000
19424.000000,44303.000000,46760.000000,25880.000000
19421.000000,44305.000000,46761.000000,25892.000000
19421.000000,44302.000000,46736.000000,25848.000000
19440.000000,44339.000000,46749.000000,25895.000000
19434.000000,44310.000000,46783.000000,25873.000000
19475.000000,44358.000000,46796.000000,25890.000000
19501.000000,44343.000000,46793.000000,25887.000000
19500.000000,44395.000000,46820.000000,25882.000000
19517.000000,44388.000000,46820.000000,25885.000000
19524.000000,44445.000000,46820.000000,25901.000000
19564.000000,44466.000000,46844.000000,25913.000000
19591.000000,44462.000000,46860.000000,25911.000000
19588.000000,44518.000000,46905.000000,25934.000000
19647.000000,44560.000000,46889.000000,25964.000000
19683.000000,44598.000000,46897.000000,25955.000000
19708.000000,44592.000000,46925.000000,25978.000000
19705.000000,44684.000000,46984.000000,25957.000000
19769.000000,44687.000000,46972.000000,25986.000000
19805.000000,44725.000000,46993.000000,25999.000000
19804.000000,44725.000000,47009.000000,26002.000000
19842.000000,44796.000000,47039.000000,26036.000000
19898.000000,44870.000000,47080.000000,26058.000000
19961.000000,44878.000000,47077.000000,26033.000000
19968.000000,44946.000000,47120.000000,26062.000000
20011.000000,44984.000000,47135.000000,26057.000000
20100.000000,45025.000000,47181.000000,26071.000000
20142.000000,45103.000000,47208.000000,26096.000000
20185.000000,45176.000000,47256.000000,26108.000000
20241.000000,45266.000000,47284.000000,26147.000000
20363.000000,45332.000000,47328.000000,26175.000000
20383.000000,45426.000000,47392.000000,26208.000000
20489.000000,45513.000000,47454.000000,26219.000000
20585.000000,45616.000000,47498.000000,26259.000000
20667.000000,45711.000000,47573.000000,26292.000000
20774.000000,45824.000000,47641.000000,26351.000000
20831.000000,45932.000000,47690.000000,26355.000000
20973.000000,46030.000000,47748.000000,26391.000000
21020.000000,46144.000000,47825.000000,26394.000000
21147.000000,46247.000000,47868.000000,26436.000000
21206.000000,46374.000000,47953.000000,26478.000000
21317.000000,46398.000000,47980.000000,26494.000000
21324.000000,46491.000000,48010.000000,26506.000000
21399.000000,46592.000000,48085.000000,26525.000000
21464.000000,46614.000000,48088.000000,26570.000000
21454.000000,46667.000000,48127.000000,26580.000000
21477.000000,46630.000000,48128.000000,26569.000000
21463.000000,46695.000000,48138.000000,26570.000000
21455.000000,46656.000000,48141.000000,26562.000000
21477.000000,46645.000000,48115.000000,26547.000000
21457.000000,46626.000000,48106.000000,26559.000000
21444.000000,46612.000000,48122.000000,26552.000000
21435.000000,46623.000000,48084.000000,26558.000000
21424.000000,46587.000000,48075.000000,26559.000000
21373.000000,46560.000000,48095.000000,26524.000000
21370.000000,46563.000000,48078.000000,26531.000000
21385.000000,46510.000000,48056.000000,26529.000000
21330.000000,46555.000000,48059.000000,26519.000000
21370.000000,46498.000000,48035.000000,26524.000000
21323.000000,46470.000000,48013.000000,26500.000000
21296.000000,46471.000000,48009.000000,26502.000000
21295.000000,46428.000000,47990.000000,26503.000000
21277.000000,46436.000000,48031.000000,26502.000000
21275.000000,46416.000000,47991.000000,26518.000000
21266.000000,46393.000000,47980.000000,26505.000000
21250.000000,46387.000000,47960.000000,26488.000000
21237.000000,46385.000000,47932.000000,26490.000000
21214.000000,46368.000000,47972.000000,26472.000000
21209.000000,46338.000000,47954.000000,26494.000000
21196.000000,46313.000000,47981.000000,26471.000000
21211.000000,46320.000000,47927.000000,26460.000000
21201.000000,46333.000000,47919.000000,26466.000000
21197.000000,46306.000000,47937.000000,26485.000000
21192.000000,46286.000000,47904.000000,26452.000000
21156.000000,46258.000000,47921.000000,26444.000000
21172.000000,46253.000000,47898.000000,26450.000000
21132.000000,46279.000000,47885.000000,26450.000000
21149.000000,46236.000000,47882.000000,26452.000000
21096.000000,46243.000000,47866.000000,26416.000000
21115.000000,46190.000000,47872.000000,26453.000000
21097.000000,46200.000000,47877.000000,26415.000000
21057.000000,46191.000000,47863.000000,26411.000000
21064.000000,46145.000000,47832.000000,26410.000000
21057.000000,46158.000000,47854.000000,26396.000000
21035.000000,46111.000000,47805.000000,26409.000000
21035.000000,46150.000000,47839.000000,26406.000000
21037.000000,46112.000000,47789.000000,26388.000000
21002.000000,46080.000000,47805.000000,26400.000000
20982.000000,46097.000000,47793.000000,26379.000000
20989.000000,46043.000000,47786.000000,26398.000000
20966.000000,46061.000000,47761.000000,26379.000000
20952.000000,45982.000000,47748.000000,26375.000000
20906.000000,45991.000000,47762.000000,26356.000000
20894.000000,45985.000000,47744.000000,26363.000000
20904.000000,45958.000000,47733.000000,26353.000000
20877.000000,45950.000000,47714.000000,26343.000000
20901.000000,45950.000000,47712.000000,26365.000000
20838.000000,45922.000000,47709.000000,26330.000000
20840.000000,45878.000000,47670.000000,26342.000000
20816.000000,45876.000000,47686.000000,26351.000000
20836.000000,45852.000000,47680.000000,26326.000000
20796.000000,45887.000000,47661.000000,26325.000000
20790.000000,45841.000000,47660.000000,26329.000000
20788.000000,45840.000000,47674.000000,26330.000000
20752.000000,45794.000000,47625.000000,26334.000000
20764.000000,45803.000000,47634.000000,26284.000000
20729.000000,45783.000000,47622.000000,26319.000000
20726.000000,45756.000000,47614.000000,26273.000000
20730.000000,45751.000000,47608.000000,26296.000000
20739.000000,45704.000000,47586.000000,26287.000000
20695.000000,45705.000000,47594.000000,26285.000000
20712.000000,45663.000000,47575.000000,26272.000000
20697.000000,45688.000000,47573.000000,26250.000000
20657.000000,45633.000000,47580.000000,26283.000000
20698.000000,45635.000000,47549.000000,26255.000000
20661.000000,45615.000000,47561.000000,26234.000000
20646.000000,45597.000000,47517.000000,26244.000000
20568.000000,45556.000000,47549.000000,26224.000000
20606.000000,45503.000000,47490.000000,26229.000000
20566.000000,45544.000000,47484.000000,26230.000000
20546.000000,45459.000000,47448.000000,26207.000000
20508.000000,45460.000000,47446.000000,26192.000000
20499.000000,45424.000000,47439.000000,26181.000000
20452.000000,45402.000000,47409.000000,26181.000000
20448.000000,45340.000000,47390.000000,26177.000000
20447.000000,45363.000000,47395.000000,26185.000000
20399.000000,45334.000000,47372.000000,26148.000000
20366.000000,45322.000000,47340.000000,26155.000000
20318.000000,45276.000000,47339.000000,26141.000000
20322.000000,45248.000000,47290.000000,26127.000000
20261.000000,45205.000000,47306.000000,26127.000000
20314.000000,45183.000000,47268.000000,26123.000000
20245.000000,45187.000000,47265.000000,26102.000000
20231.000000,45110.000000,47238.000000,26112.000000
20199.000000,45130.000000,47229.000000,26090.000000
20119.000000,45055.000000,47190.000000,26100.000000
20114.000000,45063.000000,47191.000000,26071.000000
20101.000000,45041.000000,47198.000000,26090.000000
20076.000000,44977.000000,47157.000000,26059.000000
20032.000000,44991.000000,47180.000000,26070.000000
20008.000000,44961.000000,47123.000000,26069.000000
20004.000000,44968.000000,47143.000000,26052.000000
19985.000000,44926.000000,47096.000000,26056.000000
19946.000000,44901.000000,47107.000000,26024.000000
19961.000000,44879.000000,47097.000000,26048.000000
19899.000000,44896.000000,47074.000000,26046.000000
19918.000000,44838.000000,47077.000000,26027.000000
19901.000000,44845.000000,47080.000000,26009.000000
19866.000000,44795.000000,47060.000000,26020.000000
19822.000000,44773.000000,47025.000000,26017.000000
19816.000000,44761.000000,47010.000000,26012.000000
19785.000000,44708.000000,46983.000000,25977.000000
19701.000000,44685.000000,46989.000000,25978.000000
19739.000000,44671.000000,46950.000000,25982.000000
19664.000000,44621.000000,46901.000000,25949.000000
19657.000000,44566.000000,46901.000000,25944.000000
19607.000000,44558.000000,46867.000000,25949.000000
19569.000000,44480.000000,46867.000000,25959.000000
19538.000000,44502.000000,46840.000000,25929.000000
19551.000000,44482.000000,46843.000000,25907.000000
19555.000000,44397.000000,46808.000000,25893.000000
19455.000000,44404.000000,46799.000000,25886.000000
19502.000000,44406.000000,46829.000000,25907.000000
19441.000000,44396.000000,46815.000000,25882.000000
19499.000000,44382.000000,46796.000000,25882.000000
19485.000000,44402.000000,46802.000000,25894.000000
19489.000000,44402.000000,46801.000000,25898.000000
19465.000000,44417.000000,46805.000000,25875.000000
19516.000000,44438.000000,46841.000000,25909.000000
19533.000000,44434.000000,46814.000000,25898.000000
19522.000000,44451.000000,46858.000000,25889.000000
19590.000000,44466.000000,46840.000000,25903.000000
19574.000000,44530.000000,46863.000000,25911.000000
19633.000000,44551.000000,46892.000000,25947.000000
19644.000000,44546.000000,46936.000000,25933.000000
19736.000000,44584.000000,46913.000000,25951.000000
19672.000000,44650.000000,46973.000000,25937.000000
19752.000000,44674.000000,46993.000000,25970.000000
19764.000000,44767.000000,47003.000000,25947.000000
19821.000000,44767.000000,47014.000000,25992.000000
19882.000000,44813.000000,47024.000000,25988.000000
19924.000000,44837.000000,47070.000000,26022.000000
19921.000000,44889.000000,47047.000000,26030.000000
19997.000000,44908.000000,47124.000000,26037.000000
19998.000000,44977.000000,47143.000000,26051.000000
20066.000000,44995.000000,47191.000000,26066.000000
20095.000000,45060.000000,47209.000000,26070.000000
20150.000000,45111.000000,47257.000000,26114.000000
20211.000000,45183.000000,47248.000000,26111.000000
20260.000000,45244.000000,47312.000000,26111.000000
20337.000000,45301.000000,47328.000000,26169.000000
20414.000000,45384.000000,47428.000000,26156.000000
20471.000000,45468.000000,47424.000000,26188.000000
20552.000000,45591.000000,47477.000000,26226.000000
20646.000000,45667.000000,47540.000000,26232.000000
20715.000000,45781.000000,47604.000000,26273.000000
20803.000000,45864.000000,47656.000000,26306.000000
20903.000000,45971.000000,47733.000000,26339.000000
21022.000000,46077.000000,47774.000000,26361.000000
21104.000000,46209.000000,47850.000000,26398.000000
21201.000000,46288.000000,47910.000000,26440.000000
21283.000000,46411.000000,47983.000000,26460.000000
21370.000000,46494.000000,48063.000000,26481.000000
21466.000000,46570.000000,48085.000000,26489.000000
21483.000000,46640.000000,48145.000000,26511.000000
21515.000000,46732.000000,48152.000000,26536.000000
21550.000000,46730.000000,48186.000000,26538.000000
21590.000000,46754.000000,48173.000000,26570.000000
21580.000000,46747.000000,48188.000000,26563.000000
21602.000000,46758.000000,48193.000000,26556.000000
21566.000000,46769.000000,48179.000000,26563.000000
21568.000000,46750.000000,48181.000000,26543.000000
21544.000000,46729.000000,48194.000000,26566.000000
21521.000000,46695.000000,48158.000000,26545.000000
21530.000000,46727.000000,48150.000000,26534.000000
21500.000000,46652.000000,48146.000000,26531.000000
21491.000000,46682.000000,48142.000000,26526.000000
21472.000000,46639.000000,48137.000000,26530.000000
21453.000000,46631.000000,48105.000000,26522.000000
21443.000000,46617.000000,48124.000000,26539.000000
21457.000000,46610.000000,48091.000000,26483.000000
21416.000000,46586.000000,48080.000000,26508.000000
21406.000000,46542.000000,48042.000000,26502.000000
21396.000000,46563.000000,48058.000000,26487.000000
21388.000000,46541.000000,48055.000000,26483.000000
21362.000000,46538.000000,48039.000000,26510.000000
21333.000000,46510.000000,48031.000000,26490.000000
21357.000000,46505.000000,48025.000000,26478.000000
21325.000000,46457.000000,48050.000000,26482.000000
21340.000000,46458.000000,48010.000000,26475.000000
21306.000000,46444.000000,48001.000000,26468.000000
21289.000000,46417.000000,48022.000000,26476.000000
21263.000000,46436.000000,47999.000000,26455.000000
21229.000000,46387.000000,48017.000000,26473.000000
21256.000000,46382.000000,47972.000000,26445.000000
21201.000000,46348.000000,47973.000000,26449.000000
21246.000000,46357.000000,47956.000000,26440.000000
21199.000000,46336.000000,47968.000000,26442.000000
21183.000000,46311.000000,47921.000000,26438.000000
21153.000000,46326.000000,47939.000000,26441.000000
21143.000000,46297.000000,47895.000000,26434.000000
21111.000000,46316.000000,47912.000000,26430.000000
21112.000000,46267.000000,47903.000000,26438.000000
21083.000000,46248.000000,47885.000000,26426.000000
21108.000000,46211.000000,47869.000000,26429.000000
21070.000000,46227.000000,47837.000000,26404.000000
21031.000000,46180.000000,47864.000000,26402.000000
21046.000000,46172.000000,47825.000000,26387.000000
21010.000000,46109.000000,47821.000000,26380.000000
21000.000000,46104.000000,47826.000000,26379.000000
20968.000000,46107.000000,47814.000000,26392.000000
20933.000000,46073.000000,47780.000000,26371.000000
20931.000000,46055.000000,47778.000000,26365.000000
20929.000000,46017.000000,47758.000000,26349.000000
20900.000000,46029.000000,47734.000000,26339.000000
20866.000000,45989.000000,47743.000000,26349.000000
20825.000000,45975.000000,47693.000000,26316.000000
20808.000000,45953.000000,47720.000000,26335.000000
20817.000000,45901.000000,47672.000000,26330.000000
20761.000000,45893.000000,47679.000000,26323.000000
20768.000000,45891.000000,47651.000000,26287.000000
20701.000000,45810.000000,47653.000000,26305.000000
20728.000000,45796.000000,47621.000000,26318.000000
20677.000000,45818.000000,47617.000000,26286.000000
20670.000000,45740.000000,47591.000000,26287.000000
20644.000000,45749.000000,47574.000000,26244.000000
20629.000000,45683.000000,47571.000000,26254.000000
20588.000000,45682.000000,47554.000000,26250.000000
20576.000000,45638.000000,47529.000000,26264.000000
20548.000000,45630.000000,47510.000000,26219.000000
20513.000000,45589.000000,47503.000000,26255.000000
20489.000000,45548.000000,47480.000000,26231.000000
20479.000000,45540.000000,47476.000000,26226.000000
20423.000000,45499.000000,47430.000000,26209.000000
20414.000000,45489.000000,47431.000000,26204.000000
20392.000000,45442.000000,47398.000000,26183.000000
20362.000000,45417.000000,47398.000000,26171.000000
20331.000000,45365.000000,47386.000000,26176.000000
20314.000000,45375.000000,47360.000000,26151.000000
20297.000000,45309.000000,47351.000000,26176.000000
20285.000000,45308.000000,47308.000000,26165.000000
20236.000000,45304.000000,47353.000000,26133.000000
20230.000000,45244.000000,47285.000000,26129.000000
20194.000000,45252.000000,47260.000000,26138.000000
20188.000000,45199.000000,47277.000000,26122.000000
20159.000000,45201.000000,47246.000000,26118.000000
20117.000000,45166.000000,47253.000000,26123.000000
20151.000000,45163.000000,47213.000000,26099.000000
20095.000000,45173.000000,47242.000000,26085.000000
20116.000000,45153.000000,47218.000000,26085.000000
20067.000000,45163.000000,47201.000000,26072.000000
20080.000000,45099.000000,47204.000000,26085.000000
20050.000000,45089.000000,47178.000000,26066.000000
20037.000000,45078.000000,47211.000000,26064.000000
20048.000000,45056.000000,47167.000000,26055.000000
19991.000000,45072.000000,47182.000000,26038.000000
19973.000000,45030.000000,47133.000000,26073.000000
19972.000000,45018.000000,47131.000000,26040.000000
19949.000000,44981.000000,47128.000000,26037.000000
19939.000000,44978.000000,47114.000000,26049.000000
19907.000000,44910.000000,47108.000000,26025.000000
19899.000000,44891.000000,47108.000000,26029.000000
19861.000000,44882.000000,47071.000000,26034.000000
19847.000000,44821.000000,47035.000000,26001.000000
19798.000000,44821.000000,47025.000000,25987.000000
19763.000000,44778.000000,47005.000000,25994.000000
19772.000000,44731.000000,46986.000000,25960.000000
19699.000000,44693.000000,46976.000000,25976.000000
19675.000000,44662.000000,46930.000000,25947.000000
19631.000000,44659.000000,46916.000000,25941.000000
19611.000000,44604.000000,46902.000000,25935.000000
19613.000000,44573.000000,46889.000000,25917.000000
19586.000000,44562.000000,46884.000000,25924.000000
19546.000000,44546.000000,46876.000000,25913.000000
19535.000000,44541.000000,46861.000000,25910.000000
19585.000000,44519.000000,46865.000000,25891.000000
19555.000000,44528.000000,46876.000000,25913.000000
19571.000000,44561.000000,46861.000000,25907.000000
19576.000000,44584.000000,46870.000000,25902.000000
19639.000000,44574.000000,46885.000000,25911.000000
19606.000000,44612.000000,46888.000000,25919.000000
19623.000000,44635.000000,46899.000000,25939.000000
19650.000000,44686.000000,46936.000000,25936.000000
19665.000000,44670.000000,46947.000000,25946.000000
19716.000000,44688.000000,46966.000000,25939.000000
19747.000000,44748.000000,46988.000000,25958.000000
19793.000000,44749.000000,46984.000000,25973.000000
19827.000000,44821.000000,47042.000000,25974.000000
19844.000000,44852.000000,47057.000000,26013.000000
19867.000000,44866.000000,47068.000000,26008.000000
19871.000000,44908.000000,47074.000000,26025.000000
19951.000000,44942.000000,47097.000000,26020.000000
19967.000000,45010.000000,47142.000000,26036.000000
20010.000000,45023.000000,47154.000000,26049.000000
20002.000000,45090.000000,47196.000000,26070.000000
20104.000000,45140.000000,47214.000000,26100.000000
20124.000000,45201.000000,47230.000000,26103.000000
20180.000000,45230.000000,47253.000000,26116.000000
20217.000000,45300.000000,47290.000000,26137.000000
20268.000000,45351.000000,47336.000000,26151.000000
20322.000000,45402.000000,47374.000000,26155.000000
20378.000000,45513.000000,47438.000000,26200.000000
20472.000000,45572.000000,47453.000000,26208.000000
20510.000000,45670.000000,47511.000000,26234.000000
20594.000000,45776.000000,47559.000000,26282.000000
20730.000000,45846.000000,47630.000000,26269.000000
20791.000000,45960.000000,47707.000000,26285.000000
20889.000000,46088.000000,47787.000000,26344.000000
21000.000000,46176.000000,47820.000000,26363.000000
21073.000000,46302.000000,47853.000000,26415.000000
21192.000000,46368.000000,47939.000000,26427.000000
21269.000000,46484.000000,47996.000000,26483.000000
21359.000000,46568.000000,48039.000000,26503.000000
21432.000000,46670.000000,48090.000000,26510.000000
21494.000000,46781.000000,48118.000000,26541.000000
21534.000000,46827.000000,48188.000000,26577.000000
21589.000000,46881.000000,48216.000000,26558.000000
21601.000000,46886.000000,48259.000000,26608.000000
21642.000000,46926.000000,48247.000000,26600.000000
21624.000000,46946.000000,48254.000000,26575.000000
21644.000000,46955.000000,48250.000000,26593.000000
21639.000000,46957.000000,48235.000000,26605.000000
21615.000000,46910.000000,48236.000000,26590.000000
21577.000000,46901.000000,48236.000000,26575.000000
21548.000000,46865.000000,48195.000000,26590.000000
21550.000000,46867.000000,48193.000000,26592.000000
21537.000000,46811.000000,48176.000000,26575.000000
21488.000000,46806.000000,48176.000000,26580.000000
21493.000000,46766.000000,48161.000000,26597.000000
21491.000000,46763.000000,48131.000000,26556.000000
21452.000000,46731.000000,48165.000000,26558.000000
21464.000000,46723.000000,48119.000000,26564.000000
21417.000000,46704.000000,48153.000000,26578.000000
21426.000000,46693.000000,48107.000000,26553.000000
21380.000000,46676.000000,48102.000000,26531.000000
21368.000000,46651.000000,48101.000000,26534.000000
21333.000000,46667.000000,48059.000000,26539.000000
21332.000000,46645.000000,48077.000000,26514.000000
21312.000000,46600.000000,48037.000000,26516.000000
21292.000000,46599.000000,48024.000000,26512.000000
21278.000000,46556.000000,48029.000000,26514.000000
21237.000000,46532.000000,48000.000000,26501.000000
21263.000000,46497.000000,48013.000000,26506.000000
21222.000000,46484.000000,48014.000000,26479.000000
21176.000000,46466.000000,47970.000000,26482.000000
21185.000000,46476.000000,47970.000000,26467.000000
21148.000000,46412.000000,47940.000000,26486.000000
21117.000000,46386.000000,47929.000000,26437.000000
21103.000000,46357.000000,47909.000000,26479.000000
21093.000000,46362.000000,47886.000000,26483.000000
21040.000000,46337.000000,47901.000000,26452.000000
21061.000000,46309.000000,47896.000000,26442.000000
21013.000000,46294.000000,47898.000000,26440.000000
20997.000000,46270.000000,47845.000000,26431.000000
20946.000000,46240.000000,47858.000000,26458.000000
20965.000000,46224.000000,47811.000000,26450.000000
20935.000000,46210.000000,47818.000000,26440.000000
20929.000000,46169.000000,47814.000000,26400.000000
20862.000000,46174.000000,47775.000000,26411.000000
20867.000000,46086.000000,47779.000000,26395.000000
20880.000000,46134.000000,47769.000000,26379.000000
20844.000000,46093.000000,47750.000000,26391.000000
20826.000000,46060.000000,47737.000000,26384.000000
20786.000000,46082.000000,47740.000000,26369.000000
20808.000000,46025.000000,47711.000000,26377.000000
20765.000000,46013.000000,47695.000000,26375.000000
20762.000000,45957.000000,47696.000000,26345.000000
20734.000000,45939.000000,47695.000000,26359.000000
20708.000000,45915.000000,47642.000000,26335.000000
20703.000000,45923.000000,47652.000000,26335.000000
20699.000000,45893.000000,47672.000000,26327.000000
20680.000000,45900.000000,47633.000000,26339.000000
20656.000000,45856.000000,47630.000000,26308.000000
20660.000000,45832.000000,47588.000000,26310.000000
20646.000000,45832.000000,47585.000000,26315.000000
20611.000000,45781.000000,47560.000000,26306.000000
20578.000000,45753.000000,47559.000000,26273.000000
20563.000000,45713.000000,47570.000000,26283.000000
20572.000000,45696.000000,47564.000000,26254.000000
20514.000000,45692.000000,47533.000000,26288.000000
20522.000000,45677.000000,47540.000000,26274.000000
20484.000000,45650.000000,47500.000000,26262.000000
20516.000000,45625.000000,47465.000000,26257.000000
20497.000000,45609.000000,47505.000000,26257.000000
20471.000000,45587.000000,47473.000000,26252.000000
20460.000000,45580.000000,47442.000000,26213.000000
20389.000000,45531.000000,47452.000000,26221.000000
20436.000000,45465.000000,47433.000000,26221.000000
20377.000000,45487.000000,47424.000000,26227.000000
20379.000000,45464.000000,47357.000000,26192.000000
20348.000000,45435.000000,47404.000000,26188.000000
20346.000000,45406.000000,47375.000000,26182.000000
20297.000000,45393.000000,47375.000000,26169.000000
20294.000000,45333.000000,47339.000000,26159.000000
20250.000000,45315.000000,47341.000000,26170.000000
20247.000000,45289.000000,47290.000000,26149.000000
20191.000000,45277.000000,47292.000000,26146.000000
20196.000000,45232.000000,47262.000000,26131.000000
20181.000000,45209.000000,47255.000000,26122.000000
20151.000000,45193.000000,47284.000000,26135.000000
20179.000000,45169.000000,47242.000000,26105.000000
20115.000000,45148.000000,47228.000000,26101.000000
20125.000000,45115.000000,47204.000000,26095.000000
20100.000000,45082.000000,47201.000000,26078.000000
20099.000000,45066.000000,47183.000000,26084.000000
20053.000000,45082.000000,47200.000000,26065.000000
20055.000000,45041.000000,47167.000000,26077.000000
20008.000000,45047.000000,47169.000000,26067.000000
19998.000000,45009.000000,47157.000000,26052.000000
19996.000000,45011.000000,47141.000000,26048.000000
19997.000000,44947.000000,47129.000000,26067.000000
19962.000000,44976.000000,47100.000000,26050.000000
19980.000000,44939.000000,47102.000000,26038.000000
19931.000000,44916.000000,47067.000000,26026.000000
19914.000000,44885.000000,47066.000000,26015.000000
19858.000000,44854.000000,47046.000000,25998.000000
19824.000000,44813.000000,47032.000000,25991.000000
19821.000000,44762.000000,47001.000000,25983.000000
19805.000000,44736.000000,46972.000000,25986.000000
19775.000000,44721.000000,46970.000000,25949.000000
19680.000000,44649.000000,46925.000000,25935.000000
19684.000000,44629.000000,46915.000000,25947.000000
19612.000000,44606.000000,46886.000000,25947.000000
19596.000000,44513.000000,46837.000000,25932.000000
19532.000000,44491.000000,46854.000000,25898.000000
19528.000000,44442.000000,46800.000000,25903.000000
19486.000000,44398.000000,46786.000000,25872.000000
19454.000000,44405.000000,46765.000000,25884.000000
19410.000000,44394.000000,46749.000000,25874.000000
19388.000000,44352.000000,46723.000000,25863.000000
19376.000000,44356.000000,46746.000000,25845.000000
19386.000000,44311.000000,46710.000000,25849.000000
19342.000000,44354.000000,46703.000000,25858.000000
19378.000000,44292.000000,46723.000000,25858.000000
19384.000000,44321.000000,46702.000000,25838.000000
19349.000000,44312.000000,46732.000000,25861.000000
19373.000000,44336.000000,46737.000000,25852.000000
19396.000000,44356.000000,46751.000000,25862.000000
19455.000000,44383.000000,46763.000000,25892.000000
19444.000000,44403.000000,46769.000000,25852.000000
19436.000000,44416.000000,46776.000000,25889.000000
19495.000000,44470.000000,46827.000000,25842.000000
19519.000000,44498.000000,46806.000000,25914.000000
19549.000000,44551.000000,46850.000000,25907.000000
19566.000000,44536.000000,46861.000000,25929.000000
19593.000000,44627.000000,46888.000000,25907.000000
19613.000000,44640.000000,46900.000000,25959.000000
19682.000000,44658.000000,46911.000000,25952.000000
19665.000000,44667.000000,46946.000000,25960.000000
19734.000000,44712.000000,46957.000000,25997.000000
19746.000000,44741.000000,46980.000000,25976.000000
19825.000000,44768.000000,46999.000000,25999.000000
19813.000000,44836.000000,47022.000000,25993.000000
19852.000000,44909.000000,47048.000000,25998.000000
19925.000000,44932.000000,47073.000000,26040.000000
19985.000000,44953.000000,47086.000000,26065.000000
20001.000000,45042.000000,47143.000000,26060.000000
20069.000000,45110.000000,47156.000000,26084.000000
20132.000000,45189.000000,47217.000000,26100.000000
20209.000000,45249.000000,47267.000000,26116.000000
20289.000000,45356.000000,47315.000000,26130.000000
20346.000000,45426.000000,47338.000000,26164.000000
20455.000000,45527.000000,47404.000000,26188.000000
20520.000000,45597.000000,47489.000000,26218.000000
20629.000000,45754.000000,47507.000000,26240.000000
20702.000000,45846.000000,47590.000000,26296.000000
20809.000000,45939.000000,47666.000000,26310.000000
20868.000000,46052.000000,47713.000000,26351.000000
21017.000000,46140.000000,47780.000000,26367.000000
21074.000000,46267.000000,47817.000000,26397.000000
21149.000000,46356.000000,47876.000000,26446.000000
21198.000000,46420.000000,47923.000000,26460.000000
21245.000000,46475.000000,47969.000000,26462.000000
21338.000000,46527.000000,47983.000000,26476.000000
21353.000000,46542.000000,48000.000000,26516.000000
21364.000000,46606.000000,48038.000000,26463.000000
21342.000000,46572.000000,48019.000000,26519.000000
21336.000000,46568.000000,48007.000000,26529.000000
21329.000000,46556.000000,48025.000000,26503.000000
21330.000000,46565.000000,47978.000000,26493.000000
21305.000000,46535.000000,48014.000000,26475.000000
21304.000000,46525.000000,47995.000000,26485.000000
21289.000000,46492.000000,48005.000000,26461.000000
21274.000000,46470.000000,47969.000000,26521.000000
21223.000000,46466.000000,47923.000000,26482.000000
21219.000000,46417.000000,47922.000000,26478.000000
21219.000000,46425.000000,47939.000000,26455.000000
21172.000000,46371.000000,47927.000000,26458.000000
21171.000000,46374.000000,47889.000000,26447.000000
21138.000000,46326.000000,47906.000000,26458.000000
21157.000000,46334.000000,47887.000000,26465.000000
21088.000000,46325.000000,47889.000000,26450.000000
21112.000000,46326.000000,47874.000000,26459.000000
21053.000000,46322.000000,47855.000000,26423.000000
21059.000000,46288.000000,47835.000000,26447.000000
21037.000000,46269.000000,47825.000000,26427.000000
21000.000000,46247.000000,47819.000000,26422.000000
20970.000000,46223.000000,47823.000000,26392.000000
20989.000000,46209.000000,47797.000000,26442.000000
20983.000000,46223.000000,47800.000000,26432.000000
20954.000000,46151.000000,47781.000000,26420.000000
20940.000000,46151.000000,47787.000000,26428.000000
20896.000000,46151.000000,47763.000000,26384.000000
20922.000000,46137.000000,47767.000000,26401.000000
20886.000000,46102.000000,47744.000000,26375.000000
20901.000000,46078.000000,47749.000000,26381.000000
20852.000000,46107.000000,47727.000000,26365.000000
20859.000000,46065.000000,47736.000000,26392.000000
20850.000000,46053.000000,47718.000000,26397.000000
20804.000000,46041.000000,47705.000000,26381.000000
20826.000000,46052.000000,47703.000000,26356.000000
20817.000000,46034.000000,47694.000000,26364.000000
20822.000000,46050.000000,47703.000000,26369.000000
20789.000000,45963.000000,47710.000000,26380.000000
20803.000000,46009.000000,47673.000000,26372.000000
20762.000000,45962.000000,47695.000000,26329.000000
20791.000000,45974.000000,47685.000000,26364.000000
20782.000000,45942.000000,47709.000000,26331.000000
20773.000000,45934.000000,47661.000000,26337.000000
20753.000000,45925.000000,47674.000000,26328.000000
20779.000000,45918.000000,47664.000000,26328.000000
20706.000000,45898.000000,47654.000000,26323.000000
20745.000000,45896.000000,47625.000000,26346.000000
20704.000000,45931.000000,47655.000000,26318.000000
20711.000000,45833.000000,47604.000000,26329.000000
20660.000000,45862.000000,47626.000000,26342.000000
20634.000000,45811.000000,47572.000000,26315.000000
20591.000000,45773.000000,47553.000000,26281.000000
20580.000000,45734.000000,47536.000000,26296.000000
20554.000000,45706.000000,47505.000000,26283.000000
20523.000000,45705.000000,47513.000000,26281.000000
20489.000000,45651.000000,47506.000000,26230.000000
20453.000000,45614.000000,47490.000000,26272.000000
20478.000000,45622.000000,47468.000000,26264.000000
20432.000000,45601.000000,47490.000000,26264.000000
20446.000000,45554.000000,47460.000000,26244.000000
20384.000000,45576.000000,47459.000000,26236.000000
20404.000000,45554.000000,47413.000000,26234.000000
20390.000000,45576.000000,47414.000000,26221.000000
20410.000000,45535.000000,47440.000000,26208.000000
20387.000000,45558.000000,47431.000000,26227.000000
20397.000000,45514.000000,47423.000000,26238.000000
20393.000000,45529.000000,47434.000000,26209.000000
20396.000000,45503.000000,47446.000000,26208.000000
20413.000000,45541.000000,47461.000000,26212.000000
20447.000000,45518.000000,47469.000000,26238.000000
20451.000000,45513.000000,47461.000000,26222.000000
20442.000000,45508.000000,47446.000000,26220.000000
20477.000000,45490.000000,47463.000000,26170.000000
20470.000000,45501.000000,47478.000000,26197.000000
20495.000000,45482.000000,47468.000000,26157.000000
20443.000000,45465.000000,47461.000000,26167.000000
20475.000000,45494.000000,47443.000000,26162.000000
20469.000000,45464.000000,47460.000000,26183.000000
20484.000000,45450.000000,47450.000000,26174.000000
20511.000000,45456.000000,47459.000000,26161.000000
20492.000000,45440.000000,47433.000000,26153.000000
20459.000000,45443.000000,47418.000000,26152.000000
20480.000000,45418.000000,47436.000000,26156.000000
20481.000000,45392.000000,47404.000000,26156.000000
20455.000000,45360.000000,47430.000000,26125.000000
20455.000000,45384.000000,47414.000000,26139.000000
20423.000000,45364.000000,47400.000000,26146.000000
20457.000000,45348.000000,47378.000000,26123.000000
20419.000000,45313.000000,47410.000000,26136.000000
20406.000000,45322.000000,47390.000000,26105.000000
20403.000000,45267.000000,47372.000000,26102.000000
20383.000000,45272.000000,47358.000000,26099.000000
20412.000000,45254.000000,47354.000000,26073.000000
20375.000000,45244.000000,47378.000000,26079.000000
20392.000000,45240.000000,47354.000000,26069.000000
20320.000000,45243.000000,47318.000000,26078.000000
20325.000000,45195.000000,47304.000000,26063.000000
20305.000000,45209.000000,47297.000000,26071.000000
20305.000000,45174.000000,47291.000000,26050.000000
20295.000000,45155.000000,47288.000000,26051.000000
20251.000000,45090.000000,47244.000000,26040.000000
20219.000000,45087.000000,47251.000000,26031.000000
20170.000000,45010.000000,47229.000000,26020.000000
20135.000000,44964.000000,47183.000000,25993.000000
20120.000000,44967.000000,47175.000000,25991.000000
20097.000000,44904.000000,47143.000000,25986.000000
20044.000000,44881.000000,47119.000000,25968.000000
20041.000000,44829.000000,47109.000000,25979.000000
19962.000000,44829.000000,47104.000000,25966.000000
19987.000000,44767.000000,47057.000000,25928.000000
19915.000000,44782.000000,47035.000000,25932.000000
19909.000000,44732.000000,47044.000000,25915.000000
19899.000000,44726.000000,47023.000000,25923.000000
19893.000000,44709.000000,47019.000000,25915.000000
19867.000000,44700.000000,47035.000000,25918.000000
19849.000000,44716.000000,47020.000000,25889.000000
19882.000000,44674.000000,47027.000000,25924.000000
19860.000000,44730.000000,47016.000000,25905.000000
19892.000000,44716.000000,47022.000000,25927.000000
19902.000000,44759.000000,47020.000000,25910.000000
19927.000000,44745.000000,47051.000000,25905.000000
19918.000000,44778.000000,47040.000000,25909.000000
19966.000000,44753.000000,47063.000000,25930.000000
19955.000000,44775.000000,47036.000000,25929.000000
19984.000000,44837.000000,47108.000000,25934.000000
20006.000000,44851.000000,47106.000000,25935.000000
20016.000000,44845.000000,47109.000000,25956.000000
20031.000000,44895.000000,47150.000000,25966.000000
20060.000000,44905.000000,47116.000000,25980.000000
20078.000000,44961.000000,47172.000000,25993.000000
20136.000000,45008.000000,47170.000000,26011.000000
20172.000000,45000.000000,47191.000000,26014.000000
20183.000000,45082.000000,47185.000000,26018.000000
20184.000000,45071.000000,47214.000000,26038.000000
20217.000000,45111.000000,47264.000000,26042.000000
20242.000000,45137.000000,47265.000000,26047.000000
20291.000000,45206.000000,47305.000000,26062.000000
20294.000000,45242.000000,47370.000000,26079.000000
20370.000000,45255.000000,47360.000000,26123.000000
20386.000000,45353.000000,47375.000000,26104.000000
20475.000000,45411.000000,47367.000000,26126.000000
20480.000000,45487.000000,47452.000000,26177.000000
20549.000000,45530.000000,47485.000000,26181.000000
20604.000000,45600.000000,47555.000000,26221.000000
20707.000000,45687.000000,47576.000000,26211.000000
20770.000000,45831.000000,47606.000000,26257.000000
20859.000000,45891.000000,47671.000000,26280.000000
20942.000000,46005.000000,47751.000000,26329.000000
21026.000000,46087.000000,47801.000000,26326.000000
21074.000000,46209.000000,47846.000000,26379.000000
21215.000000,46306.000000,47911.000000,26429.000000
21284.000000,46398.000000,47958.000000,26433.000000
21351.000000,46467.000000,48003.000000,26437.000000
21427.000000,46609.000000,48059.000000,26453.000000
21438.000000,46648.000000,48123.000000,26512.000000
21526.000000,46670.000000,48138.000000,26508.000000
21499.000000,46716.000000,48166.000000,26519.000000
21564.000000,46774.000000,48162.000000,26528.000000
21573.000000,46744.000000,48195.000000,26529.000000
21579.000000,46767.000000,48180.000000,26538.000000
21560.000000,46769.000000,48153.000000,26519.000000
21556.000000,46729.000000,48174.000000,26543.000000
21531.000000,46717.000000,48158.000000,26537.000000
21519.000000,46698.000000,48156.000000,26542.000000
21486.000000,46715.000000,48133.000000,26504.000000
21466.000000,46642.000000,48152.000000,26528.000000
21462.000000,46662.000000,48089.000000,26496.000000
21456.000000,46636.000000,48108.000000,26507.000000
21439.000000,46622.000000,48073.000000,26513.000000
21385.000000,46625.000000,48109.000000,26484.000000
21419.000000,46561.000000,48075.000000,26517.000000
21384.000000,46569.000000,48061.000000,26491.000000
21371.000000,46557.000000,48048.000000,26483.000000
21344.000000,46536.000000,48020.000000,26496.000000
21338.000000,46496.000000,48021.000000,26477.000000
21295.000000,46514.000000,48011.000000,26482.000000
21331.000000,46467.000000,48006.000000,26459.000000
21296.000000,46467.000000,47977.000000,26448.000000
21259.000000,46424.000000,47990.000000,26482.000000
21279.000000,46447.000000,47981.000000,26432.000000
21238.000000,46406.000000,47984.000000,26428.000000
21242.000000,46415.000000,47941.000000,26438.000000
21212.000000,46387.000000,47959.000000,26411.000000
21192.000000,46346.000000,47889.000000,26435.000000
21146.000000,46336.000000,47934.000000,26404.000000
21147.000000,46309.000000,47900.000000,26406.000000
21150.000000,46309.000000,47906.000000,26389.000000
21118.000000,46259.000000,47891.000000,26414.000000
21113.000000,46291.000000,47890.000000,26396.000000
21082.000000,46237.000000,47875.000000,26393.000000
21098.000000,46213.000000,47864.000000,26371.000000
21060.000000,46201.000000,47861.000000,26374.000000
21051.000000,46180.000000,47821.000000,26385.000000
21008.000000,46187.000000,47807.000000,26391.000000
20988.000000,46131.000000,47812.000000,26345.000000
20987.000000,46129.000000,47794.000000,26359.000000
20996.000000,46127.000000,47790.000000,26367.000000
20914.000000,46102.000000,47794.000000,26374.000000
20896.000000,46058.000000,47776.000000,26323.000000
20922.000000,45983.000000,47748.000000,26321.000000
20863.000000,46014.000000,47714.000000,26347.000000
20859.000000,45995.000000,47717.000000,26319.000000
20815.000000,45946.000000,47702.000000,26329.000000
20843.000000,45921.000000,47697.000000,26319.000000
20794.000000,45917.000000,47670.000000,26305.000000
20769.000000,45853.000000,47651.000000,26300.000000
20741.000000,45878.000000,47642.000000,26282.000000
20731.000000,45843.000000,47617.000000,26275.000000
20704.000000,45801.000000,47615.000000,26284.000000
20671.000000,45764.000000,47589.000000,26265.000000
20652.000000,45761.000000,47572.000000,26262.000000
20607.000000,45709.000000,47574.000000,26248.000000
20623.000000,45666.000000,47536.000000,26266.000000
20582.000000,45660.000000,47554.000000,26228.000000
20578.000000,45640.000000,47515.000000,26236.000000
20562.000000,45618.000000,47517.000000,26226.000000
20545.000000,45613.000000,47475.000000,26239.000000
20511.000000,45584.000000,47448.000000,26200.000000
20475.000000,45507.000000,47442.000000,26201.000000
20411.000000,45544.000000,47437.000000,26202.000000
20429.000000,45489.000000,47412.000000,26178.000000
20389.000000,45440.000000,47388.000000,26184.000000
20381.000000,45429.000000,47391.000000,26170.000000
20359.000000,45391.000000,47393.000000,26184.000000
20342.000000,45327.000000,47364.000000,26161.000000
20306.000000,45358.000000,47318.000000,26149.000000
20264.000000,45320.000000,47353.000000,26125.000000
20260.000000,45300.000000,47309.000000,26125.000000
20215.000000,45248.000000,47282.000000,26120.000000
20200.000000,45207.000000,47278.000000,26081.000000
20164.000000,45195.000000,47261.000000,26127.000000
20168.000000,45186.000000,47249.000000,26111.000000
20146.000000,45179.000000,47213.000000,26099.000000
20131.000000,45143.000000,47196.000000,26088.000000
20109.000000,45113.000000,47198.000000,26094.000000
20079.000000,45075.000000,47199.000000,26074.000000
20065.000000,45078.000000,47189.000000,26078.000000
20022.000000,45026.000000,47174.000000,26052.000000
20032.000000,45027.000000,47155.000000,26054.000000
19990.000000,44992.000000,47162.000000,26049.000000
20005.000000,44982.000000,47116.000000,26033.000000
19980.000000,44958.000000,47121.000000,26028.000000
19965.000000,44948.000000,47069.000000,26044.000000
19947.000000,44910.000000,47097.000000,26012.000000
19926.000000,44917.000000,47078.000000,25996.000000
19905.000000,44882.000000,47079.000000,25998.000000
19884.000000,44869.000000,47078.000000,25992.000000
19886.000000,44829.000000,47053.000000,25992.000000
19822.000000,44818.000000,47047.000000,25990.000000
19825.000000,44788.000000,47035.000000,25967.000000
19795.000000,44752.000000,46992.000000,25970.000000
19766.000000,44736.000000,46996.000000,25953.000000
19733.000000,44726.000000,46977.000000,25959.000000
19729.000000,44657.000000,46929.000000,25943.000000
19707.000000,44644.000000,46912.000000,25915.000000
19650.000000,44582.000000,46926.000000,25928.000000
19624.000000,44560.000000,46882.000000,25900.000000
19580.000000,44499.000000,46874.000000,25873.000000
19546.000000,44475.000000,46822.000000,25873.000000
19505.000000,44448.000000,46805.000000,25854.000000
19469.000000,44404.000000,46791.000000,25855.000000
19463.000000,44390.000000,46770.000000,25830.000000
19436.000000,44328.000000,46754.000000,25806.000000
19426.000000,44341.000000,46747.000000,25821.000000
19387.000000,44322.000000,46744.000000,25816.000000
19382.000000,44294.000000,46745.000000,25832.000000
19382.000000,44265.000000,46705.000000,25800.000000
19348.000000,44254.000000,46718.000000,25819.000000
19395.000000,44288.000000,46687.000000,25806.000000
19394.000000,44301.000000,46718.000000,25795.000000
19393.000000,44260.000000,46731.000000,25825.000000
19408.000000,44297.000000,46722.000000,25786.000000
19420.000000,44295.000000,46736.000000,25820.000000
19410.000000,44315.000000,46737.000000,25797.000000
19427.000000,44337.000000,46763.000000,25816.000000
19427.000000,44362.000000,46742.000000,25823.000000
19481.000000,44377.000000,46780.000000,25845.000000
19509.000000,44407.000000,46792.000000,25849.000000
19521.000000,44443.000000,46817.000000,25854.000000
19570.000000,44489.000000,46835.000000,25875.000000
19585.000000,44544.000000,46855.000000,25872.000000
19646.000000,44550.000000,46875.000000,25873.000000
19677.000000,44619.000000,46898.000000,25873.000000
19707.000000,44678.000000,46964.000000,25914.000000
19731.000000,44696.000000,46951.000000,25912.000000
19805.000000,44788.000000,46984.000000,25924.000000
19826.000000,44780.000000,47004.000000,25984.000000
19874.000000,44835.000000,47025.000000,25967.000000
19927.000000,44900.000000,47060.000000,26010.000000
19968.000000,44937.000000,47105.000000,25996.000000
20016.000000,45020.000000,47136.000000,26011.000000
20064.000000,45061.000000,47193.000000,26021.000000
20118.000000,45134.000000,47222.000000,26055.000000
20209.000000,45207.000000,47252.000000,26100.000000
20284.000000,45322.000000,47295.000000,26099.000000
20358.000000,45376.000000,47368.000000,26147.000000
20454.000000,45501.000000,47404.000000,26149.000000
20509.000000,45582.000000,47468.000000,26189.000000
20625.000000,45657.000000,47522.000000,26203.000000
20713.000000,45777.000000,47583.000000,26241.000000
20798.000000,45852.000000,47651.000000,26277.000000
20873.000000,45991.000000,47717.000000,26289.000000
20995.000000,46077.000000,47755.000000,26323.000000
21063.000000,46203.000000,47821.000000,26342.000000
21092.000000,46294.000000,47873.000000,26397.000000
21184.000000,46370.000000,47909.000000,26410.000000
21255.000000,46425.000000,47967.000000,26433.000000
21296.000000,46452.000000,47993.000000,26442.000000
21324.000000,46510.000000,48029.000000,26441.000000
21335.000000,46554.000000,48010.000000,26461.000000
21322.000000,46549.000000,48040.000000,26445.000000
21319.000000,46507.000000,48023.000000,26488.000000
21305.000000,46506.000000,48026.000000,26463.000000
21316.000000,46508.000000,48010.000000,26445.000000
21264.000000,46463.000000,48019.000000,26453.000000
21288.000000,46451.000000,47954.000000,26453.000000
21246.000000,46460.000000,47977.000000,26449.000000
21243.000000,46396.000000,47967.000000,26433.000000
21228.000000,46417.000000,47933.000000,26433.000000
21181.000000,46368.000000,47928.000000,26430.000000
21208.000000,46372.000000,47917.000000,26421.000000
21156.000000,46336.000000,47943.000000,26404.000000
21199.000000,46320.000000,47893.000000,26419.000000
21134.000000,46324.000000,47884.000000,26425.000000
21127.000000,46293.000000,47905.000000,26412.000000
21145.000000,46300.000000,47866.000000,26413.000000
21088.000000,46269.000000,47864.000000,26400.000000
21050.000000,46285.000000,47849.000000,26377.000000
21079.000000,46230.000000,47857.000000,26376.000000
21055.000000,46224.000000,47838.000000,26361.000000
21046.000000,46206.000000,47857.000000,26403.000000
21037.000000,46174.000000,47818.000000,26374.000000
20975.000000,46173.000000,47800.000000,26367.000000
20997.000000,46136.000000,47807.000000,26376.000000
20978.000000,46147.000000,47776.000000,26369.000000
20950.000000,46098.000000,47776.000000,26352.000000
20912.000000,46117.000000,47740.000000,26347.000000
20905.000000,46044.000000,47770.000000,26332.000000
20903.000000,46038.000000,47713.000000,26324.000000
20873.000000,46009.000000,47724.000000,26307.000000
20857.000000,45962.000000,47720.000000,26321.000000
20807.000000,45935.000000,47738.000000,26293.000000
20832.000000,45914.000000,47684.000000,26295.000000
20778.000000,45937.000000,47667.000000,26310.000000
20790.000000,45921.000000,47628.000000,26303.000000
20752.000000,45860.000000,47640.000000,26280.000000
20703.000000,45838.000000,47618.000000,26265.000000
20730.000000,45842.000000,47621.000000,26303.000000
20656.000000,45792.000000,47596.000000,26263.000000
20654.000000,45764.000000,47591.000000,26244.000000
20608.000000,45739.000000,47600.000000,26243.000000
20631.000000,45716.000000,47548.000000,26248.000000
20546.000000,45697.000000,47543.000000,26241.000000
20572.000000,45666.000000,47520.000000,26232.000000
20523.000000,45663.000000,47514.000000,26206.000000
20489.000000,45580.000000,47487.000000,26198.000000
20499.000000,45565.000000,47468.000000,26195.000000
20451.000000,45548.000000,47451.000000,26183.000000
20431.000000,45490.000000,47456.000000,26188.000000
20427.000000,45501.000000,47441.000000,26176.000000
20398.000000,45469.000000,47402.000000,26171.000000
20402.000000,45430.000000,47395.000000,26138.000000
20328.000000,45405.000000,47369.000000,26151.000000
20353.000000,45371.000000,47351.000000,26150.000000
20320.000000,45360.000000,47350.000000,26148.000000
20272.000000,45300.000000,47309.000000,26114.000000
20234.000000,45300.000000,47284.000000,26115.000000
20237.000000,45277.000000,47262.000000,26145.000000
20171.000000,45212.000000,47272.000000,26106.000000
20162.000000,45196.000000,47271.000000,26096.000000
20148.000000,45170.000000,47222.000000,26078.000000
20108.000000,45163.000000,47207.000000,26085.000000
20117.000000,45141.000000,47226.000000,26062.000000
20073.000000,45122.000000,47209.000000,26074.000000
20100.000000,45078.000000,47174.000000,26066.000000
20032.000000,45040.000000,47178.000000,26059.000000
20007.000000,45007.000000,47128.000000,26039.000000
19998.000000,44979.000000,47140.000000,26018.000000
19986.000000,44944.000000,47118.000000,26018.000000
19954.000000,44950.000000,47098.000000,25991.000000
19894.000000,44915.000000,47077.000000,26015.000000
19945.000000,44881.000000,47047.000000,26008.000000
19886.000000,44839.000000,47049.000000,25985.000000
19859.000000,44801.000000,47018.000000,26001.000000
19810.000000,44799.000000,47016.000000,25929.000000
19801.000000,44781.000000,47003.000000,25957.000000
19768.000000,44755.000000,46995.000000,25956.000000
19752.000000,44718.000000,46950.000000,25966.000000
19719.000000,44700.000000,46957.000000,25950.000000
19707.000000,44659.000000,46947.000000,25940.000000
19708.000000,44638.000000,46898.000000,25948.000000
19683.000000,44607.000000,46900.000000,25941.000000
19631.000000,44574.000000,46887.000000,25905.000000
19646.000000,44549.000000,46860.000000,25900.000000
19625.000000,44570.000000,46877.000000,25931.000000
19600.000000,44539.000000,46877.000000,25908.000000
19570.000000,44480.000000,46844.000000,25881.000000
19525.000000,44535.000000,46811.000000,25877.000000
19562.000000,44454.000000,46818.000000,25907.000000
19515.000000,44494.000000,46808.000000,25875.000000
19513.000000,44420.000000,46790.000000,25869.000000
19476.000000,44404.000000,46779.000000,25867.000000
19470.000000,44390.000000,46779.000000,25869.000000
19448.000000,44353.000000,46755.000000,25828.000000
19406.000000,44320.000000,46739.000000,25839.000000
19399.000000,44327.000000,46702.000000,25805.000000
19368.000000,44252.000000,46731.000000,25799.000000
19349.000000,44260.000000,46673.000000,25807.000000
19332.000000,44225.000000,46662.000000,25782.000000
19289.000000,44153.000000,46645.000000,25773.000000
19224.000000,44142.000000,46650.000000,25749.000000
19219.000000,44093.000000,46608.000000,25787.000000
19192.000000,44063.000000,46565.000000,25727.000000
19111.000000,44016.000000,46542.000000,25731.000000
19082.000000,43986.000000,46504.000000,25728.000000
19066.000000,43932.000000,46504.000000,25691.000000
19015.000000,43901.000000,46481.000000,25692.000000
18999.000000,43866.000000,46458.000000,25677.000000
18987.000000,43825.000000,46438.000000,25631.000000
18934.000000,43818.000000,46426.000000,25666.000000
18965.000000,43795.000000,46411.000000,25649.000000
18921.000000,43789.000000,46439.000000,25644.000000
18991.000000,43769.000000,46407.000000,25660.000000
18941.000000,43786.000000,46400.000000,25611.000000
18937.000000,43764.000000,46397.000000,25635.000000
18931.000000,43764.000000,46398.000000,25621.000000
18920.000000,43717.000000,46376.000000,25630.000000
18971.000000,43770.000000,46439.000000,25625.000000
18946.000000,43780.000000,46426.000000,25634.000000
18983.000000,43804.000000,46425.000000,25636.000000
18977.000000,43836.000000,46431.000000,25639.000000
18984.000000,43833.000000,46438.000000,25635.000000
19023.000000,43859.000000,46454.000000,25666.000000
19050.000000,43889.000000,46485.000000,25675.000000
19078.000000,43939.000000,46492.000000,25666.000000
19134.000000,43961.000000,46521.000000,25709.000000
19176.000000,44030.000000,46554.000000,25709.000000
19182.000000,44080.000000,46582.000000,25726.000000
19272.000000,44121.000000,46636.000000,25724.000000
19297.000000,44193.000000,46662.000000,25733.000000
19336.000000,44229.000000,46688.000000,25784.000000
19385.000000,44285.000000,46707.000000,25786.000000
19430.000000,44345.000000,46782.000000,25795.000000
19528.000000,44402.000000,46783.000000,25810.000000
19545.000000,44461.000000,46804.000000,25855.000000
19605.000000,44514.000000,46819.000000,25851.000000
19677.000000,44629.000000,46889.000000,25892.000000
19747.000000,44626.000000,46917.000000,25872.000000
19789.000000,44742.000000,46956.000000,25903.000000
19841.000000,44819.000000,47024.000000,25925.000000
19962.000000,44889.000000,47037.000000,25944.000000
19987.000000,44962.000000,47122.000000,25979.000000
20103.000000,45066.000000,47129.000000,25997.000000
20165.000000,45199.000000,47179.000000,26019.000000
20276.000000,45251.000000,47289.000000,26064.000000
20347.000000,45399.000000,47351.000000,26066.000000
20462.000000,45512.000000,47399.000000,26148.000000
20550.000000,45589.000000,47487.000000,26134.000000
20660.000000,45713.000000,47550.000000,26190.000000
20755.000000,45837.000000,47610.000000,26229.000000
20836.000000,45929.000000,47673.000000,26238.000000
20922.000000,46050.000000,47710.000000,26282.000000
20950.000000,46066.000000,47755.000000,26280.000000
21001.000000,46144.000000,47768.000000,26314.000000
21034.000000,46186.000000,47812.000000,26307.000000
21061.000000,46188.000000,47809.000000,26341.000000
21082.000000,46221.000000,47828.000000,26320.000000
21022.000000,46229.000000,47855.000000,26338.000000
21092.000000,46207.000000,47823.000000,26303.000000
21047.000000,46204.000000,47805.000000,26304.000000
21046.000000,46203.000000,47810.000000,26339.000000
21034.000000,46187.000000,47802.000000,26330.000000
21002.000000,46158.000000,47812.000000,26344.000000
21008.000000,46134.000000,47798.000000,26304.000000
20996.000000,46152.000000,47787.000000,26274.000000
20993.000000,46100.000000,47753.000000,26309.000000
20954.000000,46101.000000,47747.000000,26319.000000
20945.000000,46095.000000,47778.000000,26297.000000
20970.000000,46081.000000,47768.000000,26308.000000
20922.000000,46060.000000,47749.000000,26301.000000
20927.000000,46039.000000,47707.000000,26277.000000
20920.000000,46054.000000,47714.000000,26280.000000
20892.000000,46011.000000,47723.000000,26281.000000
20892.000000,46033.000000,47713.000000,26300.000000
20863.000000,45969.000000,47687.000000,26279.000000
20870.000000,45990.000000,47683.000000,26256.000000
20860.000000,46002.000000,47648.000000,26259.000000
20851.000000,45953.000000,47663.000000,26266.000000
20831.000000,45963.000000,47654.000000,26285.000000
20800.000000,45933.000000,47679.000000,26264.000000
20806.000000,45921.000000,47664.000000,26273.000000
20770.000000,45905.000000,47667.000000,26230.000000
20816.000000,45869.000000,47637.000000,26238.000000
20777.000000,45883.000000,47632.000000,26226.000000
20732.000000,45855.000000,47639.000000,26205.000000
20725.000000,45864.000000,47589.000000,26202.000000
20748.000000,45838.000000,47616.000000,26202.000000
20734.000000,45831.000000,47609.000000,26222.000000
20705.000000,45855.000000,47603.000000,26241.000000
20719.000000,45776.000000,47594.000000,26221.000000
20691.000000,45765.000000,47540.000000,26183.000000
20664.000000,45778.000000,47559.000000,26208.000000
20648.000000,45775.000000,47552.000000,26206.000000
20639.000000,45744.000000,47551.000000,26216.000000
20634.000000,45718.000000,47551.000000,26184.000000
20628.000000,45734.000000,47561.000000,26186.000000
20603.000000,45697.000000,47541.000000,26200.000000
20589.000000,45661.000000,47488.000000,26184.000000
20573.000000,45675.000000,47463.000000,26172.000000
20561.000000,45624.000000,47490.000000,26176.000000
20553.000000,45624.000000,47499.000000,26159.000000
20512.000000,45634.000000,47479.000000,26139.000000
20513.000000,45611.000000,47471.000000,26153.000000
20522.000000,45560.000000,47448.000000,26131.000000
20509.000000,45542.000000,47424.000000,26136.000000
20486.000000,45532.000000,47441.000000,26122.000000
20442.000000,45569.000000,47415.000000,26136.000000
20435.000000,45504.000000,47408.000000,26104.000000
20424.000000,45501.000000,47423.000000,26113.000000
20421.000000,45483.000000,47404.000000,26115.000000
20374.000000,45451.000000,47395.000000,26127.000000
20349.000000,45430.000000,47382.000000,26086.000000
20357.000000,45391.000000,47362.000000,26121.000000
20320.000000,45395.000000,47320.000000,26079.000000
20304.000000,45365.000000,47336.000000,26082.000000
20321.000000,45361.000000,47341.000000,26076.000000
20279.000000,45309.000000,47325.000000,26060.000000
20265.000000,45293.000000,47269.000000,26054.000000
20220.000000,45261.000000,47293.000000,26040.000000
20232.000000,45244.000000,47263.000000,26051.000000
20192.000000,45241.000000,47239.000000,26028.000000
20168.000000,45206.000000,47247.000000,26024.000000
20166.000000,45179.000000,47194.000000,26057.000000
20110.000000,45151.000000,47217.000000,26008.000000
20136.000000,45159.000000,47179.000000,26027.000000
20073.000000,45121.000000,47203.000000,25998.000000
20057.000000,45085.000000,47151.000000,25992.000000
20057.000000,45069.000000,47191.000000,25971.000000
20006.000000,45042.000000,47150.000000,25982.000000
20012.000000,45050.000000,47133.000000,25986.000000
19996.000000,44986.000000,47107.000000,25955.000000
19967.000000,44966.000000,47066.000000,25962.000000
19943.000000,44953.000000,47084.000000,25952.000000
19929.000000,44915.000000,47074.000000,25960.000000
19915.000000,44931.000000,47060.000000,25934.000000
19885.000000,44891.000000,47050.000000,25937.000000
19847.000000,44826.000000,47027.000000,25933.000000
19863.000000,44824.000000,47008.000000,25902.000000
19840.000000,44813.000000,46993.000000,25914.000000
19809.000000,44834.000000,46991.000000,25894.000000
19837.000000,44770.000000,47000.000000,25889.000000
19795.000000,44794.000000,46985.000000,25904.000000
19775.000000,44770.000000,46974.000000,25884.000000
19760.000000,44755.000000,46945.000000,25861.000000
19736.000000,44728.000000,46962.000000,25863.000000
19741.000000,44701.000000,46952.000000,25855.000000
19725.000000,44719.000000,46911.000000,25882.000000
19721.000000,44710.000000,46951.000000,25877.000000
19752.000000,44728.000000,46940.000000,25844.000000
19689.000000,44678.000000,46938.000000,25856.000000
19702.000000,44683.000000,46908.000000,25851.000000
19684.000000,44671.000000,46913.000000,25828.000000
19677.000000,44641.000000,46886.000000,25857.000000
19660.000000,44634.000000,46878.000000,25838.000000
19619.000000,44618.000000,46902.000000,25829.000000
19650.000000,44565.000000,46875.000000,25822.000000
19622.000000,44585.000000,46855.000000,25806.000000
19600.000000,44523.000000,46853.000000,25826.000000
19583.000000,44523.000000,46836.000000,25793.000000
19525.000000,44492.000000,46841.000000,25771.000000
19498.000000,44453.000000,46790.000000,25779.000000
19492.000000,44414.000000,46787.000000,25771.000000
19469.000000,44369.000000,46766.000000,25752.000000
19420.000000,44364.000000,46746.000000,25740.000000
19381.000000,44294.000000,46706.000000,25734.000000
19369.000000,44339.000000,46698.000000,25713.000000
19311.000000,44226.000000,46683.000000,25720.000000
19328.000000,44185.000000,46660.000000,25709.000000
19257.000000,44232.000000,46654.000000,25685.000000
19293.000000,44191.000000,46641.000000,25686.000000
19274.000000,44202.000000,46611.000000,25691.000000
19232.000000,44149.000000,46627.000000,25668.000000
19272.000000,44156.000000,46601.000000,25682.000000
19264.000000,44140.000000,46629.000000,25657.000000
19225.000000,44121.000000,46629.000000,25651.000000
19239.000000,44124.000000,46628.000000,25665.000000
19210.000000,44149.000000,46605.000000,25667.000000
19241.000000,44168.000000,46627.000000,25668.000000
19257.000000,44228.000000,46632.000000,25657.000000
19280.000000,44223.000000,46644.000000,25684.000000
19285.000000,44237.000000,46641.000000,25665.000000
19322.000000,44225.000000,46669.000000,25672.000000
19325.000000,44266.000000,46665.000000,25689.000000
19367.000000,44297.000000,46690.000000,25692.000000
19388.000000,44352.000000,46716.000000,25687.000000
19437.000000,44346.000000,46766.000000,25698.000000
19454.000000,44399.000000,46792.000000,25742.000000
19532.000000,44443.000000,46798.000000,25745.000000
19558.000000,44495.000000,46819.000000,25759.000000
19610.000000,44534.000000,46840.000000,25776.000000
19659.000000,44614.000000,46881.000000,25793.000000
19660.000000,44614.000000,46907.000000,25808.000000
19754.000000,44658.000000,46928.000000,25792.000000
19788.000000,44727.000000,46969.000000,25823.000000
19879.000000,44786.000000,46989.000000,25850.000000
19882.000000,44871.000000,47034.000000,25847.000000
19952.000000,44941.000000,47072.000000,25912.000000
19985.000000,44990.000000,47098.000000,25872.000000
20014.000000,45082.000000,47178.000000,25914.000000
20126.000000,45152.000000,47196.000000,25919.000000
20206.000000,45269.000000,47240.000000,25984.000000
20297.000000,45301.000000,47311.000000,25974.000000
20396.000000,45418.000000,47348.000000,25996.000000
20449.000000,45514.000000,47432.000000,26051.000000
20562.000000,45629.000000,47508.000000,26057.000000
20637.000000,45748.000000,47529.000000,26092.000000
20727.000000,45827.000000,47582.000000,26123.000000
20839.000000,45999.000000,47678.000000,26158.000000
20903.000000,46070.000000,47740.000000,26170.000000
20986.000000,46163.000000,47781.000000,26219.000000
21082.000000,46220.000000,47825.000000,26179.000000
21151.000000,46321.000000,47855.000000,26253.000000
21201.000000,46392.000000,47900.000000,26286.000000
21245.000000,46427.000000,47976.000000,26313.000000
21284.000000,46470.000000,47966.000000,26280.000000
21271.000000,46502.000000,47986.000000,26304.000000
21288.000000,46521.000000,47980.000000,26319.000000
21289.000000,46545.000000,47981.000000,26335.000000
21306.000000,46511.000000,48002.000000,26298.000000
21281.000000,46499.000000,47988.000000,26306.000000
21241.000000,46461.000000,47981.000000,26311.000000
21252.000000,46458.000000,47948.000000,26275.000000
21210.000000,46452.000000,47939.000000,26299.000000
21229.000000,46441.000000,47931.000000,26302.000000
21236.000000,46433.000000,47938.000000,26267.000000
21195.000000,46403.000000,47943.000000,26283.000000
21195.000000,46389.000000,47899.000000,26274.000000
21191.000000,46381.000000,47930.000000,26283.000000
21157.000000,46364.000000,47909.000000,26281.000000
21138.000000,46362.000000,47881.000000,26248.000000
21148.000000,46350.000000,47876.000000,26258.000000
21108.000000,46295.000000,47861.000000,26225.000000
21078.000000,46305.000000,47899.000000,26225.000000
21103.000000,46300.000000,47848.000000,26258.000000
21071.000000,46282.000000,47860.000000,26250.000000
21073.000000,46258.000000,47852.000000,26256.000000
21044.000000,46270.000000,47850.000000,26226.000000
21060.000000,46261.000000,47843.000000,26221.000000
21066.000000,46248.000000,47795.000000,26215.000000
21018.000000,46242.000000,47817.000000,26232.000000
21026.000000,46178.000000,47784.000000,26194.000000
21018.000000,46207.000000,47796.000000,26209.000000
20972.000000,46170.000000,47796.000000,26210.000000
20964.000000,46121.000000,47778.000000,26208.000000
20960.000000,46143.000000,47775.000000,26200.000000
20971.000000,46124.000000,47737.000000,26209.000000
20959.000000,46130.000000,47761.000000,26178.000000
20896.000000,46079.000000,47730.000000,26171.000000
20906.000000,46099.000000,47723.000000,26177.000000
20907.000000,46073.000000,47711.000000,26167.000000
20902.000000,46044.000000,47726.000000,26157.000000
20855.000000,46052.000000,47702.000000,26185.000000
20833.000000,46025.000000,47698.000000,26165.000000
20831.000000,46018.000000,47684.000000,26181.000000
20838.000000,45993.000000,47684.000000,26133.000000
20837.000000,45993.000000,47668.000000,26135.000000
20773.000000,45952.000000,47700.000000,26132.000000
20807.000000,45949.000000,47652.000000,26148.000000
20765.000000,45932.000000,47628.000000,26119.000000
20749.000000,45932.000000,47658.000000,26135.000000
20703.000000,45856.000000,47632.000000,26114.000000
20741.000000,45847.000000,47599.000000,26135.000000
20694.000000,45868.000000,47630.000000,26086.000000
20706.000000,45871.000000,47571.000000,26106.000000
20693.000000,45854.000000,47603.000000,26086.000000
20656.000000,45815.000000,47609.000000,26078.000000
20673.000000,45806.000000,47565.000000,26082.000000
20606.000000,45803.000000,47602.000000,26063.000000
20624.000000,45746.000000,47564.000000,26068.000000
20592.000000,45793.000000,47547.000000,26064.000000
20609.000000,45750.000000,47555.000000,26064.000000
20608.000000,45726.000000,47519.000000,26050.000000
20549.000000,45694.000000,47504.000000,26038.000000
20561.000000,45697.000000,47513.000000,26040.000000
20579.000000,45667.000000,47486.000000,26066.000000
20522.000000,45666.000000,47490.000000,26040.000000
20501.000000,45628.000000,47474.000000,26016.000000
20517.000000,45605.000000,47465.000000,26021.000000
20476.000000,45587.000000,47460.000000,26004.000000
20426.000000,45573.000000,47461.000000,26021.000000
20437.000000,45536.000000,47446.000000,26006.000000
20400.000000,45535.000000,47432.000000,25996.000000
20425.000000,45517.000000,47389.000000,25977.000000
20375.000000,45509.000000,47394.000000,25987.000000
20340.000000,45510.000000,47395.000000,25969.000000
20331.000000,45460.000000,47368.000000,25943.000000
20325.000000,45419.000000,47359.000000,25961.000000
20318.000000,45405.000000,47349.000000,25977.000000
20279.000000,45398.000000,47352.000000,25926.000000
20272.000000,45381.000000,47332.000000,25960.000000
20303.000000,45422.000000,47337.000000,25927.000000
20263.000000,45379.000000,47336.000000,25925.000000
20280.000000,45373.000000,47287.000000,25929.000000
20224.000000,45327.000000,47282.000000,25912.000000
20258.000000,45369.000000,47295.000000,25915.000000
20233.000000,45372.000000,47302.000000,25904.000000
20212.000000,45339.000000,47305.000000,25912.000000
20204.000000,45340.000000,47321.000000,25933.000000
20234.000000,45329.000000,47303.000000,25908.000000
20224.000000,45340.000000,47296.000000,25924.000000
20264.000000,45317.000000,47317.000000,25935.000000
20268.000000,45334.000000,47274.000000,25925.000000
20227.000000,45346.000000,47327.000000,25911.000000
20287.000000,45384.000000,47298.000000,25913.000000
20250.000000,45390.000000,47315.000000,25921.000000
20286.000000,45378.000000,47323.000000,25927.000000
20244.000000,45423.000000,47325.000000,25898.000000
20282.000000,45423.000000,47359.000000,25943.000000
20306.000000,45411.000000,47347.000000,25919.000000
20308.000000,45407.000000,47351.000000,25944.000000
20307.000000,45415.000000,47325.000000,25914.000000
20299.000000,45429.000000,47359.000000,25943.000000
20300.000000,45416.000000,47365.000000,25935.000000
20317.000000,45412.000000,47333.000000,25951.000000
20259.000000,45399.000000,47342.000000,25913.000000
20275.000000,45395.000000,47338.000000,25919.000000
20277.000000,45434.000000,47333.000000,25933.000000
20245.000000,45355.000000,47347.000000,25898.000000
20255.000000,45363.000000,47324.000000,25914.000000
20247.000000,45317.000000,47311.000000,25924.000000
20238.000000,45338.000000,47275.000000,25897.000000
20251.000000,45352.000000,47301.000000,25882.000000
20215.000000,45357.000000,47293.000000,25940.000000
20216.000000,45359.000000,47290.000000,25934.000000
20241.000000,45349.000000,47319.000000,25924.000000
20290.000000,45380.000000,47323.000000,25904.000000
20287.000000,45366.000000,47288.000000,25904.000000
20285.000000,45410.000000,47316.000000,25947.000000
20320.000000,45439.000000,47352.000000,25942.000000
20325.000000,45470.000000,47371.000000,25928.000000
20351.000000,45493.000000,47353.000000,25964.000000
20386.000000,45524.000000,47389.000000,25961.000000
20399.000000,45554.000000,47404.000000,25970.000000
20468.000000,45593.000000,47447.000000,25977.000000
20462.000000,45604.000000,47460.000000,25979.000000
20509.000000,45642.000000,47490.000000,25993.000000
20557.000000,45700.000000,47498.000000,25997.000000
20587.000000,45727.000000,47518.000000,26003.000000
20638.000000,45797.000000,47553.000000,26014.000000
20628.000000,45833.000000,47590.000000,26049.000000
20677.000000,45883.000000,47611.000000,26053.000000
20758.000000,45920.000000,47642.000000,26060.000000
20805.000000,45998.000000,47689.000000,26094.000000
20873.000000,46073.000000,47715.000000,26125.000000
20903.000000,46134.000000,47764.000000,26100.000000
21023.000000,46178.000000,47793.000000,26147.000000
21060.000000,46308.000000,47861.000000,26174.000000
21102.000000,46370.000000,47913.000000,26197.000000
21201.000000,46473.000000,47969.000000,26231.000000
21292.000000,46605.000000,48039.000000,26230.000000
21413.000000,46662.000000,48072.000000,26262.000000
21489.000000,46833.000000,48151.000000,26285.000000
21580.000000,46899.000000,48221.000000,26330.000000
21686.000000,47026.000000,48263.000000,26355.000000
21782.000000,47158.000000,48343.000000,26396.000000
21913.000000,47292.000000,48438.000000,26441.000000
21992.000000,47457.000000,48547.000000,26490.000000
22104.000000,47578.000000,48613.000000,26505.000000
22282.000000,47692.000000,48665.000000,26537.000000
22358.000000,47831.000000,48756.000000,26552.000000
22470.000000,47934.000000,48810.000000,26618.000000
22560.000000,48103.000000,48889.000000,26620.000000
22696.000000,48176.000000,48930.000000,26682.000000
22756.000000,48297.000000,48997.000000,26699.000000
22828.000000,48391.000000,49084.000000,26720.000000
22922.000000,48468.000000,49114.000000,26782.000000
22962.000000,48516.000000,49148.000000,26742.000000
22982.000000,48563.000000,49180.000000,26799.000000
23016.000000,48573.000000,49205.000000,26783.000000
22973.000000,48589.000000,49210.000000,26804.000000
23037.000000,48633.000000,49198.000000,26783.000000
23007.000000,48625.000000,49188.000000,26796.000000
23016.000000,48628.000000,49207.000000,26808.000000
23038.000000,48634.000000,49195.000000,26795.000000
23017.000000,48612.000000,49215.000000,26784.000000
23033.000000,48633.000000,49213.000000,26809.000000
23022.000000,48631.000000,49241.000000,26794.000000
23032.000000,48647.000000,49211.000000,26793.000000
23016.000000,48635.000000,49203.000000,26815.000000
23009.000000,48617.000000,49191.000000,26808.000000
23067.000000,48671.000000,49221.000000,26810.000000
23072.000000,48659.000000,49255.000000,26825.000000
23103.000000,48673.000000,49241.000000,26815.000000
23039.000000,48701.000000,49237.000000,26807.000000
23074.000000,48665.000000,49235.000000,26812.000000
23069.000000,48739.000000,49251.000000,26796.000000
23119.000000,48719.000000,49270.000000,26801.000000
23108.000000,48712.000000,49276.000000,26815.000000
23101.000000,48710.000000,49302.000000,26791.000000
23100.000000,48753.000000,49283.000000,26822.000000
23092.000000,48734.000000,49283.000000,26777.000000
23126.000000,48761.000000,49271.000000,26822.000000
23089.000000,48743.000000,49264.000000,26789.000000
23097.000000,48739.000000,49296.000000,26794.000000
23097.000000,48763.000000,49285.000000,26799.000000
23092.000000,48703.000000,49302.000000,26808.000000
23143.000000,48722.000000,49262.000000,26819.000000
23080.000000,48734.000000,49286.000000,26811.000000
23080.000000,48716.000000,49262.000000,26834.000000
23076.000000,48716.000000,49256.000000,26808.000000
23052.000000,48656.000000,49261.000000,26815.000000
23086.000000,48689.000000,49253.000000,26769.000000
23048.000000,48722.000000,49256.000000,26789.000000
23005.000000,48638.000000,49213.000000,26802.000000
22998.000000,48651.000000,49206.000000,26770.000000
23000.000000,48662.000000,49225.000000,26815.000000
22987.000000,48651.000000,49191.000000,26783.000000
22952.000000,48619.000000,49224.000000,26764.000000
22980.000000,48544.000000,49181.000000,26769.000000
22915.000000,48573.000000,49179.000000,26761.000000
22920.000000,48538.000000,49159.000000,26759.000000
22894.000000,48544.000000,49129.000000,26728.000000
22859.000000,48469.000000,49160.000000,26744.000000
22887.000000,48478.000000,49117.000000,26712.000000
22839.000000,48446.000000,49118.000000,26721.000000
22832.000000,48411.000000,49091.000000,26728.000000
22792.000000,48424.000000,49081.000000,26731.000000
22794.000000,48401.000000,49065.000000,26726.000000
22753.000000,48382.000000,49061.000000,26712.000000
22721.000000,48339.000000,49029.000000,26702.000000
22740.000000,48319.000000,49032.000000,26698.000000
22703.000000,48289.000000,49046.000000,26691.000000
22699.000000,48264.000000,49001.000000,26695.000000
22631.000000,48247.000000,48989.000000,26694.000000
22639.000000,48206.000000,48957.000000,26675.000000
22592.000000,48186.000000,48947.000000,26665.000000
22586.000000,48170.000000,48919.000000,26666.000000
22583.000000,48138.000000,48909.000000,26650.000000
22563.000000,48113.000000,48896.000000,26634.000000
22520.000000,48083.000000,48903.000000,26631.000000
22483.000000,48030.000000,48878.000000,26610.000000
22436.000000,48031.000000,48860.000000,26629.000000
22401.000000,48007.000000,48818.000000,26614.000000
22436.000000,47988.000000,48824.000000,26580.000000
22383.000000,47946.000000,48787.000000,26571.000000
22368.000000,47888.000000,48811.000000,26556.000000
22335.000000,47855.000000,48749.000000,26580.000000
22269.000000,47862.000000,48740.000000,26570.000000
22281.000000,47826.000000,48734.000000,26559.000000
22273.000000,47804.000000,48709.000000,26538.000000
22225.000000,47751.000000,48721.000000,26548.000000
22207.000000,47735.000000,48683.000000,26549.000000
22157.000000,47700.000000,48667.000000,26526.000000
22168.000000,47688.000000,48657.000000,26508.000000
22150.000000,47691.000000,48621.000000,26513.000000
22097.000000,47630.000000,48623.000000,26496.000000
22111.000000,47628.000000,48622.000000,26500.000000
22067.000000,47571.000000,48613.000000,26494.000000
22076.000000,47567.000000,48556.000000,26486.000000
22022.000000,47551.000000,48581.000000,26473.000000
22027.000000,47510.000000,48559.000000,26471.000000
22017.000000,47518.000000,48559.000000,26449.000000
21997.000000,47492.000000,48566.000000,26466.000000
21963.000000,47464.000000,48518.000000,26468.000000
21974.000000,47455.000000,48529.000000,26485.000000
21992.000000,47446.000000,48504.000000,26473.000000
21965.000000,47417.000000,48511.000000,26438.000000
21949.000000,47429.000000,48453.000000,26449.000000
21922.000000,47391.000000,48496.000000,26433.000000
21891.000000,47363.000000,48467.000000,26432.000000
21871.000000,47334.000000,48425.000000,26444.000000
21836.000000,47288.000000,48438.000000,26431.000000
21856.000000,47265.000000,48416.000000,26393.000000
21782.000000,47263.000000,48396.000000,26392.000000
21751.000000,47204.000000,48387.000000,26423.000000
21735.000000,47174.000000,48340.000000,26386.000000
21689.000000,47135.000000,48340.000000,26388.000000
21656.000000,47110.000000,48312.000000,26354.000000
21635.000000,47026.000000,48315.000000,26358.000000
21568.000000,47010.000000,48255.000000,26362.000000
21565.000000,46976.000000,48263.000000,26329.000000
21514.000000,46914.000000,48207.000000,26314.000000
21501.000000,46945.000000,48209.000000,26299.000000
21471.000000,46887.000000,48184.000000,26296.000000
21486.000000,46874.000000,48151.000000,26290.000000
21466.000000,46854.000000,48213.000000,26309.000000
21447.000000,46844.000000,48148.000000,26283.000000
21444.000000,46841.000000,48171.000000,26311.000000
21441.000000,46791.000000,48150.000000,26291.000000
21427.000000,46860.000000,48132.000000,26282.000000
21454.000000,46831.000000,48171.000000,26305.000000
21474.000000,46817.000000,48137.000000,26275.000000
21448.000000,46841.000000,48155.000000,26290.000000
21497.000000,46856.000000,48181.000000,26307.000000
21438.000000,46901.000000,48178.000000,26308.000000
21506.000000,46887.000000,48211.000000,26324.000000
21512.000000,46898.000000,48205.000000,26303.000000
21530.000000,46909.000000,48235.000000,26313.000000
21556.000000,46961.000000,48207.000000,26322.000000
21569.000000,46969.000000,48234.000000,26315.000000
21612.000000,47018.000000,48251.000000,26310.000000
21600.000000,47052.000000,48291.000000,26354.000000
21671.000000,47067.000000,48305.000000,26356.000000
21683.000000,47086.000000,48311.000000,26352.000000
21724.000000,47146.000000,48363.000000,26358.000000
21740.000000,47199.000000,48366.000000,26366.000000
21799.000000,47235.000000,48412.000000,26401.000000
21887.000000,47281.000000,48442.000000,26418.000000
21883.000000,47351.000000,48469.000000,26411.000000
21976.000000,47416.000000,48477.000000,26440.000000
21980.000000,47455.000000,48519.000000,26457.000000
22066.000000,47523.000000,48552.000000,26483.000000
22102.000000,47589.000000,48578.000000,26464.000000
22165.000000,47697.000000,48653.000000,26476.000000
22251.000000,47747.000000,48656.000000,26511.000000
22314.000000,47847.000000,48720.000000,26528.000000
22419.000000,47920.000000,48787.000000,26560.000000
22494.000000,48027.000000,48852.000000,26581.000000
22568.000000,48130.000000,48921.000000,26621.000000
22687.000000,48224.000000,48953.000000,26664.000000
22755.000000,48329.000000,49056.000000,26686.000000
22899.000000,48492.000000,49110.000000,26733.000000
22990.000000,48624.000000,49180.000000,26743.000000
23142.000000,48762.000000,49293.000000,26818.000000
23262.000000,48937.000000,49352.000000,26878.000000
23375.000000,49031.000000,49439.000000,26895.000000
23460.000000,49194.000000,49518.000000,26926.000000
23554.000000,49275.000000,49571.000000,26951.000000
23580.000000,49329.000000,49570.000000,26979.000000
23615.000000,49373.000000,49657.000000,26988.000000
23658.000000,49377.000000,49652.000000,27032.000000
23617.000000,49428.000000,49659.000000,27002.000000
23635.000000,49365.000000,49658.000000,27017.000000
23624.000000,49389.000000,49630.000000,26996.000000
23591.000000,49358.000000,49607.000000,27015.000000
23599.000000,49323.000000,49590.000000,26963.000000
23577.000000,49288.000000,49600.000000,26967.000000
23533.000000,49320.000000,49578.000000,26979.000000
23537.000000,49243.000000,49545.000000,26973.000000
23513.000000,49207.000000,49539.000000,26960.000000
23477.000000,49193.000000,49539.000000,26937.000000
23446.000000,49183.000000,49517.000000,26953.000000
23465.000000,49167.000000,49531.000000,26945.000000
23442.000000,49143.000000,49473.000000,26933.000000
23381.000000,49184.000000,49495.000000,26935.000000
23417.000000,49085.000000,49459.000000,26935.000000
23392.000000,49089.000000,49473.000000,26926.000000
23374.000000,49027.000000,49454.000000,26889.000000
23379.000000,49053.000000,49413.000000,26896.000000
23336.000000,49021.000000,49433.000000,26909.000000
23367.000000,49013.000000,49390.000000,26902.000000
23316.000000,48970.000000,49410.000000,26910.000000
23279.000000,48948.000000,49374.000000,26869.000000
23261.000000,48938.000000,49390.000000,26887.000000
23246.000000,48908.000000,49397.000000,26859.000000
23221.000000,48889.000000,49365.000000,26889.000000
23251.000000,48890.000000,49339.000000,26876.000000
23159.000000,48866.000000,49366.000000,26838.000000
23187.000000,48823.000000,49328.000000,26870.000000
23135.000000,48824.000000,49324.000000,26849.000000
23160.000000,48794.000000,49301.000000,26853.000000
23135.000000,48749.000000,49291.000000,26840.000000
23119.000000,48738.000000,49264.000000,26819.000000
23097.000000,48780.000000,49271.000000,26827.000000
23070.000000,48702.000000,49246.000000,26821.000000
23043.000000,48720.000000,49245.000000,26800.000000
23065.000000,48688.000000,49241.000000,26804.000000
22998.000000,48680.000000,49174.000000,26777.000000
23006.000000,48631.000000,49208.000000,26806.000000
22985.000000,48601.000000,49199.000000,26797.000000
22953.000000,48561.000000,49198.000000,26779.000000
22978.000000,48547.000000,49162.000000,26771.000000
22924.000000,48509.000000,49160.000000,26771.000000
22920.000000,48515.000000,49132.000000,26755.000000
22858.000000,48498.000000,49133.000000,26745.000000
22881.000000,48449.000000,49104.000000,26768.000000
22869.000000,48456.000000,49077.000000,26735.000000
22841.000000,48416.000000,49077.000000,26728.000000
22801.000000,48396.000000,49067.000000,26739.000000
22788.000000,48347.000000,49071.000000,26724.000000
22786.000000,48343.000000,49064.000000,26720.000000
22755.000000,48313.000000,49048.000000,26722.000000
22712.000000,48300.000000,49029.000000,26716.000000
22709.000000,48304.000000,48992.000000,26704.000000
22712.000000,48252.000000,48995.000000,26711.000000
22659.000000,48251.000000,48967.000000,26681.000000
22662.000000,48212.000000,48957.000000,26710.000000
22640.000000,48182.000000,48934.000000,26704.000000
22600.000000,48143.000000,48955.000000,26641.000000
22579.000000,48102.000000,48923.000000,26648.000000
22601.000000,48083.000000,48939.000000,26627.000000
22539.000000,48095.000000,48889.000000,26668.000000
22479.000000,48029.000000,48896.000000,26644.000000
22507.000000,48031.000000,48851.000000,26640.000000
22448.000000,48020.000000,48852.000000,26633.000000
22430.000000,47979.000000,48814.000000,26629.000000
22440.000000,47937.000000,48800.000000,26619.000000
22386.000000,47919.000000,48799.000000,26608.000000
22374.000000,47887.000000,48766.000000,26590.000000
22319.000000,47866.000000,48747.000000,26589.000000
22343.000000,47829.000000,48763.000000,26598.000000
22275.000000,47830.000000,48744.000000,26560.000000
22282.000000,47788.000000,48732.000000,26576.000000
22272.000000,47761.000000,48720.000000,26521.000000
22240.000000,47731.000000,48710.000000,26537.000000
22211.000000,47688.000000,48664.000000,26530.000000
22185.000000,47689.000000,48683.000000,26527.000000
22189.000000,47656.000000,48645.000000,26534.000000
22156.000000,47645.000000,48612.000000,26521.000000
22121.000000,47572.000000,48613.000000,26539.000000
22116.000000,47575.000000,48618.000000,26514.000000
22082.000000,47570.000000,48606.000000,26477.000000
22075.000000,47523.000000,48568.000000,26489.000000
22031.000000,47497.000000,48554.000000,26498.000000
22022.000000,47513.000000,48541.000000,26487.000000
22010.000000,47490.000000,48566.000000,26458.000000
22018.000000,47454.000000,48549.000000,26505.000000
21994.000000,47434.000000,48524.000000,26470.000000
21960.000000,47426.000000,48528.000000,26471.000000
21991.000000,47421.000000,48512.000000,26479.000000
21939.000000,47406.000000,48490.000000,26460.000000
21942.000000,47392.000000,48481.000000,26435.000000
21931.000000,47388.000000,48480.000000,26445.000000
21912.000000,47378.000000,48480.000000,26444.000000
21901.000000,47344.000000,48468.000000,26434.000000
21872.000000,47313.000000,48473.000000,26431.000000
21901.000000,47307.000000,48471.000000,26445.000000
21842.000000,47316.000000,48455.000000,26410.000000
21832.000000,47273.000000,48409.000000,26414.000000
21808.000000,47274.000000,48378.000000,26433.000000
21803.000000,47221.000000,48405.000000,26415.000000
21794.000000,47173.000000,48373.000000,26413.000000
21760.000000,47173.000000,48373.000000,26380.000000
21751.000000,47116.000000,48329.000000,26376.000000
21670.000000,47081.000000,48336.000000,26373.000000
21679.000000,47048.000000,48287.000000,26354.000000
21643.000000,47043.000000,48287.000000,26356.000000
21635.000000,46979.000000,48281.000000,26360.000000
21596.000000,46982.000000,48258.000000,26313.000000
21558.000000,46926.000000,48223.000000,26310.000000
21545.000000,46911.000000,48218.000000,26292.000000
21533.000000,46875.000000,48170.000000,26320.000000
21508.000000,46849.000000,48174.000000,26300.000000
21488.000000,46838.000000,48167.000000,26317.000000
21489.000000,46807.000000,48166.000000,26305.000000
21469.000000,46844.000000,48159.000000,26271.000000
21474.000000,46834.000000,48175.000000,26326.000000
21478.000000,46837.000000,48171.000000,26296.000000
21475.000000,46835.000000,48202.000000,26296.000000
21501.000000,46834.000000,48181.000000,26291.000000
21486.000000,46865.000000,48209.000000,26292.000000
21544.000000,46858.000000,48178.000000,26293.000000
21535.000000,46892.000000,48186.000000,26309.000000
21563.000000,46903.000000,48247.000000,26312.000000
21542.000000,46919.000000,48225.000000,26274.000000
21584.000000,46954.000000,48236.000000,26322.000000
21622.000000,46936.000000,48253.000000,26310.000000
21583.000000,46999.000000,48255.000000,26337.000000
21654.000000,47019.000000,48301.000000,26339.000000
21683.000000,47084.000000,48309.000000,26348.000000
21709.000000,47063.000000,48325.000000,26321.000000
21751.000000,47132.000000,48337.000000,26373.000000
21745.000000,47156.000000,48365.000000,26389.000000
21816.000000,47180.000000,48364.000000,26370.000000
21840.000000,47247.000000,48392.000000,26378.000000
21884.000000,47278.000000,48413.000000,26407.000000
21896.000000,47365.000000,48490.000000,26430.000000
21993.000000,47423.000000,48501.000000,26444.000000
22036.000000,47488.000000,48533.000000,26474.000000
22100.000000,47506.000000,48550.000000,26448.000000
22181.000000,47603.000000,48626.000000,26497.000000
22229.000000,47680.000000,48631.000000,26507.000000
22305.000000,47740.000000,48715.000000,26508.000000
22368.000000,47862.000000,48762.000000,26551.000000
22432.000000,47905.000000,48791.000000,26574.000000
22538.000000,47985.000000,48847.000000,26607.000000
22599.000000,48156.000000,48957.000000,26635.000000
22737.000000,48219.000000,48976.000000,26689.000000
22799.000000,48328.000000,49070.000000,26681.000000
22935.000000,48467.000000,49130.000000,26740.000000
23056.000000,48622.000000,49210.000000,26773.000000
23141.000000,48721.000000,49277.000000,26830.000000
23294.000000,48888.000000,49393.000000,26848.000000
23371.000000,48977.000000,49478.000000,26898.000000
23493.000000,49065.000000,49514.000000,26910.000000
23548.000000,49252.000000,49558.000000,26943.000000
23590.000000,49316.000000,49594.000000,26991.000000
23630.000000,49322.000000,49659.000000,26981.000000
23638.000000,49338.000000,49629.000000,26981.000000
23658.000000,49325.000000,49653.000000,26975.000000
23631.000000,49341.000000,49626.000000,27001.000000
23630.000000,49318.000000,49634.000000,27000.000000
23602.000000,49315.000000,49635.000000,26955.000000
23613.000000,49295.000000,49608.000000,26971.000000
23589.000000,49283.000000,49598.000000,26979.000000
23554.000000,49272.000000,49588.000000,26959.000000
23592.000000,49207.000000,49562.000000,26967.000000
23531.000000,49253.000000,49561.000000,26965.000000
23511.000000,49168.000000,49536.000000,26954.000000
23497.000000,49181.000000,49525.000000,26953.000000
23496.000000,49150.000000,49533.000000,26920.000000
23474.000000,49137.000000,49538.000000,26913.000000
23445.000000,49101.000000,49517.000000,26930.000000
23483.000000,49106.000000,49490.000000,26927.000000
23406.000000,49099.000000,49485.000000,26920.000000
23415.000000,49035.000000,49481.000000,26907.000000
23424.000000,49077.000000,49492.000000,26916.000000
23396.000000,49039.000000,49473.000000,26886.000000
23391.000000,49010.000000,49452.000000,26886.000000
23337.000000,49003.000000,49448.000000,26874.000000
23365.000000,48965.000000,49419.000000,26879.000000
23345.000000,49003.000000,49415.000000,26897.000000
23319.000000,48929.000000,49403.000000,26890.000000
23292.000000,48941.000000,49371.000000,26875.000000
23263.000000,48899.000000,49406.000000,26842.000000
23291.000000,48894.000000,49378.000000,26836.000000
23279.000000,48894.000000,49368.000000,26851.000000
23233.000000,48877.000000,49379.000000,26862.000000
23237.000000,48858.000000,49345.000000,26837.000000
23228.000000,48808.000000,49341.000000,26865.000000
23199.000000,48775.000000,49323.000000,26849.000000
23179.000000,48776.000000,49326.000000,26828.000000
23179.000000,48789.000000,49278.000000,26827.000000
23133.000000,48726.000000,49269.000000,26794.000000
23131.000000,48726.000000,49276.000000,26814.000000
23143.000000,48716.000000,49243.000000,26818.000000
23085.000000,48698.000000,49285.000000,26799.000000
23088.000000,48672.000000,49247.000000,26811.000000
23043.000000,48656.000000,49244.000000,26810.000000
23044.000000,48622.000000,49221.000000,26819.000000
23060.000000,48622.000000,49187.000000,26758.000000
23007.000000,48560.000000,49207.000000,26764.000000
23025.000000,48569.000000,49177.000000,26776.000000
22937.000000,48574.000000,49143.000000,26768.000000
22960.000000,48514.000000,49146.000000,26761.000000
22925.000000,48490.000000,49118.000000,26748.000000
22886.000000,48468.000000,49123.000000,26731.000000
22909.000000,48408.000000,49099.000000,26737.000000
22864.000000,48420.000000,49102.000000,26735.000000
22848.000000,48372.000000,49098.000000,26724.000000
22802.000000,48368.000000,49074.000000,26704.000000
22772.000000,48333.000000,49066.000000,26720.000000
22798.000000,48315.000000,49030.000000,26689.000000
22748.000000,48242.000000,49056.000000,26686.000000
22740.000000,48231.000000,49020.000000,26687.000000
22703.000000,48227.000000,48989.000000,26679.000000
22689.000000,48183.000000,48988.000000,26676.000000
22661.000000,48173.000000,48976.000000,26657.000000
22601.000000,48098.000000,48957.000000,26642.000000
22639.000000,48116.000000,48943.000000,26656.000000
22570.000000,48094.000000,48906.000000,26626.000000
22573.000000,48018.000000,48893.000000,26648.000000
22555.000000,48044.000000,48897.000000,26624.000000
22495.000000,47980.000000,48877.000000,26623.000000
22496.000000,47969.000000,48810.000000,26593.000000
22447.000000,47930.000000,48858.000000,26596.000000
22438.000000,47926.000000,48822.000000,26559.000000
22416.000000,47860.000000,48788.000000,26583.000000
22406.000000,47846.000000,48797.000000,26575.000000
22341.000000,47851.000000,48768.000000,26556.000000
22364.000000,47790.000000,48740.000000,26553.000000
22345.000000,47781.000000,48737.000000,26575.000000
22282.000000,47744.000000,48725.000000,26542.000000
22299.000000,47788.000000,48698.000000,26532.000000
22264.000000,47712.000000,48702.000000,26530.000000
22223.000000,47725.000000,48708.000000,26524.000000
22264.000000,47670.000000,48699.000000,26518.000000
22232.000000,47659.000000,48677.000000,26526.000000
22225.000000,47636.000000,48662.000000,26507.000000
22226.000000,47626.000000,48674.000000,26512.000000
22173.000000,47599.000000,48648.000000,26502.000000
22196.000000,47617.000000,48646.000000,26508.000000
22136.000000,47607.000000,48624.000000,26500.000000
22180.000000,47559.000000,48635.000000,26476.000000
22139.000000,47592.000000,48618.000000,26504.000000
22121.000000,47548.000000,48600.000000,26507.000000
22110.000000,47556.000000,48573.000000,26468.000000
22096.000000,47499.000000,48589.000000,26487.000000
22061.000000,47484.000000,48583.000000,26463.000000
22031.000000,47487.000000,48549.000000,26477.000000
22024.000000,47421.000000,48541.000000,26471.000000
21970.000000,47421.000000,48516.000000,26445.000000
21989.000000,47392.000000,48493.000000,26445.000000
21963.000000,47324.000000,48477.000000,26431.000000
21906.000000,47264.000000,48462.000000,26431.000000
21869.000000,47267.000000,48417.000000,26400.000000
21810.000000,47204.000000,48420.000000,26414.000000
21825.000000,47167.000000,48374.000000,26384.000000
21743.000000,47137.000000,48420.000000,26368.000000
21761.000000,47109.000000,48319.000000,26346.000000
21734.000000,47050.000000,48333.000000,26350.000000
21706.000000,47038.000000,48322.000000,26375.000000
21689.000000,47081.000000,48315.000000,26346.000000
21666.000000,47016.000000,48323.000000,26369.000000
21685.000000,47057.000000,48301.000000,26339.000000
21714.000000,47031.000000,48323.000000,26346.000000
21688.000000,47035.000000,48297.000000,26362.000000
21685.000000,47043.000000,48306.000000,26353.000000
21716.000000,47047.000000,48325.000000,26350.000000
21735.000000,47073.000000,48325.000000,26352.000000
21739.000000,47077.000000,48323.000000,26345.000000
21730.000000,47123.000000,48306.000000,26341.000000
21783.000000,47109.000000,48347.000000,26385.000000
21786.000000,47143.000000,48368.000000,26377.000000
21790.000000,47147.000000,48401.000000,26374.000000
21858.000000,47170.000000,48399.000000,26402.000000
21850.000000,47201.000000,48417.000000,26411.000000
21895.000000,47246.000000,48428.000000,26429.000000
21943.000000,47316.000000,48444.000000,26416.000000
21958.000000,47316.000000,48503.000000,26436.000000
22001.000000,47354.000000,48505.000000,26419.000000
22029.000000,47385.000000,48516.000000,26437.000000
22072.000000,47452.000000,48577.000000,26456.000000
22099.000000,47501.000000,48607.000000,26461.000000
22165.000000,47533.000000,48597.000000,26484.000000
22228.000000,47607.000000,48653.000000,26483.000000
22261.000000,47650.000000,48674.000000,26483.000000
22301.000000,47697.000000,48716.000000,26505.000000
22403.000000,47781.000000,48734.000000,26537.000000
22401.000000,47854.000000,48775.000000,26571.000000
22490.000000,47901.000000,48833.000000,26581.000000
22616.000000,47984.000000,48880.000000,26607.000000
22644.000000,48067.000000,48914.000000,26616.000000
22741.000000,48160.000000,48941.000000,26654.000000
22770.000000,48262.000000,49005.000000,26658.000000
22919.000000,48390.000000,49077.000000,26719.000000
22968.000000,48462.000000,49146.000000,26712.000000
23090.000000,48578.000000,49196.000000,26750.000000
23183.000000,48701.000000,49286.000000,26779.000000
23300.000000,48841.000000,49369.000000,26823.000000
23419.000000,48980.000000,49405.000000,26872.000000
23518.000000,49118.000000,49511.000000,26886.000000
23641.000000,49240.000000,49605.000000,26942.000000
23749.000000,49379.000000,49641.000000,26953.000000
23759.000000,49410.000000,49703.000000,27013.000000
23837.000000,49497.000000,49740.000000,27028.000000
23865.000000,49514.000000,49752.000000,27043.000000
23878.000000,49530.000000,49769.000000,27054.000000
23849.000000,49558.000000,49751.000000,27038.000000
23859.000000,49494.000000,49776.000000,27046.000000
23820.000000,49518.000000,49778.000000,27048.000000
23838.000000,49478.000000,49732.000000,27018.000000
23811.000000,49465.000000,49715.000000,27049.000000
23763.000000,49412.000000,49718.000000,27001.000000
23800.000000,49400.000000,49700.000000,27024.000000
23776.000000,49400.000000,49696.000000,27020.000000
23719.000000,49371.000000,49713.000000,27013.000000
23715.000000,49387.000000,49658.000000,26981.000000
23701.000000,49324.000000,49660.000000,26984.000000
23706.000000,49306.000000,49632.000000,27000.000000
23622.000000,49318.000000,49676.000000,26992.000000
23664.000000,49255.000000,49595.000000,26981.000000
23613.000000,49267.000000,49595.000000,26974.000000
23618.000000,49229.000000,49568.000000,26971.000000
23597.000000,49189.000000,49585.000000,26928.000000
23586.000000,49199.000000,49575.000000,26950.000000
23569.000000,49192.000000,49541.000000,26933.000000
23552.000000,49174.000000,49550.000000,26942.000000
23539.000000,49147.000000,49535.000000,26944.000000
23500.000000,49129.000000,49509.000000,26956.000000
23465.000000,49086.000000,49517.000000,26934.000000
23459.000000,49107.000000,49548.000000,26910.000000
23472.000000,49048.000000,49477.000000,26910.000000
23456.000000,49047.000000,49488.000000,26883.000000
23431.000000,49023.000000,49496.000000,26921.000000
23440.000000,48982.000000,49447.000000,26893.000000
23384.000000,48983.000000,49434.000000,26894.000000
23418.000000,48931.000000,49442.000000,26890.000000
23352.000000,48957.000000,49387.000000,26895.000000
23341.000000,48927.000000,49397.000000,26895.000000
23333.000000,48904.000000,49373.000000,26858.000000
23284.000000,48863.000000,49394.000000,26867.000000
23283.000000,48854.000000,49354.000000,26867.000000
23255.000000,48798.000000,49345.000000,26840.000000
23246.000000,48807.000000,49312.000000,26853.000000
23216.000000,48777.000000,49320.000000,26823.000000
23190.000000,48743.000000,49316.000000,26839.000000
23185.000000,48727.000000,49298.000000,26820.000000
23163.000000,48690.000000,49256.000000,26833.000000
23140.000000,48669.000000,49232.000000,26808.000000
23113.000000,48627.000000,49270.000000,26790.000000
23105.000000,48619.000000,49223.000000,26803.000000
23048.000000,48634.000000,49220.000000,26802.000000
23077.000000,48563.000000,49204.000000,26795.000000
23014.000000,48536.000000,49153.000000,26794.000000
22992.000000,48478.000000,49202.000000,26758.000000
22989.000000,48474.000000,49162.000000,26756.000000
22934.000000,48442.000000,49146.000000,26772.000000
22937.000000,48419.000000,49107.000000,26751.000000
22910.000000,48409.000000,49121.000000,26734.000000
22898.000000,48379.000000,49066.000000,26741.000000
22830.000000,48399.000000,49052.000000,26730.000000
22833.000000,48328.000000,49053.000000,26698.000000
22806.000000,48313.000000,49033.000000,26720.000000
22762.000000,48249.000000,49025.000000,26709.000000
22750.000000,48272.000000,49020.000000,26684.000000
22722.000000,48249.000000,49004.000000,26693.000000
22714.000000,48172.000000,48977.000000,26692.000000
22687.000000,48174.000000,48961.000000,26677.000000
22662.000000,48127.000000,48950.000000,26661.000000
22624.000000,48141.000000,48917.000000,26650.000000
22616.000000,48081.000000,48913.000000,26627.000000
22592.000000,48049.000000,48873.000000,26635.000000
22543.000000,48027.000000,48889.000000,26654.000000
22552.000000,48016.000000,48828.000000,26618.000000
22459.000000,47934.000000,48851.000000,26630.000000
22477.000000,47924.000000,48851.000000,26616.000000
22433.000000,47872.000000,48825.000000,26620.000000
22434.000000,47850.000000,48802.000000,26595.000000
22401.000000,47842.000000,48780.000000,26579.000000
22400.000000,47821.000000,48759.000000,26586.000000
22343.000000,47810.000000,48727.000000,26561.000000
22327.000000,47771.000000,48718.000000,26587.000000
22302.000000,47774.000000,48678.000000,26557.000000
22317.000000,47687.000000,48669.000000,26526.000000
22252.000000,47689.000000,48695.000000,26520.000000
22229.000000,47643.000000,48673.000000,26528.000000
22243.000000,47636.000000,48659.000000,26513.000000
22186.000000,47645.000000,48620.000000,26527.000000
22184.000000,47602.000000,48610.000000,26497.000000
22169.000000,47572.000000,48635.000000,26505.000000
22174.000000,47579.000000,48599.000000,26482.000000
22153.000000,47505.000000,48588.000000,26504.000000
22141.000000,47530.000000,48585.000000,26499.000000
22128.000000,47536.000000,48626.000000,26479.000000
22113.000000,47501.000000,48539.000000,26484.000000
22060.000000,47502.000000,48585.000000,26480.000000
22092.000000,47474.000000,48547.000000,26461.000000
22068.000000,47462.000000,48524.000000,26478.000000
22052.000000,47443.000000,48522.000000,26465.000000
22043.000000,47423.000000,48501.000000,26441.000000
22007.000000,47374.000000,48505.000000,26447.000000
21992.000000,47348.000000,48474.000000,26466.000000
21943.000000,47306.000000,48459.000000,26433.000000
21964.000000,47288.000000,48448.000000,26435.000000
21908.000000,47271.000000,48418.000000,26444.000000
21864.000000,47226.000000,48394.000000,26414.000000
21810.000000,47176.000000,48379.000000,26386.000000
21787.000000,47107.000000,48338.000000,26388.000000
21760.000000,47090.000000,48294.000000,26352.000000
21709.000000,47043.000000,48314.000000,26361.000000
21698.000000,46977.000000,48286.000000,26350.000000
21632.000000,46963.000000,48274.000000,26338.000000
21642.000000,46908.000000,48233.000000,26352.000000
21592.000000,46907.000000,48201.000000,26358.000000
21593.000000,46842.000000,48205.000000,26310.000000
21561.000000,46854.000000,48200.000000,26319.000000
21576.000000,46841.000000,48207.000000,26330.000000
21559.000000,46849.000000,48184.000000,26319.000000
21546.000000,46836.000000,48200.000000,26309.000000
21542.000000,46837.000000,48191.000000,26326.000000
21564.000000,46841.000000,48179.000000,26290.000000
21555.000000,46857.000000,48205.000000,26299.000000
21578.000000,46876.000000,48199.000000,26310.000000
