660nm,730nm,850nm,940nm
10374.000000,31656.000000,39638.000000,20795.000000
10429.000000,31646.000000,39656.000000,20816.000000
10388.000000,31684.000000,39664.000000,20789.000000
10436.000000,31681.000000,39706.000000,20793.000000
10417.000000,31708.000000,39691.000000,20816.000000
10497.000000,31735.000000,39703.000000,20792.000000
10516.000000,31767.000000,39693.000000,20810.000000
10494.000000,31769.000000,39739.000000,20823.000000
10608.000000,31877.000000,39788.000000,20825.000000
10634.000000,31916.000000,39806.000000,20831.000000
10690.000000,31917.000000,39862.000000,20849.000000
10713.000000,31931.000000,39835.000000,20857.000000
10734.000000,32019.000000,39871.000000,20867.000000
10828.000000,32113.000000,39917.000000,20932.000000
10867.000000,32118.000000,39934.000000,20920.000000
10894.000000,32198.000000,39978.000000,20878.000000
10885.000000,32214.000000,39989.000000,20934.000000
10965.000000,32287.000000,40035.000000,20948.000000
11017.000000,32351.000000,40064.000000,20937.000000
11067.000000,32358.000000,40078.000000,20966.000000
11103.000000,32390.000000,40110.000000,20972.000000
11108.000000,32453.000000,40092.000000,20978.000000
11251.000000,32598.000000,40199.000000,21048.000000
11311.000000,32698.000000,40255.000000,21047.000000
11404.000000,32803.000000,40323.000000,21036.000000
11441.000000,32835.000000,40346.000000,21092.000000
11620.000000,33025.000000,40453.000000,21153.000000
11625.000000,33057.000000,40480.000000,21160.000000
11662.000000,33044.000000,40465.000000,21185.000000
11677.000000,33062.000000,40496.000000,21201.000000
11699.000000,33083.000000,40496.000000,21184.000000
11668.000000,33094.000000,40492.000000,21199.000000
11678.000000,33094.000000,40493.000000,21194.000000
11668.000000,33104.000000,40486.000000,21162.000000
11640.000000,33087.000000,40513.000000,21193.000000
11638.000000,33064.000000,40488.000000,21165.000000
11621.000000,33033.000000,40463.000000,21205.000000
11613.000000,33055.000000,40478.000000,21185.000000
11581.000000,33063.000000,40451.000000,21171.000000
11569.000000,33046.000000,40466.000000,21158.000000
11534.000000,32962.000000,40426.000000,21162.000000
11537.000000,32966.000000,40392.000000,21179.000000
11530.000000,32948.000000,40393.000000,21150.000000
11500.000000,32894.000000,40397.000000,21170.000000
11527.000000,32895.000000,40380.000000,21134.000000
11514.000000,32869.000000,40347.000000,21131.000000
11482.000000,32814.000000,40357.000000,21180.000000
11425.000000,32788.000000,40349.000000,21135.000000
11451.000000,32834.000000,40342.000000,21158.000000
11419.000000,32802.000000,40346.000000,21122.000000
11400.000000,32788.000000,40310.000000,21125.000000
11441.000000,32779.000000,40314.000000,21129.000000
11396.000000,32789.000000,40315.000000,21102.000000
11345.000000,32769.000000,40297.000000,21160.000000
11376.000000,32744.000000,40270.000000,21080.000000
11388.000000,32734.000000,40274.000000,21102.000000
11351.000000,32738.000000,40251.000000,21084.000000
11309.000000,32693.000000,40260.000000,21091.000000
11302.000000,32658.000000,40266.000000,21097.000000
11243.000000,32628.000000,40209.000000,21070.000000
11258.000000,32592.000000,40244.000000,21079.000000
11258.000000,32598.000000,40191.000000,21093.000000
11252.000000,32557.000000,40215.000000,21106.000000
11172.000000,32497.000000,40137.000000,21044.000000
11141.000000,32486.000000,40129.000000,21026.000000
11131.000000,32478.000000,40125.000000,21077.000000
11088.000000,32449.000000,40143.000000,21014.000000
11082.000000,32430.000000,40119.000000,21043.000000
11133.000000,32455.000000,40112.000000,21033.000000
11065.000000,32401.000000,40099.000000,21022.000000
11060.000000,32392.000000,40067.000000,21036.000000
11010.000000,32349.000000,40025.000000,21018.000000
11020.000000,32314.000000,40045.000000,21034.000000
11001.000000,32326.000000,40057.000000,21020.000000
10955.000000,32335.000000,40027.000000,20984.000000
10959.000000,32299.000000,40035.000000,20979.000000
10928.000000,32220.000000,39999.000000,20955.000000
10912.000000,32213.000000,39955.000000,20980.000000
10894.000000,32162.000000,40010.000000,20989.000000
10885.000000,32168.000000,39995.000000,20978.000000
10876.000000,32183.000000,39961.000000,20969.000000
10823.000000,32148.000000,39924.000000,20969.000000
10860.000000,32164.000000,39953.000000,20967.000000
10837.000000,32129.000000,39936.000000,20944.000000
10756.000000,32036.000000,39919.000000,20967.000000
10792.000000,32053.000000,39887.000000,20956.000000
10777.000000,32023.000000,39861.000000,20938.000000
10752.000000,32042.000000,39864.000000,20890.000000
10730.000000,32022.000000,39878.000000,20903.000000
10714.000000,32010.000000,39845.000000,20930.000000
10685.000000,31930.000000,39800.000000,20904.000000
10644.000000,31917.000000,39776.000000,20889.000000
10643.000000,31898.000000,39808.000000,20894.000000
10633.000000,31862.000000,39776.000000,20911.000000
10604.000000,31843.000000,39764.000000,20872.000000
10521.000000,31762.000000,39704.000000,20859.000000
10487.000000,31769.000000,39713.000000,20851.000000
10488.000000,31737.000000,39711.000000,20830.000000
10458.000000,31738.000000,39692.000000,20836.000000
10484.000000,31660.000000,39702.000000,20841.000000
10446.000000,31692.000000,39684.000000,20830.000000
10443.000000,31708.000000,39643.000000,20838.000000
10466.000000,31691.000000,39652.000000,20856.000000
10447.000000,31693.000000,39671.000000,20840.000000
10459.000000,31695.000000,39651.000000,20822.000000
10490.000000,31664.000000,39652.000000,20827.000000
10494.000000,31712.000000,39677.000000,20817.000000
10633.000000,31859.000000,39787.000000,20852.000000
10664.000000,31904.000000,39795.000000,20882.000000
10688.000000,31946.000000,39799.000000,20897.000000
10699.000000,31953.000000,39830.000000,20906.000000
10743.000000,32002.000000,39831.000000,20905.000000
10767.000000,32032.000000,39903.000000,20903.000000
10788.000000,32071.000000,39887.000000,20925.000000
10819.000000,32111.000000,39927.000000,20923.000000
10919.000000,32224.000000,39959.000000,20921.000000
10916.000000,32222.000000,39997.000000,20947.000000
10936.000000,32263.000000,40026.000000,20937.000000
10975.000000,32260.000000,40038.000000,20967.000000
11010.000000,32313.000000,40034.000000,20955.000000
11041.000000,32373.000000,40091.000000,20971.000000
11088.000000,32421.000000,40095.000000,21026.000000
11134.000000,32444.000000,40108.000000,21003.000000
11141.000000,32506.000000,40146.000000,20998.000000
11281.000000,32628.000000,40214.000000,21079.000000
11350.000000,32677.000000,40235.000000,21036.000000
11336.000000,32734.000000,40278.000000,21082.000000
11431.000000,32834.000000,40334.000000,21108.000000
11514.000000,32863.000000,40401.000000,21133.000000
11674.000000,33105.000000,40461.000000,21208.000000
11693.000000,33108.000000,40507.000000,21225.000000
11740.000000,33127.000000,40523.000000,21228.000000
11741.000000,33143.000000,40512.000000,21244.000000
11735.000000,33186.000000,40503.000000,21242.000000
11759.000000,33139.000000,40509.000000,21257.000000
11724.000000,33137.000000,40490.000000,21242.000000
11694.000000,33131.000000,40512.000000,21235.000000
11703.000000,33090.000000,40511.000000,21236.000000
11680.000000,33071.000000,40510.000000,21216.000000
11654.000000,33052.000000,40464.000000,21228.000000
11658.000000,33047.000000,40438.000000,21242.000000
11670.000000,33017.000000,40463.000000,21231.000000
11654.000000,33027.000000,40460.000000,21210.000000
11665.000000,33062.000000,40437.000000,21220.000000
11619.000000,33044.000000,40437.000000,21217.000000
11635.000000,33022.000000,40429.000000,21209.000000
11567.000000,33006.000000,40452.000000,21207.000000
11576.000000,33013.000000,40443.000000,21204.000000
11614.000000,32969.000000,40437.000000,21228.000000
11612.000000,32958.000000,40409.000000,21189.000000
11596.000000,32931.000000,40401.000000,21163.000000
11554.000000,32975.000000,40380.000000,21194.000000
11520.000000,32947.000000,40423.000000,21169.000000
11541.000000,32934.000000,40403.000000,21189.000000
11516.000000,32916.000000,40380.000000,21202.000000
11468.000000,32859.000000,40403.000000,21149.000000
11462.000000,32870.000000,40360.000000,21151.000000
11479.000000,32847.000000,40339.000000,21157.000000
11448.000000,32863.000000,40342.000000,21164.000000
11416.000000,32842.000000,40341.000000,21154.000000
11428.000000,32794.000000,40355.000000,21146.000000
11388.000000,32794.000000,40297.000000,21154.000000
11364.000000,32769.000000,40283.000000,21159.000000
11356.000000,32756.000000,40238.000000,21179.000000
11377.000000,32723.000000,40282.000000,21124.000000
11345.000000,32751.000000,40278.000000,21144.000000
11325.000000,32705.000000,40250.000000,21123.000000
11296.000000,32709.000000,40259.000000,21142.000000
11285.000000,32677.000000,40275.000000,21080.000000
11294.000000,32634.000000,40242.000000,21093.000000
11295.000000,32650.000000,40223.000000,21087.000000
11237.000000,32633.000000,40196.000000,21099.000000
11193.000000,32581.000000,40183.000000,21095.000000
11215.000000,32595.000000,40196.000000,21083.000000
11190.000000,32566.000000,40187.000000,21078.000000
11205.000000,32515.000000,40191.000000,21095.000000
11114.000000,32499.000000,40155.000000,21072.000000
11115.000000,32475.000000,40134.000000,21060.000000
11145.000000,32478.000000,40137.000000,21086.000000
11133.000000,32462.000000,40115.000000,21052.000000
11105.000000,32435.000000,40117.000000,21065.000000
11083.000000,32395.000000,40113.000000,21035.000000
11069.000000,32430.000000,40111.000000,21064.000000
11039.000000,32408.000000,40098.000000,21037.000000
11039.000000,32404.000000,40096.000000,21008.000000
11068.000000,32352.000000,40114.000000,21022.000000
10975.000000,32327.000000,40076.000000,21003.000000
10997.000000,32331.000000,40017.000000,21016.000000
10974.000000,32284.000000,40060.000000,20993.000000
10952.000000,32263.000000,40007.000000,21024.000000
10938.000000,32212.000000,40001.000000,20991.000000
10907.000000,32214.000000,40013.000000,20988.000000
10836.000000,32238.000000,39996.000000,21013.000000
10872.000000,32150.000000,39970.000000,20935.000000
10811.000000,32131.000000,39941.000000,20966.000000
10784.000000,32108.000000,39914.000000,20972.000000
10755.000000,32091.000000,39896.000000,20948.000000
10766.000000,32057.000000,39863.000000,20959.000000
10672.000000,31955.000000,39870.000000,20943.000000
10693.000000,31954.000000,39851.000000,20919.000000
10638.000000,31975.000000,39844.000000,20917.000000
10626.000000,31999.000000,39831.000000,20949.000000
10629.000000,31952.000000,39822.000000,20914.000000
10676.000000,31953.000000,39829.000000,20921.000000
10667.000000,31948.000000,39825.000000,20879.000000
10647.000000,31980.000000,39862.000000,20911.000000
10672.000000,31957.000000,39847.000000,20912.000000
10686.000000,32013.000000,39846.000000,20899.000000
10701.000000,32010.000000,39862.000000,20910.000000
10736.000000,32022.000000,39875.000000,20909.000000
10749.000000,32041.000000,39905.000000,20896.000000
10726.000000,32087.000000,39903.000000,20928.000000
10823.000000,32153.000000,39933.000000,20935.000000
10776.000000,32146.000000,39903.000000,20981.000000
10837.000000,32153.000000,39954.000000,20949.000000
10838.000000,32180.000000,39967.000000,20951.000000
10885.000000,32270.000000,40006.000000,20969.000000
10937.000000,32310.000000,40023.000000,20970.000000
10945.000000,32355.000000,40071.000000,20976.000000
11021.000000,32336.000000,40077.000000,21010.000000
11035.000000,32401.000000,40084.000000,21020.000000
11050.000000,32414.000000,40079.000000,21025.000000
11108.000000,32476.000000,40115.000000,21050.000000
11148.000000,32535.000000,40169.000000,21033.000000
11191.000000,32577.000000,40201.000000,21062.000000
11195.000000,32608.000000,40212.000000,21063.000000
11290.000000,32657.000000,40218.000000,21081.000000
11456.000000,32901.000000,40407.000000,21118.000000
11542.000000,32981.000000,40388.000000,21176.000000
11580.000000,33035.000000,40476.000000,21177.000000
11632.000000,33122.000000,40474.000000,21195.000000
11673.000000,33154.000000,40532.000000,21252.000000
11691.000000,33175.000000,40527.000000,21231.000000
11748.000000,33223.000000,40551.000000,21247.000000
11744.000000,33213.000000,40605.000000,21282.000000
11716.000000,33235.000000,40540.000000,21264.000000
11685.000000,33216.000000,40526.000000,21261.000000
11718.000000,33157.000000,40536.000000,21268.000000
11648.000000,33137.000000,40529.000000,21265.000000
11661.000000,33072.000000,40510.000000,21263.000000
11682.000000,33097.000000,40465.000000,21290.000000
11673.000000,33108.000000,40441.000000,21260.000000
11648.000000,33057.000000,40473.000000,21234.000000
11629.000000,33082.000000,40472.000000,21240.000000
11607.000000,33081.000000,40452.000000,21248.000000
11622.000000,33011.000000,40448.000000,21262.000000
11599.000000,33046.000000,40460.000000,21245.000000
11606.000000,33063.000000,40457.000000,21227.000000
11565.000000,33068.000000,40451.000000,21241.000000
11614.000000,33025.000000,40442.000000,21238.000000
11549.000000,32985.000000,40432.000000,21232.000000
11564.000000,32993.000000,40422.000000,21227.000000
11559.000000,32974.000000,40424.000000,21202.000000
11553.000000,32948.000000,40394.000000,21197.000000
11506.000000,32965.000000,40417.000000,21238.000000
11507.000000,32937.000000,40392.000000,21213.000000
11478.000000,32945.000000,40365.000000,21228.000000
11465.000000,32895.000000,40389.000000,21213.000000
11444.000000,32860.000000,40361.000000,21157.000000
11410.000000,32835.000000,40356.000000,21209.000000
11451.000000,32850.000000,40330.000000,21173.000000
11419.000000,32859.000000,40309.000000,21182.000000
11387.000000,32812.000000,40325.000000,21177.000000
11382.000000,32733.000000,40296.000000,21174.000000
11363.000000,32784.000000,40268.000000,21176.000000
11318.000000,32739.000000,40286.000000,21173.000000
11293.000000,32701.000000,40255.000000,21148.000000
11267.000000,32707.000000,40238.000000,21140.000000
11306.000000,32695.000000,40242.000000,21145.000000
11296.000000,32652.000000,40221.000000,21148.000000
11280.000000,32647.000000,40200.000000,21116.000000
11248.000000,32530.000000,40212.000000,21099.000000
11189.000000,32611.000000,40203.000000,21124.000000
11196.000000,32577.000000,40180.000000,21140.000000
11156.000000,32535.000000,40162.000000,21096.000000
11171.000000,32527.000000,40141.000000,21113.000000
11178.000000,32526.000000,40164.000000,21117.000000
11160.000000,32551.000000,40168.000000,21100.000000
11121.000000,32503.000000,40144.000000,21084.000000
11137.000000,32461.000000,40127.000000,21101.000000
11081.000000,32450.000000,40096.000000,21064.000000
11056.000000,32429.000000,40115.000000,21076.000000
11077.000000,32403.000000,40089.000000,21078.000000
10986.000000,32378.000000,40057.000000,21064.000000
11016.000000,32370.000000,40058.000000,21079.000000
10995.000000,32377.000000,40059.000000,21073.000000
11031.000000,32354.000000,40061.000000,21046.000000
10965.000000,32343.000000,40025.000000,21058.000000
10972.000000,32288.000000,40037.000000,21015.000000
10918.000000,32313.000000,39988.000000,21045.000000
10921.000000,32207.000000,39952.000000,21029.000000
10890.000000,32223.000000,39963.000000,21040.000000
10820.000000,32217.000000,39944.000000,21003.000000
10799.000000,32189.000000,39941.000000,21007.000000
10805.000000,32146.000000,39948.000000,21027.000000
10803.000000,32102.000000,39909.000000,20996.000000
10744.000000,32057.000000,39881.000000,20983.000000
10727.000000,31993.000000,39851.000000,20978.000000
10698.000000,31999.000000,39843.000000,20983.000000
10653.000000,31995.000000,39824.000000,20967.000000
10668.000000,31963.000000,39849.000000,20929.000000
10678.000000,31936.000000,39817.000000,20978.000000
10660.000000,31968.000000,39801.000000,20982.000000
10644.000000,31962.000000,39818.000000,20945.000000
10653.000000,31947.000000,39821.000000,20955.000000
10669.000000,31929.000000,39846.000000,20920.000000
10634.000000,31962.000000,39825.000000,20931.000000
10655.000000,31984.000000,39863.000000,20924.000000
10689.000000,31963.000000,39830.000000,20962.000000
10719.000000,32092.000000,39881.000000,20968.000000
10749.000000,32093.000000,39880.000000,20971.000000
10770.000000,32114.000000,39878.000000,20994.000000
10749.000000,32108.000000,39919.000000,20977.000000
10797.000000,32103.000000,39932.000000,20991.000000
10818.000000,32131.000000,39918.000000,20985.000000
10817.000000,32158.000000,39953.000000,21000.000000
10827.000000,32176.000000,39955.000000,20975.000000
10896.000000,32225.000000,39977.000000,21013.000000
10889.000000,32236.000000,39994.000000,21000.000000
10976.000000,32307.000000,40018.000000,21051.000000
11003.000000,32358.000000,40056.000000,21041.000000
10974.000000,32407.000000,40055.000000,21062.000000
11013.000000,32393.000000,40070.000000,21053.000000
11072.000000,32419.000000,40096.000000,21035.000000
11118.000000,32542.000000,40159.000000,21102.000000
11142.000000,32570.000000,40183.000000,21099.000000
11221.000000,32596.000000,40210.000000,21116.000000
11267.000000,32661.000000,40231.000000,21131.000000
11289.000000,32694.000000,40284.000000,21137.000000
11504.000000,32929.000000,40389.000000,21209.000000
11550.000000,33030.000000,40421.000000,21229.000000
11578.000000,33055.000000,40490.000000,21243.000000
11613.000000,33076.000000,40485.000000,21250.000000
11667.000000,33113.000000,40523.000000,21293.000000
11715.000000,33148.000000,40516.000000,21295.000000
11692.000000,33174.000000,40497.000000,21300.000000
11727.000000,33144.000000,40536.000000,21312.000000
11662.000000,33130.000000,40523.000000,21331.000000
11712.000000,33120.000000,40503.000000,21326.000000
11667.000000,33113.000000,40487.000000,21316.000000
11636.000000,33123.000000,40503.000000,21292.000000
11662.000000,33122.000000,40481.000000,21301.000000
11642.000000,33119.000000,40501.000000,21278.000000
11617.000000,33129.000000,40495.000000,21302.000000
11596.000000,33031.000000,40460.000000,21249.000000
11625.000000,33066.000000,40454.000000,21267.000000
11614.000000,33032.000000,40470.000000,21289.000000
11590.000000,33032.000000,40476.000000,21285.000000
11569.000000,33037.000000,40431.000000,21321.000000
11565.000000,33057.000000,40433.000000,21283.000000
11503.000000,33029.000000,40430.000000,21259.000000
11519.000000,33002.000000,40442.000000,21251.000000
11537.000000,32972.000000,40425.000000,21260.000000
11522.000000,32990.000000,40408.000000,21266.000000
11503.000000,32950.000000,40384.000000,21257.000000
11518.000000,32927.000000,40388.000000,21242.000000
11454.000000,32900.000000,40366.000000,21239.000000
11430.000000,32917.000000,40319.000000,21249.000000
11431.000000,32873.000000,40345.000000,21223.000000
11414.000000,32899.000000,40346.000000,21222.000000
11434.000000,32830.000000,40289.000000,21203.000000
11416.000000,32816.000000,40334.000000,21205.000000
11383.000000,32818.000000,40330.000000,21226.000000
11386.000000,32797.000000,40318.000000,21224.000000
11408.000000,32800.000000,40302.000000,21234.000000
11363.000000,32785.000000,40297.000000,21224.000000
11324.000000,32776.000000,40284.000000,21220.000000
11325.000000,32772.000000,40292.000000,21224.000000
11312.000000,32708.000000,40263.000000,21188.000000
11235.000000,32684.000000,40244.000000,21191.000000
11259.000000,32674.000000,40243.000000,21184.000000
11204.000000,32576.000000,40198.000000,21191.000000
11172.000000,32597.000000,40174.000000,21143.000000
11180.000000,32614.000000,40137.000000,21178.000000
11119.000000,32520.000000,40167.000000,21137.000000
11094.000000,32507.000000,40147.000000,21125.000000
11064.000000,32507.000000,40123.000000,21130.000000
11101.000000,32465.000000,40149.000000,21140.000000
11078.000000,32462.000000,40090.000000,21128.000000
11087.000000,32461.000000,40087.000000,21123.000000
11001.000000,32457.000000,40104.000000,21086.000000
11044.000000,32387.000000,40064.000000,21081.000000
11050.000000,32366.000000,40072.000000,21099.000000
11015.000000,32386.000000,40055.000000,21089.000000
10980.000000,32324.000000,40012.000000,21073.000000
10956.000000,32327.000000,40027.000000,21075.000000
10945.000000,32280.000000,40012.000000,21095.000000
10908.000000,32242.000000,39988.000000,21085.000000
10854.000000,32221.000000,39973.000000,21089.000000
10840.000000,32222.000000,39951.000000,21084.000000
10861.000000,32209.000000,39956.000000,21066.000000
10793.000000,32164.000000,39951.000000,21046.000000
10818.000000,32119.000000,39925.000000,21054.000000
10800.000000,32074.000000,39900.000000,21046.000000
10779.000000,32117.000000,39884.000000,21040.000000
10754.000000,32064.000000,39882.000000,21026.000000
10750.000000,32025.000000,39897.000000,21012.000000
10718.000000,32011.000000,39863.000000,21018.000000
10727.000000,32022.000000,39840.000000,21020.000000
10670.000000,31966.000000,39837.000000,21011.000000
10642.000000,31978.000000,39831.000000,20986.000000
10581.000000,31886.000000,39803.000000,20982.000000
10575.000000,31882.000000,39764.000000,20971.000000
10493.000000,31828.000000,39784.000000,20952.000000
10532.000000,31807.000000,39728.000000,20959.000000
10502.000000,31812.000000,39737.000000,20964.000000
10506.000000,31839.000000,39722.000000,20942.000000
10510.000000,31799.000000,39749.000000,20948.000000
10544.000000,31782.000000,39714.000000,20960.000000
10539.000000,31821.000000,39758.000000,20942.000000
10574.000000,31906.000000,39752.000000,20984.000000
10560.000000,31897.000000,39775.000000,20980.000000
10571.000000,31945.000000,39780.000000,20973.000000
10625.000000,31918.000000,39802.000000,20991.000000
10705.000000,31998.000000,39866.000000,20985.000000
10713.000000,32037.000000,39848.000000,21008.000000
10707.000000,32084.000000,39871.000000,21032.000000
10762.000000,32095.000000,39892.000000,21006.000000
10769.000000,32125.000000,39921.000000,21027.000000
10813.000000,32141.000000,39917.000000,21034.000000
10848.000000,32184.000000,39957.000000,21010.000000
10852.000000,32279.000000,39944.000000,21031.000000
10906.000000,32293.000000,39986.000000,21031.000000
10893.000000,32266.000000,40008.000000,21043.000000
10932.000000,32273.000000,40035.000000,21065.000000
10966.000000,32334.000000,40081.000000,21089.000000
11007.000000,32383.000000,40070.000000,21091.000000
11031.000000,32452.000000,40057.000000,21109.000000
11052.000000,32491.000000,40105.000000,21134.000000
11086.000000,32519.000000,40142.000000,21118.000000
11152.000000,32550.000000,40165.000000,21152.000000
11218.000000,32633.000000,40185.000000,21161.000000
11285.000000,32666.000000,40254.000000,21179.000000
11365.000000,32764.000000,40279.000000,21216.000000
11534.000000,32968.000000,40405.000000,21266.000000
11554.000000,33011.000000,40421.000000,21278.000000
11620.000000,33070.000000,40477.000000,21335.000000
11663.000000,33078.000000,40479.000000,21328.000000
11625.000000,33121.000000,40503.000000,21323.000000
11626.000000,33124.000000,40474.000000,21329.000000
11615.000000,33096.000000,40492.000000,21303.000000
11581.000000,33074.000000,40489.000000,21297.000000
11612.000000,33062.000000,40480.000000,21308.000000
11641.000000,33051.000000,40445.000000,21304.000000
11531.000000,33082.000000,40446.000000,21303.000000
11561.000000,33051.000000,40437.000000,21331.000000
11557.000000,33070.000000,40432.000000,21321.000000
11569.000000,33005.000000,40468.000000,21310.000000
11548.000000,32987.000000,40443.000000,21298.000000
11491.000000,32985.000000,40404.000000,21301.000000
11500.000000,32973.000000,40380.000000,21287.000000
11488.000000,32943.000000,40377.000000,21287.000000
11455.000000,32952.000000,40398.000000,21287.000000
11469.000000,32931.000000,40394.000000,21285.000000
11464.000000,32889.000000,40407.000000,21286.000000
11441.000000,32924.000000,40357.000000,21275.000000
11435.000000,32878.000000,40382.000000,21265.000000
11402.000000,32882.000000,40358.000000,21268.000000
11403.000000,32881.000000,40341.000000,21258.000000
11407.000000,32855.000000,40367.000000,21254.000000
11429.000000,32857.000000,40344.000000,21263.000000
11369.000000,32824.000000,40327.000000,21239.000000
11353.000000,32841.000000,40323.000000,21244.000000
11355.000000,32818.000000,40308.000000,21267.000000
11298.000000,32788.000000,40315.000000,21227.000000
11275.000000,32773.000000,40298.000000,21241.000000
11330.000000,32748.000000,40283.000000,21262.000000
11317.000000,32727.000000,40273.000000,21234.000000
11261.000000,32683.000000,40246.000000,21224.000000
11247.000000,32663.000000,40232.000000,21201.000000
11221.000000,32679.000000,40235.000000,21192.000000
11192.000000,32676.000000,40235.000000,21193.000000
11193.000000,32604.000000,40193.000000,21184.000000
11127.000000,32625.000000,40182.000000,21182.000000
11163.000000,32569.000000,40180.000000,21199.000000
11114.000000,32479.000000,40121.000000,21194.000000
11089.000000,32495.000000,40154.000000,21150.000000
11049.000000,32501.000000,40111.000000,21147.000000
11067.000000,32437.000000,40118.000000,21155.000000
11080.000000,32405.000000,40095.000000,21142.000000
11044.000000,32424.000000,40071.000000,21113.000000
10989.000000,32370.000000,40040.000000,21135.000000
10992.000000,32341.000000,40053.000000,21130.000000
10936.000000,32363.000000,40035.000000,21129.000000
10916.000000,32363.000000,40065.000000,21105.000000
10859.000000,32284.000000,40032.000000,21112.000000
10870.000000,32270.000000,40006.000000,21098.000000
10891.000000,32255.000000,40001.000000,21071.000000
10836.000000,32267.000000,40003.000000,21071.000000
10803.000000,32231.000000,39981.000000,21122.000000
10774.000000,32217.000000,39949.000000,21080.000000
10775.000000,32182.000000,39964.000000,21056.000000
10764.000000,32159.000000,39930.000000,21091.000000
10760.000000,32132.000000,39918.000000,21079.000000
10653.000000,32065.000000,39885.000000,21025.000000
10672.000000,32002.000000,39864.000000,21044.000000
10638.000000,32023.000000,39850.000000,21041.000000
10637.000000,32050.000000,39835.000000,21020.000000
10604.000000,31996.000000,39815.000000,21027.000000
10587.000000,31922.000000,39796.000000,21006.000000
10555.000000,31887.000000,39787.000000,21023.000000
10513.000000,31929.000000,39779.000000,20992.000000
10521.000000,31877.000000,39771.000000,20971.000000
10485.000000,31794.000000,39700.000000,20984.000000
10442.000000,31787.000000,39707.000000,20953.000000
10419.000000,31779.000000,39702.000000,20965.000000
10409.000000,31772.000000,39724.000000,20961.000000
10456.000000,31729.000000,39717.000000,20964.000000
10401.000000,31729.000000,39703.000000,20957.000000
10413.000000,31791.000000,39698.000000,20958.000000
10442.000000,31846.000000,39715.000000,20977.000000
10407.000000,31830.000000,39768.000000,20973.000000
10473.000000,31872.000000,39740.000000,20961.000000
10497.000000,31849.000000,39744.000000,20938.000000
10554.000000,31905.000000,39771.000000,20983.000000
10577.000000,31955.000000,39777.000000,20981.000000
10550.000000,31994.000000,39781.000000,21009.000000
10576.000000,31963.000000,39854.000000,21003.000000
10676.000000,32028.000000,39860.000000,21005.000000
10666.000000,32070.000000,39872.000000,21044.000000
10693.000000,32100.000000,39903.000000,21043.000000
10732.000000,32100.000000,39879.000000,21039.000000
10738.000000,32120.000000,39903.000000,21026.000000
10713.000000,32154.000000,39948.000000,21035.000000
10754.000000,32173.000000,39940.000000,21039.000000
10767.000000,32199.000000,39926.000000,21048.000000
10864.000000,32283.000000,39999.000000,21063.000000
10916.000000,32344.000000,40017.000000,21073.000000
10925.000000,32403.000000,40035.000000,21094.000000
11002.000000,32480.000000,40089.000000,21101.000000
11194.000000,32630.000000,40217.000000,21144.000000
11226.000000,32767.000000,40262.000000,21216.000000
11312.000000,32781.000000,40311.000000,21225.000000
11350.000000,32881.000000,40339.000000,21220.000000
11402.000000,32933.000000,40396.000000,21242.000000
11515.000000,33051.000000,40435.000000,21313.000000
11497.000000,33049.000000,40466.000000,21310.000000
11501.000000,33050.000000,40408.000000,21289.000000
11512.000000,33007.000000,40438.000000,21303.000000
11498.000000,32935.000000,40413.000000,21289.000000
11466.000000,32961.000000,40368.000000,21292.000000
11424.000000,32918.000000,40337.000000,21274.000000
11422.000000,32903.000000,40347.000000,21277.000000
11375.000000,32838.000000,40337.000000,21290.000000
11408.000000,32857.000000,40316.000000,21273.000000
11374.000000,32870.000000,40327.000000,21288.000000
11333.000000,32884.000000,40345.000000,21280.000000
11362.000000,32847.000000,40343.000000,21269.000000
11284.000000,32816.000000,40318.000000,21269.000000
11310.000000,32800.000000,40321.000000,21256.000000
11297.000000,32780.000000,40310.000000,21288.000000
11275.000000,32770.000000,40291.000000,21257.000000
11270.000000,32724.000000,40272.000000,21248.000000
11261.000000,32700.000000,40265.000000,21240.000000
11252.000000,32729.000000,40260.000000,21231.000000
11199.000000,32717.000000,40251.000000,21237.000000
11219.000000,32721.000000,40236.000000,21233.000000
11215.000000,32671.000000,40194.000000,21270.000000
11160.000000,32674.000000,40201.000000,21233.000000
11205.000000,32609.000000,40202.000000,21207.000000
11122.000000,32605.000000,40193.000000,21225.000000
11068.000000,32566.000000,40149.000000,21206.000000
11112.000000,32575.000000,40154.000000,21208.000000
11132.000000,32528.000000,40137.000000,21181.000000
11052.000000,32546.000000,40130.000000,21193.000000
11075.000000,32484.000000,40132.000000,21218.000000
11015.000000,32460.000000,40099.000000,21163.000000
10995.000000,32438.000000,40061.000000,21188.000000
10999.000000,32414.000000,40060.000000,21183.000000
11001.000000,32397.000000,40057.000000,21152.000000
10924.000000,32353.000000,40026.000000,21147.000000
10925.000000,32350.000000,40044.000000,21169.000000
10919.000000,32346.000000,40014.000000,21119.000000
10888.000000,32322.000000,40007.000000,21125.000000
10877.000000,32276.000000,39994.000000,21163.000000
10765.000000,32211.000000,39950.000000,21124.000000
10807.000000,32158.000000,39936.000000,21123.000000
10772.000000,32168.000000,39924.000000,21116.000000
10781.000000,32170.000000,39930.000000,21096.000000
10759.000000,32147.000000,39937.000000,21091.000000
10734.000000,32125.000000,39906.000000,21092.000000
10669.000000,32076.000000,39855.000000,21050.000000
10635.000000,32054.000000,39857.000000,21051.000000
10675.000000,32003.000000,39845.000000,21092.000000
10630.000000,31996.000000,39799.000000,21074.000000
10622.000000,32005.000000,39800.000000,21067.000000
10576.000000,32004.000000,39816.000000,21053.000000
10507.000000,31854.000000,39749.000000,21047.000000
10543.000000,31828.000000,39752.000000,21040.000000
10505.000000,31840.000000,39752.000000,21038.000000
10490.000000,31853.000000,39714.000000,21023.000000
10487.000000,31832.000000,39752.000000,21023.000000
10414.000000,31791.000000,39684.000000,21023.000000
10390.000000,31725.000000,39650.000000,20976.000000
10342.000000,31706.000000,39670.000000,20986.000000
10316.000000,31701.000000,39661.000000,20968.000000
10263.000000,31637.000000,39583.000000,20912.000000
10194.000000,31603.000000,39578.000000,20950.000000
10204.000000,31552.000000,39591.000000,20923.000000
10182.000000,31506.000000,39556.000000,20898.000000
10138.000000,31509.000000,39557.000000,20890.000000
10082.000000,31446.000000,39488.000000,20897.000000
10066.000000,31409.000000,39503.000000,20879.000000
10089.000000,31409.000000,39498.000000,20877.000000
10105.000000,31381.000000,39487.000000,20885.000000
10099.000000,31411.000000,39495.000000,20892.000000
10149.000000,31453.000000,39498.000000,20908.000000
10161.000000,31497.000000,39505.000000,20889.000000
10225.000000,31482.000000,39562.000000,20910.000000
10199.000000,31544.000000,39568.000000,20899.000000
10297.000000,31626.000000,39621.000000,20914.000000
10324.000000,31665.000000,39642.000000,20936.000000
10328.000000,31704.000000,39648.000000,20957.000000
10356.000000,31730.000000,39667.000000,20951.000000
10395.000000,31746.000000,39671.000000,20961.000000
10456.000000,31848.000000,39734.000000,20955.000000
10490.000000,31835.000000,39721.000000,20972.000000
10533.000000,31854.000000,39745.000000,21003.000000
10538.000000,31887.000000,39751.000000,21003.000000
10607.000000,31963.000000,39828.000000,21032.000000
10659.000000,31991.000000,39827.000000,21012.000000
10690.000000,32031.000000,39843.000000,21035.000000
10704.000000,32102.000000,39905.000000,21052.000000
10738.000000,32123.000000,39889.000000,21058.000000
10981.000000,32431.000000,40067.000000,21132.000000
11092.000000,32520.000000,40119.000000,21159.000000
11140.000000,32570.000000,40150.000000,21177.000000
11171.000000,32687.000000,40201.000000,21210.000000
11228.000000,32725.000000,40228.000000,21227.000000
11291.000000,32742.000000,40283.000000,21227.000000
11343.000000,32849.000000,40276.000000,21255.000000
11354.000000,32879.000000,40317.000000,21264.000000
11380.000000,32867.000000,40326.000000,21291.000000
11341.000000,32844.000000,40317.000000,21279.000000
11314.000000,32781.000000,40281.000000,21269.000000
11297.000000,32800.000000,40256.000000,21288.000000
11297.000000,32731.000000,40263.000000,21258.000000
11275.000000,32740.000000,40270.000000,21239.000000
11241.000000,32737.000000,40278.000000,21263.000000
11272.000000,32729.000000,40244.000000,21268.000000
11210.000000,32716.000000,40234.000000,21253.000000
11193.000000,32689.000000,40250.000000,21245.000000
11224.000000,32686.000000,40207.000000,21238.000000
11215.000000,32667.000000,40191.000000,21232.000000
11175.000000,32645.000000,40202.000000,21228.000000
11164.000000,32660.000000,40175.000000,21233.000000
11148.000000,32609.000000,40196.000000,21221.000000
11124.000000,32628.000000,40158.000000,21247.000000
11133.000000,32599.000000,40143.000000,21226.000000
11098.000000,32585.000000,40158.000000,21209.000000
11105.000000,32551.000000,40154.000000,21189.000000
11065.000000,32512.000000,40128.000000,21223.000000
11042.000000,32520.000000,40131.000000,21220.000000
11027.000000,32521.000000,40077.000000,21208.000000
11038.000000,32458.000000,40122.000000,21202.000000
11012.000000,32451.000000,40070.000000,21187.000000
11036.000000,32462.000000,40092.000000,21178.000000
10949.000000,32425.000000,40056.000000,21185.000000
10933.000000,32387.000000,40031.000000,21169.000000
10930.000000,32342.000000,40013.000000,21164.000000
10887.000000,32327.000000,40010.000000,21129.000000
10883.000000,32327.000000,39998.000000,21157.000000
10866.000000,32320.000000,40008.000000,21139.000000
10847.000000,32255.000000,39996.000000,21152.000000
10841.000000,32218.000000,39969.000000,21139.000000
10803.000000,32259.000000,39940.000000,21126.000000
10751.000000,32232.000000,39937.000000,21136.000000
10739.000000,32161.000000,39922.000000,21087.000000
10741.000000,32116.000000,39918.000000,21079.000000
10723.000000,32094.000000,39877.000000,21099.000000
10684.000000,32093.000000,39886.000000,21073.000000
10694.000000,32100.000000,39846.000000,21071.000000
10651.000000,32073.000000,39879.000000,21090.000000
10686.000000,32058.000000,39859.000000,21087.000000
10585.000000,32011.000000,39816.000000,21076.000000
10575.000000,31972.000000,39807.000000,21065.000000
10594.000000,31945.000000,39786.000000,21054.000000
10571.000000,31961.000000,39783.000000,21045.000000
10540.000000,31866.000000,39745.000000,21033.000000
10442.000000,31865.000000,39729.000000,21022.000000
10441.000000,31830.000000,39721.000000,21013.000000
10438.000000,31819.000000,39711.000000,20994.000000
10439.000000,31794.000000,39686.000000,20995.000000
10404.000000,31790.000000,39711.000000,21005.000000
10372.000000,31778.000000,39718.000000,20979.000000
10359.000000,31735.000000,39665.000000,20990.000000
10344.000000,31735.000000,39642.000000,20979.000000
10298.000000,31596.000000,39609.000000,20958.000000
10286.000000,31579.000000,39608.000000,20938.000000
10170.000000,31513.000000,39528.000000,20970.000000
10150.000000,31483.000000,39512.000000,20911.000000
10153.000000,31467.000000,39511.000000,20909.000000
10085.000000,31336.000000,39458.000000,20904.000000
10011.000000,31373.000000,39443.000000,20886.000000
9993.000000,31337.000000,39451.000000,20855.000000
9998.000000,31334.000000,39415.000000,20871.000000
9975.000000,31288.000000,39426.000000,20866.000000
9937.000000,31292.000000,39409.000000,20875.000000
9936.000000,31288.000000,39426.000000,20847.000000
9981.000000,31311.000000,39432.000000,20857.000000
9976.000000,31326.000000,39391.000000,20861.000000
10052.000000,31318.000000,39463.000000,20889.000000
10049.000000,31368.000000,39457.000000,20830.000000
10052.000000,31404.000000,39461.000000,20870.000000
10074.000000,31414.000000,39481.000000,20864.000000
10164.000000,31454.000000,39547.000000,20865.000000
10162.000000,31517.000000,39554.000000,20903.000000
10197.000000,31505.000000,39555.000000,20925.000000
10233.000000,31550.000000,39544.000000,20894.000000
10245.000000,31596.000000,39567.000000,20935.000000
10278.000000,31608.000000,39629.000000,20902.000000
10397.000000,31718.000000,39639.000000,20927.000000
10393.000000,31769.000000,39700.000000,20962.000000
10444.000000,31807.000000,39701.000000,20979.000000
10509.000000,31844.000000,39739.000000,20990.000000
10501.000000,31879.000000,39782.000000,20969.000000
10559.000000,31926.000000,39803.000000,21001.000000
10662.000000,32062.000000,39848.000000,21001.000000
10684.000000,32089.000000,39872.000000,21039.000000
10724.000000,32141.000000,39917.000000,21065.000000
10813.000000,32176.000000,39928.000000,21050.000000
10817.000000,32245.000000,39954.000000,21052.000000
11001.000000,32401.000000,40048.000000,21097.000000
11055.000000,32458.000000,40098.000000,21136.000000
11095.000000,32564.000000,40159.000000,21167.000000
11125.000000,32654.000000,40161.000000,21175.000000
11230.000000,32642.000000,40221.000000,21212.000000
11319.000000,32813.000000,40284.000000,21233.000000
11374.000000,32809.000000,40297.000000,21288.000000
11394.000000,32829.000000,40303.000000,21253.000000
11362.000000,32861.000000,40303.000000,21271.000000
11382.000000,32865.000000,40306.000000,21254.000000
11337.000000,32832.000000,40289.000000,21289.000000
11329.000000,32842.000000,40304.000000,21289.000000
11369.000000,32806.000000,40288.000000,21294.000000
11340.000000,32798.000000,40289.000000,21286.000000
11317.000000,32783.000000,40297.000000,21261.000000
11280.000000,32803.000000,40278.000000,21261.000000
11314.000000,32757.000000,40263.000000,21258.000000
11272.000000,32763.000000,40225.000000,21250.000000
11253.000000,32709.000000,40248.000000,21246.000000
11251.000000,32724.000000,40247.000000,21223.000000
11212.000000,32703.000000,40223.000000,21243.000000
11245.000000,32659.000000,40217.000000,21204.000000
11198.000000,32709.000000,40196.000000,21255.000000
11170.000000,32638.000000,40189.000000,21239.000000
11171.000000,32664.000000,40181.000000,21198.000000
11130.000000,32607.000000,40172.000000,21206.000000
11167.000000,32597.000000,40179.000000,21209.000000
11143.000000,32562.000000,40158.000000,21221.000000
11114.000000,32599.000000,40132.000000,21192.000000
11117.000000,32558.000000,40142.000000,21210.000000
11096.000000,32512.000000,40138.000000,21181.000000
11072.000000,32538.000000,40127.000000,21202.000000
11022.000000,32467.000000,40122.000000,21186.000000
11075.000000,32458.000000,40079.000000,21200.000000
10976.000000,32428.000000,40088.000000,21171.000000
10981.000000,32394.000000,40061.000000,21182.000000
10986.000000,32407.000000,40057.000000,21157.000000
10932.000000,32376.000000,40050.000000,21131.000000
10964.000000,32394.000000,40056.000000,21142.000000
10896.000000,32345.000000,40032.000000,21149.000000
10870.000000,32344.000000,40028.000000,21142.000000
10889.000000,32299.000000,39983.000000,21135.000000
10876.000000,32299.000000,39989.000000,21142.000000
10823.000000,32318.000000,39996.000000,21112.000000
10859.000000,32275.000000,39965.000000,21137.000000
10859.000000,32241.000000,39931.000000,21117.000000
10776.000000,32148.000000,39945.000000,21066.000000
10782.000000,32164.000000,39936.000000,21098.000000
10741.000000,32189.000000,39901.000000,21064.000000
10710.000000,32155.000000,39863.000000,21103.000000
10711.000000,32170.000000,39893.000000,21066.000000
10712.000000,32105.000000,39851.000000,21102.000000
10678.000000,32093.000000,39884.000000,21079.000000
10656.000000,32000.000000,39861.000000,21046.000000
10646.000000,32021.000000,39852.000000,21074.000000
10583.000000,31995.000000,39798.000000,21056.000000
10555.000000,31978.000000,39808.000000,21041.000000
10583.000000,31942.000000,39807.000000,21021.000000
10519.000000,31919.000000,39804.000000,21016.000000
10525.000000,31909.000000,39766.000000,21005.000000
10554.000000,31859.000000,39783.000000,21019.000000
10472.000000,31850.000000,39723.000000,20993.000000
10458.000000,31808.000000,39713.000000,21020.000000
10400.000000,31766.000000,39699.000000,20982.000000
10405.000000,31734.000000,39676.000000,20993.000000
10349.000000,31752.000000,39656.000000,20964.000000
10350.000000,31741.000000,39666.000000,20958.000000
10329.000000,31690.000000,39655.000000,20947.000000
10319.000000,31655.000000,39618.000000,20946.000000
10233.000000,31632.000000,39581.000000,20935.000000
10176.000000,31525.000000,39562.000000,20917.000000
10135.000000,31490.000000,39558.000000,20905.000000
10114.000000,31479.000000,39494.000000,20884.000000
10095.000000,31444.000000,39512.000000,20872.000000
10093.000000,31437.000000,39510.000000,20873.000000
10045.000000,31353.000000,39441.000000,20879.000000
10013.000000,31391.000000,39453.000000,20843.000000
10009.000000,31383.000000,39474.000000,20820.000000
10022.000000,31377.000000,39437.000000,20842.000000
10004.000000,31341.000000,39458.000000,20844.000000
9977.000000,31330.000000,39459.000000,20851.000000
9963.000000,31374.000000,39467.000000,20846.000000
10060.000000,31390.000000,39446.000000,20859.000000
10123.000000,31444.000000,39476.000000,20875.000000
10130.000000,31492.000000,39544.000000,20870.000000
10146.000000,31525.000000,39545.000000,20900.000000
10207.000000,31555.000000,39574.000000,20888.000000
10275.000000,31656.000000,39635.000000,20914.000000
10310.000000,31695.000000,39660.000000,20898.000000
10337.000000,31758.000000,39667.000000,20911.000000
10368.000000,31776.000000,39684.000000,20921.000000
10503.000000,31893.000000,39763.000000,20941.000000
10485.000000,31910.000000,39809.000000,20944.000000
10562.000000,31953.000000,39782.000000,20966.000000
10594.000000,31957.000000,39821.000000,20964.000000
10595.000000,32007.000000,39827.000000,20976.000000
10598.000000,32063.000000,39854.000000,20977.000000
10741.000000,32149.000000,39915.000000,20999.000000
10766.000000,32200.000000,39936.000000,21039.000000
10827.000000,32229.000000,39936.000000,21053.000000
10843.000000,32258.000000,39994.000000,21044.000000
10884.000000,32332.000000,40015.000000,21084.000000
10921.000000,32359.000000,40070.000000,21085.000000
10967.000000,32426.000000,40093.000000,21081.000000
11268.000000,32774.000000,40263.000000,21208.000000
11323.000000,32785.000000,40312.000000,21194.000000
11282.000000,32873.000000,40295.000000,21255.000000
11392.000000,32888.000000,40343.000000,21242.000000
11409.000000,32866.000000,40342.000000,21242.000000
11410.000000,32913.000000,40329.000000,21238.000000
11369.000000,32910.000000,40337.000000,21278.000000
11362.000000,32890.000000,40361.000000,21246.000000
11366.000000,32882.000000,40317.000000,21255.000000
11336.000000,32847.000000,40344.000000,21268.000000
11330.000000,32832.000000,40319.000000,21258.000000
11329.000000,32834.000000,40279.000000,21255.000000
11282.000000,32859.000000,40302.000000,21241.000000
11297.000000,32780.000000,40288.000000,21219.000000
11270.000000,32810.000000,40269.000000,21232.000000
11268.000000,32758.000000,40266.000000,21224.000000
11269.000000,32721.000000,40238.000000,21224.000000
11229.000000,32742.000000,40236.000000,21201.000000
11194.000000,32720.000000,40250.000000,21230.000000
11215.000000,32679.000000,40213.000000,21208.000000
11174.000000,32685.000000,40206.000000,21203.000000
11183.000000,32636.000000,40188.000000,21209.000000
11118.000000,32627.000000,40162.000000,21184.000000
11123.000000,32609.000000,40179.000000,21214.000000
11131.000000,32609.000000,40198.000000,21196.000000
11136.000000,32627.000000,40181.000000,21198.000000
11120.000000,32619.000000,40209.000000,21165.000000
11082.000000,32581.000000,40182.000000,21177.000000
11083.000000,32578.000000,40130.000000,21172.000000
11040.000000,32551.000000,40151.000000,21158.000000
11057.000000,32519.000000,40117.000000,21154.000000
11055.000000,32508.000000,40105.000000,21158.000000
11026.000000,32518.000000,40088.000000,21159.000000
10925.000000,32386.000000,40078.000000,21115.000000
10903.000000,32326.000000,40042.000000,21122.000000
10908.000000,32365.000000,40020.000000,21125.000000
10930.000000,32307.000000,39990.000000,21140.000000
10852.000000,32310.000000,39995.000000,21113.000000
10848.000000,32302.000000,40002.000000,21112.000000
10813.000000,32263.000000,39986.000000,21109.000000
10798.000000,32247.000000,39989.000000,21097.000000
10785.000000,32178.000000,39936.000000,21123.000000
10793.000000,32192.000000,39937.000000,21098.000000
10747.000000,32186.000000,39891.000000,21101.000000
10716.000000,32128.000000,39935.000000,21088.000000
10667.000000,32076.000000,39877.000000,21048.000000
10658.000000,32071.000000,39842.000000,21055.000000
10653.000000,32031.000000,39846.000000,21041.000000
10655.000000,32052.000000,39831.000000,21029.000000
10602.000000,32021.000000,39828.000000,21026.000000
10578.000000,31996.000000,39812.000000,21004.000000
10544.000000,31964.000000,39805.000000,21016.000000
10594.000000,31917.000000,39786.000000,21015.000000
10475.000000,31912.000000,39738.000000,21003.000000
10482.000000,31884.000000,39721.000000,20984.000000
10472.000000,31852.000000,39743.000000,20969.000000
10462.000000,31845.000000,39738.000000,20968.000000
10448.000000,31811.000000,39720.000000,20993.000000
10419.000000,31782.000000,39703.000000,20993.000000
10405.000000,31783.000000,39696.000000,20972.000000
10393.000000,31815.000000,39678.000000,20957.000000
10336.000000,31733.000000,39701.000000,20962.000000
10311.000000,31710.000000,39678.000000,20955.000000
10277.000000,31678.000000,39637.000000,20911.000000
10257.000000,31670.000000,39632.000000,20936.000000
10259.000000,31588.000000,39591.000000,20924.000000
10162.000000,31559.000000,39569.000000,20910.000000
10154.000000,31478.000000,39511.000000,20906.000000
10138.000000,31488.000000,39486.000000,20888.000000
10059.000000,31460.000000,39484.000000,20874.000000
10050.000000,31451.000000,39469.000000,20875.000000
10051.000000,31391.000000,39479.000000,20854.000000
10016.000000,31413.000000,39441.000000,20853.000000
9997.000000,31352.000000,39426.000000,20854.000000
9975.000000,31299.000000,39462.000000,20851.000000
9909.000000,31239.000000,39371.000000,20826.000000
9892.000000,31220.000000,39368.000000,20800.000000
9849.000000,31200.000000,39372.000000,20808.000000
9889.000000,31229.000000,39381.000000,20806.000000
9912.000000,31230.000000,39388.000000,20805.000000
9865.000000,31254.000000,39384.000000,20824.000000
9893.000000,31224.000000,39388.000000,20773.000000
9941.000000,31314.000000,39410.000000,20786.000000
9961.000000,31353.000000,39409.000000,20773.000000
9970.000000,31290.000000,39428.000000,20825.000000
10042.000000,31321.000000,39420.000000,20810.000000
10003.000000,31374.000000,39451.000000,20831.000000
10034.000000,31393.000000,39475.000000,20864.000000
10074.000000,31412.000000,39465.000000,20863.000000
10139.000000,31485.000000,39512.000000,20854.000000
10249.000000,31602.000000,39598.000000,20862.000000
10266.000000,31661.000000,39624.000000,20881.000000
10317.000000,31681.000000,39600.000000,20896.000000
10334.000000,31762.000000,39645.000000,20900.000000
10357.000000,31756.000000,39618.000000,20918.000000
10385.000000,31799.000000,39718.000000,20897.000000
10482.000000,31940.000000,39735.000000,20952.000000
10499.000000,31974.000000,39757.000000,20967.000000
10571.000000,31979.000000,39811.000000,20976.000000
10608.000000,32039.000000,39826.000000,20968.000000
10666.000000,32040.000000,39842.000000,21000.000000
10709.000000,32111.000000,39900.000000,20977.000000
10743.000000,32170.000000,39904.000000,21024.000000
10879.000000,32362.000000,39988.000000,21077.000000
10938.000000,32377.000000,40093.000000,21092.000000
11038.000000,32469.000000,40080.000000,21128.000000
11137.000000,32698.000000,40167.000000,21184.000000
11216.000000,32665.000000,40223.000000,21163.000000
11218.000000,32681.000000,40222.000000,21189.000000
11225.000000,32692.000000,40208.000000,21200.000000
11271.000000,32724.000000,40232.000000,21187.000000
11259.000000,32729.000000,40232.000000,21211.000000
11245.000000,32738.000000,40250.000000,21204.000000
11249.000000,32711.000000,40249.000000,21196.000000
11202.000000,32717.000000,40272.000000,21213.000000
11216.000000,32674.000000,40222.000000,21221.000000
11207.000000,32703.000000,40200.000000,21216.000000
11151.000000,32628.000000,40197.000000,21194.000000
11164.000000,32597.000000,40161.000000,21197.000000
11152.000000,32607.000000,40169.000000,21181.000000
11124.000000,32612.000000,40142.000000,21206.000000
11139.000000,32594.000000,40155.000000,21205.000000
11130.000000,32572.000000,40171.000000,21184.000000
11044.000000,32563.000000,40151.000000,21166.000000
11056.000000,32563.000000,40159.000000,21171.000000
11083.000000,32505.000000,40152.000000,21153.000000
11048.000000,32535.000000,40065.000000,21166.000000
11059.000000,32563.000000,40112.000000,21150.000000
11020.000000,32504.000000,40087.000000,21159.000000
10998.000000,32491.000000,40077.000000,21137.000000
10992.000000,32486.000000,40063.000000,21151.000000
10969.000000,32450.000000,40066.000000,21140.000000
10953.000000,32399.000000,40073.000000,21151.000000
11003.000000,32368.000000,40053.000000,21106.000000
11003.000000,32419.000000,40051.000000,21135.000000
10906.000000,32349.000000,40013.000000,21139.000000
10923.000000,32343.000000,40015.000000,21120.000000
10918.000000,32349.000000,40021.000000,21125.000000
10887.000000,32312.000000,39974.000000,21120.000000
10849.000000,32252.000000,40001.000000,21114.000000
10813.000000,32294.000000,39967.000000,21097.000000
10807.000000,32266.000000,39974.000000,21088.000000
10837.000000,32213.000000,39975.000000,21096.000000
10820.000000,32201.000000,39940.000000,21103.000000
10779.000000,32213.000000,39937.000000,21101.000000
10811.000000,32202.000000,39940.000000,21072.000000
10756.000000,32206.000000,39924.000000,21082.000000
10738.000000,32165.000000,39894.000000,21084.000000
10702.000000,32142.000000,39885.000000,21080.000000
10699.000000,32151.000000,39857.000000,21077.000000
10684.000000,32116.000000,39872.000000,21071.000000
10677.000000,32125.000000,39871.000000,21047.000000
10640.000000,32086.000000,39870.000000,21031.000000
10623.000000,32020.000000,39834.000000,21033.000000
10577.000000,32010.000000,39802.000000,21033.000000
10583.000000,32005.000000,39811.000000,21048.000000
10570.000000,31952.000000,39807.000000,21025.000000
10549.000000,31946.000000,39789.000000,21035.000000
10481.000000,31904.000000,39760.000000,21005.000000
10455.000000,31847.000000,39726.000000,21008.000000
10422.000000,31791.000000,39721.000000,20970.000000
10390.000000,31798.000000,39722.000000,20974.000000
10420.000000,31772.000000,39700.000000,20960.000000
10388.000000,31797.000000,39667.000000,20962.000000
10367.000000,31774.000000,39644.000000,20959.000000
10345.000000,31713.000000,39666.000000,20952.000000
10312.000000,31723.000000,39630.000000,20920.000000
10288.000000,31700.000000,39630.000000,20920.000000
10258.000000,31650.000000,39628.000000,20931.000000
10272.000000,31651.000000,39607.000000,20928.000000
10230.000000,31669.000000,39605.000000,20920.000000
10168.000000,31539.000000,39561.000000,20891.000000
10098.000000,31456.000000,39479.000000,20865.000000
10086.000000,31414.000000,39494.000000,20856.000000
10053.000000,31428.000000,39449.000000,20851.000000
10004.000000,31391.000000,39464.000000,20865.000000
10008.000000,31300.000000,39479.000000,20853.000000
9973.000000,31280.000000,39415.000000,20826.000000
9911.000000,31261.000000,39366.000000,20825.000000
9825.000000,31186.000000,39318.000000,20791.000000
9832.000000,31145.000000,39343.000000,20801.000000
9844.000000,31158.000000,39332.000000,20792.000000
9818.000000,31130.000000,39343.000000,20757.000000
9765.000000,31140.000000,39320.000000,20759.000000
9790.000000,31081.000000,39320.000000,20779.000000
9793.000000,31135.000000,39318.000000,20750.000000
9788.000000,31144.000000,39334.000000,20772.000000
9823.000000,31145.000000,39302.000000,20790.000000
9846.000000,31190.000000,39361.000000,20759.000000
9885.000000,31217.000000,39381.000000,20757.000000
9874.000000,31260.000000,39384.000000,20754.000000
9928.000000,31293.000000,39425.000000,20780.000000
10054.000000,31358.000000,39447.000000,20823.000000
10062.000000,31426.000000,39498.000000,20819.000000
10097.000000,31464.000000,39503.000000,20853.000000
10117.000000,31498.000000,39528.000000,20879.000000
10170.000000,31561.000000,39545.000000,20873.000000
10234.000000,31527.000000,39553.000000,20886.000000
10251.000000,31603.000000,39571.000000,20856.000000
10272.000000,31643.000000,39581.000000,20847.000000
10402.000000,31725.000000,39660.000000,20908.000000
10421.000000,31861.000000,39746.000000,20905.000000
10481.000000,31897.000000,39763.000000,20930.000000
10576.000000,31904.000000,39765.000000,20975.000000
10610.000000,31990.000000,39786.000000,20944.000000
10606.000000,32078.000000,39798.000000,20987.000000
10660.000000,32077.000000,39846.000000,21014.000000
10731.000000,32103.000000,39884.000000,21004.000000
10797.000000,32167.000000,39927.000000,21045.000000
10962.000000,32402.000000,40048.000000,21092.000000
11040.000000,32460.000000,40084.000000,21105.000000
11078.000000,32525.000000,40133.000000,21136.000000
11157.000000,32634.000000,40198.000000,21177.000000
11197.000000,32669.000000,40189.000000,21176.000000
11209.000000,32628.000000,40197.000000,21165.000000
11193.000000,32665.000000,40213.000000,21177.000000
11214.000000,32642.000000,40213.000000,21184.000000
11161.000000,32631.000000,40164.000000,21177.000000
11161.000000,32630.000000,40167.000000,21179.000000
11141.000000,32647.000000,40175.000000,21184.000000
11148.000000,32622.000000,40155.000000,21196.000000
11093.000000,32597.000000,40151.000000,21190.000000
11089.000000,32615.000000,40133.000000,21183.000000
11108.000000,32545.000000,40139.000000,21154.000000
11112.000000,32542.000000,40138.000000,21153.000000
11117.000000,32543.000000,40118.000000,21156.000000
11083.000000,32539.000000,40134.000000,21147.000000
11058.000000,32509.000000,40156.000000,21160.000000
11041.000000,32465.000000,40092.000000,21131.000000
11010.000000,32485.000000,40089.000000,21153.000000
10990.000000,32436.000000,40094.000000,21126.000000
11012.000000,32416.000000,40056.000000,21139.000000
11007.000000,32418.000000,40065.000000,21152.000000
10975.000000,32406.000000,40038.000000,21154.000000
10994.000000,32408.000000,40056.000000,21126.000000
10990.000000,32351.000000,40026.000000,21123.000000
10933.000000,32335.000000,40025.000000,21119.000000
10916.000000,32323.000000,39999.000000,21135.000000
10933.000000,32315.000000,39997.000000,21125.000000
10888.000000,32364.000000,39994.000000,21142.000000
10862.000000,32271.000000,39975.000000,21115.000000
10863.000000,32263.000000,39970.000000,21094.000000
10834.000000,32266.000000,39947.000000,21110.000000
10815.000000,32209.000000,39946.000000,21090.000000
10781.000000,32208.000000,39936.000000,21073.000000
10798.000000,32182.000000,39942.000000,21082.000000
10788.000000,32181.000000,39919.000000,21100.000000
10789.000000,32171.000000,39899.000000,21079.000000
10762.000000,32155.000000,39899.000000,21098.000000
10735.000000,32193.000000,39904.000000,21063.000000
10714.000000,32158.000000,39930.000000,21030.000000
10663.000000,32121.000000,39887.000000,21044.000000
10666.000000,32060.000000,39848.000000,21047.000000
10617.000000,32082.000000,39842.000000,21027.000000
10601.000000,32046.000000,39830.000000,21013.000000
10619.000000,32016.000000,39821.000000,21003.000000
10578.000000,31976.000000,39807.000000,21036.000000
10551.000000,31963.000000,39768.000000,20993.000000
10561.000000,31861.000000,39807.000000,20996.000000
10501.000000,31891.000000,39740.000000,20977.000000
10479.000000,31880.000000,39788.000000,20983.000000
10459.000000,31869.000000,39762.000000,21000.000000
10371.000000,31809.000000,39700.000000,20959.000000
10386.000000,31774.000000,39711.000000,20960.000000
10358.000000,31728.000000,39672.000000,20941.000000
10351.000000,31689.000000,39653.000000,20968.000000
10300.000000,31687.000000,39625.000000,20947.000000
10245.000000,31697.000000,39627.000000,20952.000000
10259.000000,31641.000000,39612.000000,20907.000000
10244.000000,31606.000000,39587.000000,20923.000000
10202.000000,31587.000000,39583.000000,20937.000000
10239.000000,31553.000000,39573.000000,20920.000000
10126.000000,31516.000000,39545.000000,20917.000000
10162.000000,31482.000000,39535.000000,20891.000000
10116.000000,31499.000000,39528.000000,20891.000000
10081.000000,31485.000000,39530.000000,20892.000000
10076.000000,31432.000000,39501.000000,20857.000000
10030.000000,31392.000000,39465.000000,20827.000000
9973.000000,31303.000000,39446.000000,20829.000000
9940.000000,31319.000000,39417.000000,20808.000000
9934.000000,31293.000000,39389.000000,20813.000000
9818.000000,31168.000000,39286.000000,20780.000000
9793.000000,31134.000000,39332.000000,20790.000000
9775.000000,31101.000000,39297.000000,20774.000000
9709.000000,31091.000000,39290.000000,20776.000000
9721.000000,30981.000000,39242.000000,20770.000000
9674.000000,31013.000000,39262.000000,20740.000000
9681.000000,31018.000000,39187.000000,20735.000000
9676.000000,30958.000000,39218.000000,20739.000000
9647.000000,30970.000000,39212.000000,20733.000000
9624.000000,30931.000000,39194.000000,20724.000000
9706.000000,30993.000000,39249.000000,20739.000000
9714.000000,31019.000000,39219.000000,20764.000000
9749.000000,31012.000000,39282.000000,20758.000000
9772.000000,31059.000000,39306.000000,20745.000000
9829.000000,31099.000000,39295.000000,20764.000000
9879.000000,31217.000000,39350.000000,20769.000000
9889.000000,31232.000000,39366.000000,20790.000000
10047.000000,31376.000000,39429.000000,20817.000000
10064.000000,31380.000000,39444.000000,20820.000000
10093.000000,31434.000000,39476.000000,20797.000000
10117.000000,31467.000000,39506.000000,20831.000000
10228.000000,31598.000000,39576.000000,20865.000000
10272.000000,31615.000000,39587.000000,20872.000000
10326.000000,31645.000000,39594.000000,20911.000000
10374.000000,31686.000000,39636.000000,20885.000000
10406.000000,31761.000000,39661.000000,20903.000000
10395.000000,31840.000000,39683.000000,20920.000000
10486.000000,31861.000000,39749.000000,20916.000000
10579.000000,32022.000000,39818.000000,20949.000000
10664.000000,32057.000000,39868.000000,21006.000000
10725.000000,32142.000000,39896.000000,20993.000000
10760.000000,32194.000000,39917.000000,21015.000000
10966.000000,32416.000000,40057.000000,21108.000000
11018.000000,32490.000000,40104.000000,21082.000000
11087.000000,32513.000000,40144.000000,21112.000000
11103.000000,32609.000000,40152.000000,21157.000000
11154.000000,32634.000000,40180.000000,21143.000000
11177.000000,32643.000000,40166.000000,21148.000000
11155.000000,32645.000000,40170.000000,21177.000000
11167.000000,32642.000000,40163.000000,21155.000000
11154.000000,32643.000000,40187.000000,21157.000000
11102.000000,32650.000000,40182.000000,21189.000000
11123.000000,32589.000000,40164.000000,21152.000000
11133.000000,32605.000000,40148.000000,21160.000000
11139.000000,32572.000000,40150.000000,21159.000000
11057.000000,32505.000000,40112.000000,21155.000000
11042.000000,32457.000000,40092.000000,21153.000000
11003.000000,32470.000000,40052.000000,21149.000000
11005.000000,32444.000000,40081.000000,21115.000000
10987.000000,32342.000000,40029.000000,21152.000000
11005.000000,32335.000000,39996.000000,21096.000000
10974.000000,32327.000000,40024.000000,21124.000000
10918.000000,32337.000000,39984.000000,21117.000000
10944.000000,32269.000000,39990.000000,21113.000000
10931.000000,32269.000000,40005.000000,21066.000000
10923.000000,32262.000000,39969.000000,21111.000000
10907.000000,32260.000000,39959.000000,21086.000000
10863.000000,32250.000000,39963.000000,21103.000000
10870.000000,32193.000000,39939.000000,21086.000000
10867.000000,32191.000000,39931.000000,21060.000000
10842.000000,32220.000000,39924.000000,21078.000000
10818.000000,32156.000000,39896.000000,21118.000000
10797.000000,32161.000000,39881.000000,21063.000000
10805.000000,32128.000000,39884.000000,21037.000000
10817.000000,32093.000000,39898.000000,21083.000000
10753.000000,32043.000000,39862.000000,21054.000000
10731.000000,32024.000000,39859.000000,21048.000000
10746.000000,32020.000000,39863.000000,21050.000000
10722.000000,32032.000000,39822.000000,21048.000000
10709.000000,32033.000000,39818.000000,21050.000000
10702.000000,31978.000000,39803.000000,21030.000000
10689.000000,32006.000000,39824.000000,21034.000000
10649.000000,31963.000000,39835.000000,21024.000000
10651.000000,31947.000000,39806.000000,21036.000000
10662.000000,31970.000000,39796.000000,21036.000000
10660.000000,31992.000000,39799.000000,21020.000000
10591.000000,31898.000000,39739.000000,21012.000000
10600.000000,31886.000000,39800.000000,20984.000000
10569.000000,31864.000000,39755.000000,21007.000000
10523.000000,31868.000000,39739.000000,21011.000000
10522.000000,31859.000000,39730.000000,20976.000000
10482.000000,31789.000000,39707.000000,20969.000000
10467.000000,31779.000000,39699.000000,20974.000000
10440.000000,31778.000000,39679.000000,20952.000000
10422.000000,31740.000000,39679.000000,20967.000000
10410.000000,31741.000000,39636.000000,20956.000000
10411.000000,31738.000000,39642.000000,20928.000000
10383.000000,31702.000000,39624.000000,20924.000000
10361.000000,31683.000000,39611.000000,20951.000000
10326.000000,31668.000000,39630.000000,20926.000000
10337.000000,31624.000000,39583.000000,20935.000000
10346.000000,31609.000000,39591.000000,20903.000000
10306.000000,31595.000000,39588.000000,20909.000000
10300.000000,31603.000000,39574.000000,20901.000000
10294.000000,31592.000000,39613.000000,20913.000000
10299.000000,31586.000000,39557.000000,20916.000000
10196.000000,31494.000000,39549.000000,20900.000000
10161.000000,31440.000000,39492.000000,20852.000000
10107.000000,31433.000000,39463.000000,20829.000000
10118.000000,31406.000000,39475.000000,20878.000000
10085.000000,31343.000000,39438.000000,20822.000000
10086.000000,31329.000000,39448.000000,20819.000000
10011.000000,31302.000000,39404.000000,20816.000000
9956.000000,31234.000000,39383.000000,20787.000000
9927.000000,31207.000000,39347.000000,20771.000000
9877.000000,31150.000000,39337.000000,20794.000000
9873.000000,31137.000000,39366.000000,20763.000000
9874.000000,31106.000000,39318.000000,20783.000000
9802.000000,31116.000000,39310.000000,20766.000000
9866.000000,31141.000000,39282.000000,20782.000000
9874.000000,31152.000000,39330.000000,20774.000000
9952.000000,31164.000000,39357.000000,20776.000000
9943.000000,31262.000000,39369.000000,20776.000000
9975.000000,31253.000000,39383.000000,20781.000000
10017.000000,31283.000000,39400.000000,20823.000000
10018.000000,31301.000000,39395.000000,20805.000000
10090.000000,31336.000000,39414.000000,20799.000000
10204.000000,31490.000000,39501.000000,20868.000000
10247.000000,31532.000000,39545.000000,20830.000000
10283.000000,31601.000000,39545.000000,20867.000000
10311.000000,31639.000000,39577.000000,20874.000000
10436.000000,31768.000000,39659.000000,20903.000000
10441.000000,31819.000000,39697.000000,20905.000000
10443.000000,31858.000000,39719.000000,20921.000000
10521.000000,31848.000000,39744.000000,20942.000000
10597.000000,31930.000000,39718.000000,20953.000000
10626.000000,31981.000000,39792.000000,20936.000000
10628.000000,32048.000000,39822.000000,20971.000000
10796.000000,32188.000000,39885.000000,20981.000000
10938.000000,32352.000000,39999.000000,21064.000000
11011.000000,32428.000000,40041.000000,21050.000000
11075.000000,32529.000000,40090.000000,21100.000000
11115.000000,32585.000000,40147.000000,21116.000000
11164.000000,32612.000000,40155.000000,21141.000000
11223.000000,32668.000000,40207.000000,21166.000000
11250.000000,32714.000000,40204.000000,21172.000000
11318.000000,32778.000000,40268.000000,21182.000000
11310.000000,32801.000000,40264.000000,21209.000000
11306.000000,32818.000000,40262.000000,21193.000000
11301.000000,32768.000000,40271.000000,21190.000000
11304.000000,32761.000000,40281.000000,21191.000000
11284.000000,32794.000000,40227.000000,21199.000000
11280.000000,32722.000000,40259.000000,21185.000000
11265.000000,32739.000000,40227.000000,21190.000000
11248.000000,32743.000000,40227.000000,21211.000000
11255.000000,32710.000000,40225.000000,21173.000000
11230.000000,32698.000000,40196.000000,21199.000000
11242.000000,32695.000000,40231.000000,21180.000000
11216.000000,32678.000000,40192.000000,21178.000000
11164.000000,32665.000000,40205.000000,21183.000000
11164.000000,32626.000000,40189.000000,21163.000000
11146.000000,32606.000000,40148.000000,21173.000000
11149.000000,32591.000000,40137.000000,21167.000000
11132.000000,32591.000000,40131.000000,21146.000000
11109.000000,32553.000000,40175.000000,21162.000000
11174.000000,32567.000000,40143.000000,21167.000000
11062.000000,32533.000000,40123.000000,21146.000000
11086.000000,32524.000000,40073.000000,21155.000000
11089.000000,32526.000000,40127.000000,21137.000000
11061.000000,32516.000000,40085.000000,21143.000000
11043.000000,32484.000000,40097.000000,21136.000000
11023.000000,32475.000000,40092.000000,21130.000000
11009.000000,32465.000000,40051.000000,21109.000000
10955.000000,32429.000000,40074.000000,21105.000000
10989.000000,32390.000000,40075.000000,21117.000000
10964.000000,32392.000000,40039.000000,21119.000000
10908.000000,32339.000000,39993.000000,21105.000000
10915.000000,32285.000000,39996.000000,21088.000000
10915.000000,32339.000000,39943.000000,21092.000000
10878.000000,32306.000000,39968.000000,21086.000000
10881.000000,32262.000000,39986.000000,21082.000000
10799.000000,32254.000000,39885.000000,21065.000000
10813.000000,32190.000000,39927.000000,21071.000000
10796.000000,32154.000000,39903.000000,21069.000000
10791.000000,32109.000000,39879.000000,21059.000000
10775.000000,32080.000000,39848.000000,21049.000000
10711.000000,32031.000000,39846.000000,21033.000000
10703.000000,32027.000000,39806.000000,21048.000000
10677.000000,32018.000000,39828.000000,21051.000000
10705.000000,31997.000000,39815.000000,21024.000000
10624.000000,31992.000000,39789.000000,21010.000000
10674.000000,31952.000000,39769.000000,21019.000000
10649.000000,31960.000000,39778.000000,21041.000000
10644.000000,31971.000000,39767.000000,20992.000000
10610.000000,31890.000000,39749.000000,20991.000000
10623.000000,31899.000000,39745.000000,21014.000000
10543.000000,31858.000000,39744.000000,21003.000000
10555.000000,31816.000000,39707.000000,20951.000000
10510.000000,31879.000000,39709.000000,20941.000000
10493.000000,31845.000000,39735.000000,20976.000000
10495.000000,31804.000000,39693.000000,20959.000000
10454.000000,31817.000000,39664.000000,20933.000000
10417.000000,31786.000000,39675.000000,20925.000000
10441.000000,31730.000000,39643.000000,20936.000000
10351.000000,31688.000000,39643.000000,20912.000000
10373.000000,31671.000000,39629.000000,20910.000000
10336.000000,31660.000000,39605.000000,20911.000000
10302.000000,31641.000000,39614.000000,20890.000000
10311.000000,31576.000000,39603.000000,20871.000000
10269.000000,31538.000000,39557.000000,20886.000000
10183.000000,31489.000000,39497.000000,20883.000000
10169.000000,31438.000000,39475.000000,20845.000000
10137.000000,31410.000000,39470.000000,20849.000000
10112.000000,31396.000000,39482.000000,20858.000000
10115.000000,31342.000000,39450.000000,20815.000000
10117.000000,31350.000000,39453.000000,20810.000000
10084.000000,31331.000000,39442.000000,20840.000000
10035.000000,31330.000000,39419.000000,20823.000000
10053.000000,31307.000000,39401.000000,20771.000000
10023.000000,31316.000000,39403.000000,20792.000000
10024.000000,31319.000000,39429.000000,20795.000000
10052.000000,31294.000000,39401.000000,20839.000000
10047.000000,31370.000000,39454.000000,20813.000000
10134.000000,31404.000000,39456.000000,20794.000000
10130.000000,31402.000000,39482.000000,20820.000000
10154.000000,31474.000000,39504.000000,20839.000000
10268.000000,31544.000000,39528.000000,20850.000000
10320.000000,31618.000000,39600.000000,20870.000000
10394.000000,31625.000000,39611.000000,20834.000000
10394.000000,31705.000000,39628.000000,20878.000000
10396.000000,31725.000000,39646.000000,20890.000000
10429.000000,31758.000000,39696.000000,20885.000000
10518.000000,31900.000000,39739.000000,20909.000000
10541.000000,31905.000000,39752.000000,20924.000000
10595.000000,31943.000000,39778.000000,20961.000000
10623.000000,31960.000000,39785.000000,20961.000000
10668.000000,32027.000000,39821.000000,20926.000000
10757.000000,32145.000000,39909.000000,20967.000000
10791.000000,32172.000000,39906.000000,20969.000000
10833.000000,32244.000000,39935.000000,21007.000000
10880.000000,32303.000000,40004.000000,21000.000000
10943.000000,32383.000000,39993.000000,21054.000000
10985.000000,32474.000000,40049.000000,21076.000000
11053.000000,32523.000000,40118.000000,21073.000000
11268.000000,32761.000000,40233.000000,21126.000000
11307.000000,32801.000000,40275.000000,21165.000000
11354.000000,32827.000000,40280.000000,21198.000000
11329.000000,32893.000000,40324.000000,21193.000000
11366.000000,32940.000000,40327.000000,21203.000000
11436.000000,32935.000000,40369.000000,21225.000000
11383.000000,32949.000000,40353.000000,21228.000000
11419.000000,32909.000000,40371.000000,21258.000000
11422.000000,32920.000000,40350.000000,21224.000000
11378.000000,32933.000000,40361.000000,21240.000000
11376.000000,32960.000000,40336.000000,21218.000000
11372.000000,32887.000000,40361.000000,21228.000000
11369.000000,32835.000000,40311.000000,21208.000000
11298.000000,32848.000000,40281.000000,21216.000000
11343.000000,32846.000000,40292.000000,21223.000000
11332.000000,32834.000000,40269.000000,21188.000000
11317.000000,32846.000000,40273.000000,21202.000000
11300.000000,32785.000000,40254.000000,21176.000000
11279.000000,32791.000000,40238.000000,21191.000000
11281.000000,32765.000000,40256.000000,21180.000000
11255.000000,32739.000000,40210.000000,21213.000000
11234.000000,32687.000000,40221.000000,21159.000000
11199.000000,32700.000000,40225.000000,21168.000000
11233.000000,32634.000000,40213.000000,21168.000000
11223.000000,32656.000000,40208.000000,21157.000000
11219.000000,32689.000000,40175.000000,21174.000000
11213.000000,32652.000000,40169.000000,21140.000000
11180.000000,32612.000000,40159.000000,21154.000000
11111.000000,32634.000000,40207.000000,21153.000000
11143.000000,32623.000000,40143.000000,21161.000000
11139.000000,32591.000000,40131.000000,21141.000000
11149.000000,32599.000000,40138.000000,21138.000000
11082.000000,32569.000000,40152.000000,21126.000000
11084.000000,32545.000000,40081.000000,21118.000000
11076.000000,32518.000000,40126.000000,21129.000000
11063.000000,32487.000000,40071.000000,21095.000000
10997.000000,32441.000000,40081.000000,21126.000000
11026.000000,32423.000000,40069.000000,21116.000000
11032.000000,32446.000000,40068.000000,21127.000000
11016.000000,32438.000000,40057.000000,21088.000000
10951.000000,32416.000000,40059.000000,21118.000000
10935.000000,32371.000000,40029.000000,21072.000000
10908.000000,32368.000000,39975.000000,21109.000000
10934.000000,32338.000000,40050.000000,21069.000000
10905.000000,32308.000000,39985.000000,21100.000000
10925.000000,32324.000000,40000.000000,21078.000000
10851.000000,32243.000000,39975.000000,21076.000000
10861.000000,32249.000000,39982.000000,21057.000000
10825.000000,32256.000000,39932.000000,21048.000000
10785.000000,32208.000000,39943.000000,21049.000000
10742.000000,32193.000000,39899.000000,21041.000000
10715.000000,32152.000000,39927.000000,21033.000000
10766.000000,32110.000000,39898.000000,21032.000000
10716.000000,32106.000000,39872.000000,21027.000000
10686.000000,32130.000000,39843.000000,21001.000000
10654.000000,32067.000000,39863.000000,20983.000000
10655.000000,32071.000000,39888.000000,20970.000000
10620.000000,32041.000000,39854.000000,20960.000000
10637.000000,32028.000000,39831.000000,20988.000000
10578.000000,32033.000000,39828.000000,20994.000000
10635.000000,31980.000000,39809.000000,21009.000000
10571.000000,32007.000000,39782.000000,20971.000000
10551.000000,32023.000000,39790.000000,20975.000000
10530.000000,31941.000000,39845.000000,20957.000000
10547.000000,31949.000000,39765.000000,20966.000000
10526.000000,31921.000000,39765.000000,20948.000000
10466.000000,31861.000000,39715.000000,20929.000000
10444.000000,31851.000000,39716.000000,20927.000000
10407.000000,31850.000000,39699.000000,20913.000000
10372.000000,31802.000000,39713.000000,20911.000000
10271.000000,31711.000000,39602.000000,20894.000000
10272.000000,31672.000000,39613.000000,20867.000000
10221.000000,31638.000000,39666.000000,20847.000000
10259.000000,31628.000000,39595.000000,20849.000000
10159.000000,31579.000000,39562.000000,20840.000000
10210.000000,31586.000000,39559.000000,20850.000000
10205.000000,31546.000000,39530.000000,20828.000000
10154.000000,31585.000000,39582.000000,20851.000000
10219.000000,31564.000000,39582.000000,20810.000000
10161.000000,31625.000000,39587.000000,20807.000000
10195.000000,31632.000000,39596.000000,20806.000000
10234.000000,31636.000000,39579.000000,20857.000000
10261.000000,31683.000000,39590.000000,20808.000000
10256.000000,31710.000000,39625.000000,20809.000000
10319.000000,31774.000000,39685.000000,20875.000000
10368.000000,31785.000000,39675.000000,20852.000000
10341.000000,31805.000000,39689.000000,20863.000000
10374.000000,31872.000000,39716.000000,20872.000000
10419.000000,31889.000000,39737.000000,20884.000000
10494.000000,31990.000000,39796.000000,20911.000000
10529.000000,31986.000000,39802.000000,20911.000000
10588.000000,32035.000000,39833.000000,20929.000000
10598.000000,32089.000000,39857.000000,20893.000000
10622.000000,32109.000000,39885.000000,20953.000000
10668.000000,32128.000000,39872.000000,20941.000000
10679.000000,32186.000000,39902.000000,20966.000000
10707.000000,32236.000000,39931.000000,20957.000000
10742.000000,32289.000000,39986.000000,20970.000000
10859.000000,32456.000000,40025.000000,21025.000000
11057.000000,32645.000000,40167.000000,21064.000000
11128.000000,32708.000000,40231.000000,21061.000000
11139.000000,32811.000000,40271.000000,21108.000000
11206.000000,32855.000000,40319.000000,21142.000000
11276.000000,32898.000000,40355.000000,21147.000000
11265.000000,32986.000000,40365.000000,21162.000000
11314.000000,32999.000000,40374.000000,21176.000000
11313.000000,33031.000000,40427.000000,21173.000000
11350.000000,33067.000000,40417.000000,21217.000000
11400.000000,33063.000000,40418.000000,21195.000000
11386.000000,32988.000000,40382.000000,21196.000000
11365.000000,33047.000000,40396.000000,21195.000000
11346.000000,33005.000000,40352.000000,21215.000000
11318.000000,32968.000000,40361.000000,21207.000000
11334.000000,32942.000000,40358.000000,21216.000000
11306.000000,32958.000000,40360.000000,21220.000000
11318.000000,32916.000000,40361.000000,21193.000000
11309.000000,32930.000000,40325.000000,21195.000000
11301.000000,32912.000000,40327.000000,21178.000000
11269.000000,32945.000000,40330.000000,21162.000000
11268.000000,32939.000000,40362.000000,21174.000000
11306.000000,32855.000000,40356.000000,21172.000000
11271.000000,32891.000000,40315.000000,21186.000000
11251.000000,32904.000000,40315.000000,21191.000000
11205.000000,32889.000000,40322.000000,21189.000000
11229.000000,32875.000000,40316.000000,21200.000000
11242.000000,32867.000000,40292.000000,21155.000000
11194.000000,32856.000000,40283.000000,21149.000000
11166.000000,32832.000000,40279.000000,21210.000000
11160.000000,32770.000000,40246.000000,21133.000000
11138.000000,32717.000000,40283.000000,21152.000000
11126.000000,32750.000000,40251.000000,21169.000000
11113.000000,32729.000000,40196.000000,21146.000000
11113.000000,32693.000000,40239.000000,21142.000000
11067.000000,32688.000000,40214.000000,21117.000000
11109.000000,32668.000000,40190.000000,21110.000000
11015.000000,32665.000000,40173.000000,21114.000000
11018.000000,32676.000000,40190.000000,21140.000000
11027.000000,32575.000000,40196.000000,21102.000000
10978.000000,32564.000000,40139.000000,21082.000000
10934.000000,32556.000000,40111.000000,21064.000000
10929.000000,32529.000000,40113.000000,21070.000000
10931.000000,32500.000000,40098.000000,21104.000000
10920.000000,32485.000000,40080.000000,21096.000000
10892.000000,32424.000000,40078.000000,21075.000000
10870.000000,32445.000000,40057.000000,21044.000000
10852.000000,32413.000000,40050.000000,21077.000000
10825.000000,32389.000000,40019.000000,21060.000000
10804.000000,32377.000000,40004.000000,21067.000000
10777.000000,32253.000000,39988.000000,21074.000000
10716.000000,32260.000000,39902.000000,21050.000000
10729.000000,32218.000000,39948.000000,21043.000000
10726.000000,32189.000000,39886.000000,21037.000000
10656.000000,32087.000000,39883.000000,21005.000000
10626.000000,32102.000000,39859.000000,21002.000000
10601.000000,32067.000000,39841.000000,20994.000000
10566.000000,31986.000000,39802.000000,20987.000000
10537.000000,31988.000000,39770.000000,20992.000000
10503.000000,31969.000000,39800.000000,20984.000000
10478.000000,31937.000000,39768.000000,20974.000000
10437.000000,31859.000000,39723.000000,20932.000000
10394.000000,31841.000000,39721.000000,20948.000000
10399.000000,31806.000000,39694.000000,20980.000000
10414.000000,31797.000000,39689.000000,20938.000000
10406.000000,31756.000000,39698.000000,20943.000000
10365.000000,31750.000000,39666.000000,20918.000000
10335.000000,31714.000000,39695.000000,20917.000000
10332.000000,31699.000000,39642.000000,20935.000000
10332.000000,31696.000000,39625.000000,20928.000000
10267.000000,31633.000000,39610.000000,20914.000000
10276.000000,31600.000000,39598.000000,20902.000000
10166.000000,31536.000000,39572.000000,20894.000000
10170.000000,31517.000000,39533.000000,20869.000000
10145.000000,31517.000000,39534.000000,20855.000000
10126.000000,31509.000000,39519.000000,20863.000000
10093.000000,31470.000000,39514.000000,20863.000000
10094.000000,31435.000000,39475.000000,20849.000000
10067.000000,31416.000000,39477.000000,20840.000000
10049.000000,31411.000000,39470.000000,20824.000000
9999.000000,31399.000000,39437.000000,20805.000000
9929.000000,31316.000000,39388.000000,20791.000000
9944.000000,31218.000000,39395.000000,20818.000000
9879.000000,31211.000000,39415.000000,20752.000000
9894.000000,31217.000000,39362.000000,20769.000000
9818.000000,31157.000000,39311.000000,20777.000000
9848.000000,31154.000000,39339.000000,20788.000000
9887.000000,31159.000000,39334.000000,20766.000000
9859.000000,31177.000000,39347.000000,20758.000000
9870.000000,31194.000000,39335.000000,20768.000000
9852.000000,31237.000000,39341.000000,20790.000000
9922.000000,31231.000000,39391.000000,20773.000000
9959.000000,31320.000000,39445.000000,20778.000000
9992.000000,31364.000000,39469.000000,20779.000000
10031.000000,31351.000000,39452.000000,20797.000000
10095.000000,31377.000000,39467.000000,20809.000000
10129.000000,31545.000000,39521.000000,20810.000000
10192.000000,31551.000000,39563.000000,20814.000000
10194.000000,31593.000000,39545.000000,20824.000000
10251.000000,31627.000000,39609.000000,20834.000000
10289.000000,31683.000000,39603.000000,20874.000000
10378.000000,31768.000000,39663.000000,20895.000000
10404.000000,31817.000000,39705.000000,20885.000000
10435.000000,31887.000000,39740.000000,20899.000000
10467.000000,31868.000000,39779.000000,20885.000000
10590.000000,31997.000000,39788.000000,20915.000000
10597.000000,32064.000000,39853.000000,20925.000000
10648.000000,32091.000000,39892.000000,20965.000000
10694.000000,32119.000000,39906.000000,20961.000000
10761.000000,32185.000000,39879.000000,20982.000000
10805.000000,32255.000000,39921.000000,20953.000000
10824.000000,32276.000000,39995.000000,21003.000000
11006.000000,32499.000000,40104.000000,21048.000000
11081.000000,32592.000000,40148.000000,21091.000000
11158.000000,32640.000000,40227.000000,21097.000000
11236.000000,32711.000000,40231.000000,21102.000000
11374.000000,32901.000000,40353.000000,21212.000000
11393.000000,32937.000000,40335.000000,21199.000000
11340.000000,32946.000000,40367.000000,21183.000000
11360.000000,32949.000000,40362.000000,21225.000000
11405.000000,32908.000000,40381.000000,21193.000000
11379.000000,32938.000000,40390.000000,21224.000000
11328.000000,32952.000000,40368.000000,21215.000000
11348.000000,32938.000000,40365.000000,21183.000000
11397.000000,32893.000000,40370.000000,21187.000000
11372.000000,32890.000000,40340.000000,21204.000000
11339.000000,32859.000000,40319.000000,21206.000000
11324.000000,32853.000000,40311.000000,21186.000000
11282.000000,32859.000000,40308.000000,21193.000000
11267.000000,32806.000000,40288.000000,21223.000000
11257.000000,32799.000000,40272.000000,21193.000000
11269.000000,32833.000000,40266.000000,21181.000000
11256.000000,32791.000000,40293.000000,21189.000000
11259.000000,32779.000000,40263.000000,21171.000000
11207.000000,32738.000000,40269.000000,21165.000000
11223.000000,32747.000000,40262.000000,21145.000000
11220.000000,32747.000000,40253.000000,21180.000000
11221.000000,32742.000000,40238.000000,21155.000000
11196.000000,32744.000000,40260.000000,21149.000000
11177.000000,32724.000000,40253.000000,21129.000000
11160.000000,32733.000000,40197.000000,21137.000000
11155.000000,32693.000000,40236.000000,21170.000000
11166.000000,32662.000000,40250.000000,21125.000000
11144.000000,32652.000000,40199.000000,21128.000000
11112.000000,32618.000000,40158.000000,21147.000000
11116.000000,32617.000000,40182.000000,21124.000000
11083.000000,32631.000000,40173.000000,21141.000000
11097.000000,32582.000000,40154.000000,21097.000000
11047.000000,32573.000000,40137.000000,21097.000000
11028.000000,32527.000000,40145.000000,21104.000000
11010.000000,32501.000000,40121.000000,21108.000000
10956.000000,32456.000000,40072.000000,21070.000000
10935.000000,32456.000000,40098.000000,21084.000000
10944.000000,32408.000000,40063.000000,21086.000000
10889.000000,32412.000000,40028.000000,21048.000000
10913.000000,32350.000000,40022.000000,21042.000000
10869.000000,32337.000000,40042.000000,21042.000000
10830.000000,32321.000000,40022.000000,21044.000000
10827.000000,32319.000000,39996.000000,21031.000000
10794.000000,32254.000000,40013.000000,21037.000000
10793.000000,32301.000000,39956.000000,21037.000000
10749.000000,32203.000000,39982.000000,21047.000000
10726.000000,32195.000000,39943.000000,21047.000000
10743.000000,32184.000000,39903.000000,21051.000000
10654.000000,32112.000000,39895.000000,20991.000000
10666.000000,32108.000000,39918.000000,21004.000000
10582.000000,32078.000000,39857.000000,20965.000000
10614.000000,32039.000000,39853.000000,21019.000000
10604.000000,32053.000000,39854.000000,20977.000000
10549.000000,32048.000000,39847.000000,20972.000000
10584.000000,31998.000000,39829.000000,20966.000000
10585.000000,32025.000000,39846.000000,20976.000000
10562.000000,31998.000000,39793.000000,20964.000000
10498.000000,31961.000000,39804.000000,20960.000000
10467.000000,31921.000000,39778.000000,20949.000000
10441.000000,31875.000000,39788.000000,20956.000000
10487.000000,31883.000000,39752.000000,20960.000000
10434.000000,31861.000000,39765.000000,20945.000000
10367.000000,31785.000000,39727.000000,20907.000000
10358.000000,31763.000000,39704.000000,20887.000000
10315.000000,31736.000000,39688.000000,20875.000000
10283.000000,31723.000000,39693.000000,20871.000000
10255.000000,31653.000000,39638.000000,20868.000000
10223.000000,31639.000000,39619.000000,20850.000000
10216.000000,31616.000000,39629.000000,20844.000000
10152.000000,31578.000000,39551.000000,20832.000000
10156.000000,31531.000000,39566.000000,20828.000000
10100.000000,31497.000000,39551.000000,20818.000000
10111.000000,31484.000000,39537.000000,20814.000000
10055.000000,31492.000000,39540.000000,20836.000000
10061.000000,31465.000000,39528.000000,20800.000000
10085.000000,31440.000000,39517.000000,20808.000000
10043.000000,31409.000000,39504.000000,20791.000000
10079.000000,31396.000000,39531.000000,20784.000000
10056.000000,31439.000000,39508.000000,20809.000000
10087.000000,31513.000000,39523.000000,20804.000000
10137.000000,31488.000000,39527.000000,20800.000000
10146.000000,31548.000000,39539.000000,20790.000000
10190.000000,31599.000000,39572.000000,20819.000000
10156.000000,31594.000000,39577.000000,20818.000000
10217.000000,31597.000000,39594.000000,20823.000000
10220.000000,31637.000000,39616.000000,20815.000000
10238.000000,31671.000000,39632.000000,20840.000000
10332.000000,31790.000000,39692.000000,20871.000000
10423.000000,31849.000000,39765.000000,20867.000000
10503.000000,31888.000000,39773.000000,20878.000000
10569.000000,31961.000000,39782.000000,20900.000000
10558.000000,31985.000000,39791.000000,20906.000000
10650.000000,32088.000000,39885.000000,20921.000000
10679.000000,32135.000000,39923.000000,20914.000000
10724.000000,32107.000000,39957.000000,20934.000000
10783.000000,32191.000000,39958.000000,20953.000000
10791.000000,32235.000000,39941.000000,20995.000000
10830.000000,32296.000000,39998.000000,20957.000000
10823.000000,32336.000000,40018.000000,20975.000000
10902.000000,32364.000000,40048.000000,21000.000000
10970.000000,32392.000000,40116.000000,21000.000000
11155.000000,32619.000000,40219.000000,21045.000000
11225.000000,32643.000000,40225.000000,21091.000000
11352.000000,32854.000000,40377.000000,21127.000000
11384.000000,32905.000000,40361.000000,21172.000000
11445.000000,32950.000000,40369.000000,21170.000000
11475.000000,33006.000000,40401.000000,21201.000000
11464.000000,32987.000000,40437.000000,21169.000000
11470.000000,32983.000000,40449.000000,21187.000000
11483.000000,32951.000000,40442.000000,21205.000000
11459.000000,32978.000000,40402.000000,21198.000000
11444.000000,32975.000000,40383.000000,21227.000000
11438.000000,32944.000000,40403.000000,21192.000000
11430.000000,32934.000000,40362.000000,21187.000000
11396.000000,32917.000000,40362.000000,21218.000000
11385.000000,32900.000000,40344.000000,21179.000000
11366.000000,32879.000000,40344.000000,21194.000000
11322.000000,32850.000000,40316.000000,21197.000000
11324.000000,32769.000000,40334.000000,21165.000000
11329.000000,32790.000000,40326.000000,21163.000000
11320.000000,32792.000000,40297.000000,21192.000000
11327.000000,32758.000000,40264.000000,21161.000000
11291.000000,32733.000000,40292.000000,21154.000000
11269.000000,32727.000000,40275.000000,21170.000000
11259.000000,32730.000000,40271.000000,21141.000000
11244.000000,32730.000000,40265.000000,21163.000000
11242.000000,32706.000000,40258.000000,21149.000000
11247.000000,32745.000000,40218.000000,21146.000000
11143.000000,32671.000000,40257.000000,21132.000000
11146.000000,32641.000000,40189.000000,21141.000000
11143.000000,32678.000000,40198.000000,21151.000000
11108.000000,32601.000000,40191.000000,21113.000000
11108.000000,32546.000000,40169.000000,21107.000000
11054.000000,32508.000000,40168.000000,21093.000000
11041.000000,32496.000000,40159.000000,21088.000000
11031.000000,32522.000000,40124.000000,21100.000000
11026.000000,32491.000000,40111.000000,21137.000000
11014.000000,32462.000000,40100.000000,21080.000000
10893.000000,32419.000000,40071.000000,21064.000000
10909.000000,32365.000000,40072.000000,21066.000000
10925.000000,32363.000000,40039.000000,21056.000000
10912.000000,32401.000000,40006.000000,21057.000000
10934.000000,32350.000000,40013.000000,21049.000000
10880.000000,32321.000000,40022.000000,21013.000000
10842.000000,32325.000000,39970.000000,21014.000000
10849.000000,32298.000000,40013.000000,21020.000000
10777.000000,32258.000000,39965.000000,21050.000000
10809.000000,32267.000000,39993.000000,21026.000000
10781.000000,32215.000000,39985.000000,21006.000000
10763.000000,32167.000000,39942.000000,20993.000000
10725.000000,32153.000000,39927.000000,21007.000000
10725.000000,32075.000000,39888.000000,20982.000000
10682.000000,32091.000000,39883.000000,20942.000000
10650.000000,32096.000000,39870.000000,21001.000000
10622.000000,32063.000000,39850.000000,20960.000000
10596.000000,32021.000000,39837.000000,20976.000000
10615.000000,31993.000000,39839.000000,20972.000000
10579.000000,31983.000000,39808.000000,20946.000000
10577.000000,31985.000000,39813.000000,20948.000000
10538.000000,31956.000000,39814.000000,20927.000000
10467.000000,31916.000000,39765.000000,20926.000000
10494.000000,31888.000000,39806.000000,20933.000000
10424.000000,31849.000000,39738.000000,20903.000000
10402.000000,31811.000000,39741.000000,20909.000000
10386.000000,31778.000000,39707.000000,20880.000000
10326.000000,31750.000000,39670.000000,20879.000000
10322.000000,31721.000000,39671.000000,20854.000000
10301.000000,31704.000000,39645.000000,20865.000000
10217.000000,31593.000000,39568.000000,20836.000000
10181.000000,31566.000000,39566.000000,20824.000000
10109.000000,31531.000000,39553.000000,20817.000000
10104.000000,31463.000000,39549.000000,20790.000000
10054.000000,31391.000000,39491.000000,20796.000000
9996.000000,31384.000000,39462.000000,20775.000000
10015.000000,31362.000000,39493.000000,20773.000000
10021.000000,31380.000000,39454.000000,20776.000000
10016.000000,31370.000000,39439.000000,20758.000000
9994.000000,31353.000000,39467.000000,20758.000000
10035.000000,31377.000000,39472.000000,20746.000000
10022.000000,31397.000000,39444.000000,20768.000000
10020.000000,31395.000000,39468.000000,20764.000000
10053.000000,31369.000000,39467.000000,20766.000000
10071.000000,31460.000000,39480.000000,20802.000000
10108.000000,31490.000000,39544.000000,20787.000000
10127.000000,31511.000000,39541.000000,20809.000000
10219.000000,31612.000000,39590.000000,20827.000000
10277.000000,31616.000000,39602.000000,20804.000000
10306.000000,31680.000000,39605.000000,20807.000000
10286.000000,31715.000000,39631.000000,20842.000000
10418.000000,31789.000000,39671.000000,20830.000000
10418.000000,31837.000000,39717.000000,20843.000000
10477.000000,31925.000000,39763.000000,20882.000000
10535.000000,31954.000000,39785.000000,20906.000000
10586.000000,32018.000000,39806.000000,20884.000000
10710.000000,32101.000000,39888.000000,20899.000000
10758.000000,32174.000000,39902.000000,20942.000000
10764.000000,32236.000000,39931.000000,20968.000000
10820.000000,32280.000000,39970.000000,20956.000000
10991.000000,32477.000000,40085.000000,21047.000000
11035.000000,32573.000000,40144.000000,21056.000000
11142.000000,32640.000000,40191.000000,21106.000000
11178.000000,32670.000000,40183.000000,21109.000000
11196.000000,32729.000000,40216.000000,21097.000000
11264.000000,32831.000000,40267.000000,21164.000000
11270.000000,32801.000000,40265.000000,21161.000000
11231.000000,32795.000000,40230.000000,21156.000000
11275.000000,32772.000000,40257.000000,21156.000000
11229.000000,32723.000000,40225.000000,21155.000000
11162.000000,32743.000000,40218.000000,21180.000000
11194.000000,32700.000000,40219.000000,21150.000000
11179.000000,32658.000000,40208.000000,21133.000000
11159.000000,32702.000000,40167.000000,21146.000000
11154.000000,32680.000000,40188.000000,21132.000000
11160.000000,32663.000000,40191.000000,21136.000000
11113.000000,32641.000000,40184.000000,21133.000000
11110.000000,32580.000000,40168.000000,21148.000000
11117.000000,32603.000000,40151.000000,21156.000000
11091.000000,32640.000000,40143.000000,21149.000000
11080.000000,32607.000000,40165.000000,21125.000000
11081.000000,32578.000000,40137.000000,21116.000000
11085.000000,32550.000000,40149.000000,21146.000000
11112.000000,32531.000000,40128.000000,21093.000000
11054.000000,32539.000000,40131.000000,21100.000000
11060.000000,32508.000000,40103.000000,21116.000000
11032.000000,32556.000000,40121.000000,21110.000000
11008.000000,32545.000000,40108.000000,21110.000000
10968.000000,32484.000000,40091.000000,21110.000000
10967.000000,32437.000000,40064.000000,21102.000000
10994.000000,32402.000000,40058.000000,21047.000000
10925.000000,32439.000000,40057.000000,21080.000000
10935.000000,32402.000000,40051.000000,21086.000000
10898.000000,32353.000000,40001.000000,21056.000000
10847.000000,32339.000000,40008.000000,21037.000000
10853.000000,32277.000000,39996.000000,21056.000000
10856.000000,32274.000000,39972.000000,21057.000000
10796.000000,32294.000000,39960.000000,21047.000000
10832.000000,32246.000000,39937.000000,21052.000000
10784.000000,32240.000000,39942.000000,21029.000000
10789.000000,32183.000000,39891.000000,21021.000000
10793.000000,32155.000000,39935.000000,21024.000000
10743.000000,32141.000000,39916.000000,20997.000000
10747.000000,32124.000000,39876.000000,20995.000000
10724.000000,32074.000000,39908.000000,21011.000000
10693.000000,32107.000000,39879.000000,20989.000000
10672.000000,32050.000000,39855.000000,20990.000000
10618.000000,32056.000000,39860.000000,20974.000000
10643.000000,31972.000000,39842.000000,20967.000000
10621.000000,31988.000000,39819.000000,20955.000000
10595.000000,31995.000000,39828.000000,20974.000000
10567.000000,31929.000000,39786.000000,20945.000000
10515.000000,31937.000000,39796.000000,20967.000000
10518.000000,31915.000000,39758.000000,20934.000000
10481.000000,31901.000000,39758.000000,20958.000000
10499.000000,31848.000000,39759.000000,20944.000000
10486.000000,31839.000000,39738.000000,20924.000000
10427.000000,31775.000000,39725.000000,20917.000000
10415.000000,31784.000000,39665.000000,20893.000000
10398.000000,31767.000000,39690.000000,20898.000000
10401.000000,31738.000000,39713.000000,20888.000000
10341.000000,31705.000000,39653.000000,20905.000000
10380.000000,31721.000000,39648.000000,20900.000000
10334.000000,31708.000000,39624.000000,20846.000000
10299.000000,31688.000000,39637.000000,20884.000000
10280.000000,31650.000000,39610.000000,20872.000000
10312.000000,31600.000000,39624.000000,20877.000000
10251.000000,31546.000000,39573.000000,20855.000000
10221.000000,31529.000000,39557.000000,20834.000000
10201.000000,31507.000000,39533.000000,20829.000000
10172.000000,31485.000000,39544.000000,20805.000000
10145.000000,31420.000000,39512.000000,20823.000000
10089.000000,31366.000000,39470.000000,20794.000000
10026.000000,31325.000000,39462.000000,20783.000000
9952.000000,31260.000000,39375.000000,20772.000000
9926.000000,31201.000000,39416.000000,20762.000000
9933.000000,31203.000000,39352.000000,20733.000000
9919.000000,31187.000000,39357.000000,20755.000000
9878.000000,31181.000000,39347.000000,20743.000000
9860.000000,31185.000000,39349.000000,20746.000000
9859.000000,31148.000000,39343.000000,20724.000000
9884.000000,31155.000000,39349.000000,20724.000000
9905.000000,31138.000000,39375.000000,20739.000000
9925.000000,31209.000000,39391.000000,20722.000000
9972.000000,31253.000000,39427.000000,20739.000000
10015.000000,31266.000000,39420.000000,20743.000000
10021.000000,31332.000000,39441.000000,20750.000000
10028.000000,31361.000000,39453.000000,20762.000000
10073.000000,31387.000000,39456.000000,20750.000000
10127.000000,31423.000000,39480.000000,20784.000000
10156.000000,31447.000000,39506.000000,20797.000000
10292.000000,31565.000000,39575.000000,20802.000000
10277.000000,31642.000000,39603.000000,20795.000000
10287.000000,31665.000000,39620.000000,20826.000000
10409.000000,31790.000000,39724.000000,20834.000000
10467.000000,31818.000000,39753.000000,20836.000000
10505.000000,31868.000000,39752.000000,20838.000000
10536.000000,31905.000000,39775.000000,20865.000000
10569.000000,31928.000000,39802.000000,20855.000000
10591.000000,32004.000000,39831.000000,20892.000000
10631.000000,32022.000000,39829.000000,20901.000000
10687.000000,32043.000000,39834.000000,20898.000000
10781.000000,32175.000000,39937.000000,20917.000000
10835.000000,32193.000000,39940.000000,20925.000000
10977.000000,32385.000000,40080.000000,20999.000000
11037.000000,32452.000000,40105.000000,21006.000000
11115.000000,32542.000000,40156.000000,21032.000000
11179.000000,32645.000000,40200.000000,21069.000000
11231.000000,32659.000000,40256.000000,21099.000000
11298.000000,32747.000000,40244.000000,21104.000000
11327.000000,32810.000000,40309.000000,21122.000000
11357.000000,32826.000000,40318.000000,21141.000000
11417.000000,32857.000000,40312.000000,21132.000000
11418.000000,32867.000000,40351.000000,21139.000000
11422.000000,32882.000000,40374.000000,21121.000000
11453.000000,32879.000000,40357.000000,21184.000000
11420.000000,32932.000000,40358.000000,21181.000000
11412.000000,32928.000000,40355.000000,21152.000000
11391.000000,32905.000000,40376.000000,21152.000000
11373.000000,32885.000000,40352.000000,21141.000000
11351.000000,32853.000000,40340.000000,21165.000000
11356.000000,32882.000000,40332.000000,21146.000000
11380.000000,32820.000000,40333.000000,21142.000000
11341.000000,32815.000000,40327.000000,21118.000000
11313.000000,32848.000000,40309.000000,21150.000000
11314.000000,32765.000000,40281.000000,21132.000000
11287.000000,32798.000000,40268.000000,21111.000000
11269.000000,32758.000000,40254.000000,21137.000000
11256.000000,32703.000000,40236.000000,21095.000000
11235.000000,32685.000000,40226.000000,21124.000000
11195.000000,32691.000000,40216.000000,21103.000000
11206.000000,32632.000000,40235.000000,21094.000000
11204.000000,32659.000000,40233.000000,21084.000000
11191.000000,32633.000000,40181.000000,21091.000000
11161.000000,32631.000000,40199.000000,21113.000000
11155.000000,32628.000000,40227.000000,21110.000000
11130.000000,32624.000000,40158.000000,21107.000000
11111.000000,32568.000000,40154.000000,21093.000000
11069.000000,32514.000000,40199.000000,21066.000000
11087.000000,32499.000000,40137.000000,21054.000000
11097.000000,32510.000000,40110.000000,21076.000000
11056.000000,32495.000000,40108.000000,21080.000000
11040.000000,32498.000000,40124.000000,21029.000000
11002.000000,32403.000000,40078.000000,21066.000000
10986.000000,32425.000000,40052.000000,21066.000000
10959.000000,32364.000000,40055.000000,21056.000000
10972.000000,32391.000000,40065.000000,21011.000000
10935.000000,32373.000000,40021.000000,21034.000000
10904.000000,32351.000000,40055.000000,21034.000000
10909.000000,32351.000000,40016.000000,21031.000000
10946.000000,32323.000000,40001.000000,21031.000000
10911.000000,32296.000000,40006.000000,21004.000000
10824.000000,32250.000000,40000.000000,20971.000000
10766.000000,32226.000000,39941.000000,20965.000000
10758.000000,32201.000000,39944.000000,20963.000000
10772.000000,32127.000000,39940.000000,20981.000000
10766.000000,32097.000000,39931.000000,20979.000000
10721.000000,32115.000000,39866.000000,20939.000000
10695.000000,32077.000000,39898.000000,20943.000000
10639.000000,32022.000000,39845.000000,20990.000000
10612.000000,32021.000000,39823.000000,20927.000000
10549.000000,31919.000000,39804.000000,20918.000000
10493.000000,31908.000000,39787.000000,20915.000000
10535.000000,31876.000000,39756.000000,20901.000000
10496.000000,31878.000000,39732.000000,20928.000000
10478.000000,31880.000000,39737.000000,20887.000000
10417.000000,31770.000000,39703.000000,20895.000000
10423.000000,31815.000000,39675.000000,20831.000000
10391.000000,31765.000000,39688.000000,20875.000000
10388.000000,31756.000000,39709.000000,20849.000000
10368.000000,31696.000000,39660.000000,20852.000000
10284.000000,31656.000000,39656.000000,20846.000000
10295.000000,31607.000000,39625.000000,20853.000000
10265.000000,31607.000000,39601.000000,20834.000000
10251.000000,31612.000000,39564.000000,20824.000000
10206.000000,31570.000000,39545.000000,20827.000000
10166.000000,31514.000000,39566.000000,20792.000000
10193.000000,31489.000000,39531.000000,20806.000000
10095.000000,31434.000000,39477.000000,20759.000000
10060.000000,31385.000000,39470.000000,20757.000000
10048.000000,31336.000000,39476.000000,20752.000000
10046.000000,31344.000000,39453.000000,20710.000000
10009.000000,31291.000000,39460.000000,20721.000000
9983.000000,31272.000000,39391.000000,20710.000000
9927.000000,31281.000000,39369.000000,20716.000000
9937.000000,31247.000000,39431.000000,20718.000000
9949.000000,31245.000000,39409.000000,20703.000000
9939.000000,31264.000000,39413.000000,20736.000000
9991.000000,31251.000000,39403.000000,20712.000000
9980.000000,31291.000000,39402.000000,20691.000000
9984.000000,31312.000000,39424.000000,20714.000000
10053.000000,31383.000000,39432.000000,20717.000000
10092.000000,31383.000000,39480.000000,20729.000000
10062.000000,31440.000000,39481.000000,20728.000000
10116.000000,31424.000000,39526.000000,20724.000000
10159.000000,31474.000000,39573.000000,20732.000000
10187.000000,31474.000000,39550.000000,20746.000000
10248.000000,31562.000000,39562.000000,20763.000000
10333.000000,31670.000000,39655.000000,20774.000000
10375.000000,31680.000000,39666.000000,20809.000000
10464.000000,31834.000000,39740.000000,20818.000000
10491.000000,31844.000000,39775.000000,20831.000000
10572.000000,31881.000000,39774.000000,20859.000000
10572.000000,31964.000000,39811.000000,20858.000000
10576.000000,31983.000000,39812.000000,20864.000000
10636.000000,32008.000000,39853.000000,20853.000000
10666.000000,32041.000000,39836.000000,20864.000000
10707.000000,32049.000000,39863.000000,20886.000000
10798.000000,32216.000000,39968.000000,20894.000000
10872.000000,32246.000000,39997.000000,20919.000000
11025.000000,32467.000000,40094.000000,21007.000000
11118.000000,32538.000000,40124.000000,21032.000000
11207.000000,32606.000000,40175.000000,21051.000000
11246.000000,32663.000000,40198.000000,21026.000000
11251.000000,32722.000000,40257.000000,21074.000000
11285.000000,32776.000000,40298.000000,21109.000000
11380.000000,32849.000000,40332.000000,21115.000000
11385.000000,32879.000000,40376.000000,21140.000000
11421.000000,32843.000000,40358.000000,21137.000000
11394.000000,32880.000000,40340.000000,21130.000000
11372.000000,32870.000000,40379.000000,21124.000000
11403.000000,32873.000000,40339.000000,21110.000000
11357.000000,32883.000000,40321.000000,21126.000000
11370.000000,32858.000000,40328.000000,21138.000000
11346.000000,32805.000000,40298.000000,21111.000000
11315.000000,32823.000000,40299.000000,21086.000000
11279.000000,32789.000000,40269.000000,21107.000000
11305.000000,32779.000000,40316.000000,21085.000000
11278.000000,32727.000000,40264.000000,21092.000000
11254.000000,32694.000000,40273.000000,21088.000000
11242.000000,32704.000000,40225.000000,21100.000000
11221.000000,32702.000000,40241.000000,21106.000000
11223.000000,32691.000000,40181.000000,21084.000000
11169.000000,32655.000000,40216.000000,21044.000000
11170.000000,32636.000000,40225.000000,21054.000000
11159.000000,32618.000000,40218.000000,21073.000000
11148.000000,32591.000000,40220.000000,21038.000000
11145.000000,32596.000000,40175.000000,21069.000000
11110.000000,32621.000000,40143.000000,21066.000000
11090.000000,32555.000000,40163.000000,21054.000000
11107.000000,32531.000000,40150.000000,21004.000000
11033.000000,32529.000000,40143.000000,21058.000000
11053.000000,32519.000000,40126.000000,21034.000000
11016.000000,32518.000000,40124.000000,21037.000000
11040.000000,32493.000000,40110.000000,21039.000000
11031.000000,32483.000000,40106.000000,21031.000000
10991.000000,32466.000000,40114.000000,21014.000000
11019.000000,32443.000000,40117.000000,21005.000000
10986.000000,32420.000000,40086.000000,21019.000000
10939.000000,32378.000000,40030.000000,20980.000000
10909.000000,32360.000000,40063.000000,20960.000000
10905.000000,32345.000000,40028.000000,20986.000000
10887.000000,32314.000000,40030.000000,20969.000000
10894.000000,32297.000000,39997.000000,20983.000000
10823.000000,32322.000000,40007.000000,20949.000000
10821.000000,32259.000000,39993.000000,20967.000000
10784.000000,32246.000000,39967.000000,20972.000000
10787.000000,32232.000000,39971.000000,20975.000000
10791.000000,32212.000000,39935.000000,20942.000000
10721.000000,32218.000000,39951.000000,20929.000000
10741.000000,32156.000000,39941.000000,20947.000000
10667.000000,32139.000000,39867.000000,20931.000000
10655.000000,32107.000000,39886.000000,20912.000000
10642.000000,32040.000000,39880.000000,20900.000000
10624.000000,32017.000000,39865.000000,20921.000000
10632.000000,32017.000000,39846.000000,20901.000000
10571.000000,31942.000000,39823.000000,20874.000000
10567.000000,31940.000000,39796.000000,20912.000000
10566.000000,31916.000000,39806.000000,20875.000000
10529.000000,31905.000000,39789.000000,20856.000000
10522.000000,31902.000000,39711.000000,20866.000000
10473.000000,31874.000000,39767.000000,20865.000000
10450.000000,31858.000000,39756.000000,20837.000000
10502.000000,31811.000000,39757.000000,20842.000000
10447.000000,31819.000000,39744.000000,20824.000000
10383.000000,31773.000000,39728.000000,20823.000000
10396.000000,31757.000000,39693.000000,20838.000000
10351.000000,31776.000000,39702.000000,20819.000000
10330.000000,31748.000000,39666.000000,20818.000000
10289.000000,31682.000000,39642.000000,20806.000000
10270.000000,31679.000000,39621.000000,20785.000000
10274.000000,31659.000000,39617.000000,20826.000000
10224.000000,31638.000000,39589.000000,20771.000000
10182.000000,31489.000000,39565.000000,20774.000000
10144.000000,31504.000000,39544.000000,20749.000000
10098.000000,31465.000000,39501.000000,20740.000000
10062.000000,31421.000000,39494.000000,20734.000000
10062.000000,31401.000000,39480.000000,20723.000000
9970.000000,31330.000000,39455.000000,20711.000000
9986.000000,31298.000000,39412.000000,20729.000000
9937.000000,31317.000000,39442.000000,20719.000000
9974.000000,31308.000000,39416.000000,20707.000000
9950.000000,31300.000000,39450.000000,20680.000000
9928.000000,31282.000000,39443.000000,20713.000000
9991.000000,31308.000000,39430.000000,20682.000000
10007.000000,31337.000000,39454.000000,20704.000000
10063.000000,31415.000000,39461.000000,20712.000000
10075.000000,31403.000000,39517.000000,20713.000000
10107.000000,31420.000000,39520.000000,20731.000000
10142.000000,31476.000000,39520.000000,20725.000000
10174.000000,31540.000000,39535.000000,20731.000000
10168.000000,31541.000000,39570.000000,20719.000000
10233.000000,31565.000000,39560.000000,20751.000000
10310.000000,31702.000000,39670.000000,20789.000000
10356.000000,31695.000000,39650.000000,20781.000000
10391.000000,31729.000000,39667.000000,20777.000000
10401.000000,31816.000000,39670.000000,20810.000000
10561.000000,31883.000000,39773.000000,20807.000000
10605.000000,31937.000000,39808.000000,20802.000000
10594.000000,32004.000000,39793.000000,20814.000000
10631.000000,32041.000000,39828.000000,20819.000000
10646.000000,32084.000000,39881.000000,20831.000000
10771.000000,32198.000000,39939.000000,20860.000000
10790.000000,32221.000000,39957.000000,20879.000000
10858.000000,32223.000000,39975.000000,20915.000000
10895.000000,32366.000000,39989.000000,20937.000000
10949.000000,32414.000000,40041.000000,20910.000000
10981.000000,32434.000000,40089.000000,20930.000000
11065.000000,32469.000000,40124.000000,20960.000000
11261.000000,32757.000000,40259.000000,21038.000000
11342.000000,32841.000000,40306.000000,21073.000000
11373.000000,32867.000000,40302.000000,21071.000000
11370.000000,32895.000000,40351.000000,21101.000000
11380.000000,32860.000000,40346.000000,21115.000000
11423.000000,32911.000000,40348.000000,21122.000000
11377.000000,32873.000000,40340.000000,21094.000000
11377.000000,32866.000000,40345.000000,21105.000000
11393.000000,32841.000000,40315.000000,21097.000000
11372.000000,32853.000000,40302.000000,21104.000000
11338.000000,32828.000000,40319.000000,21116.000000
11328.000000,32816.000000,40306.000000,21089.000000
11335.000000,32787.000000,40286.000000,21075.000000
11328.000000,32787.000000,40288.000000,21102.000000
11310.000000,32762.000000,40264.000000,21077.000000
11283.000000,32778.000000,40266.000000,21048.000000
11279.000000,32761.000000,40278.000000,21075.000000
11244.000000,32746.000000,40256.000000,21040.000000
11250.000000,32713.000000,40234.000000,21062.000000
11249.000000,32690.000000,40236.000000,21058.000000
11221.000000,32691.000000,40190.000000,21055.000000
11176.000000,32620.000000,40201.000000,21018.000000
11198.000000,32582.000000,40155.000000,21031.000000
11140.000000,32597.000000,40181.000000,21050.000000
11126.000000,32620.000000,40140.000000,21048.000000
11099.000000,32472.000000,40122.000000,21034.000000
11049.000000,32490.000000,40139.000000,21027.000000
11045.000000,32512.000000,40084.000000,21026.000000
11047.000000,32480.000000,40079.000000,21012.000000
11040.000000,32463.000000,40068.000000,21010.000000
11039.000000,32441.000000,40058.000000,21025.000000
11020.000000,32434.000000,40078.000000,20992.000000
11015.000000,32449.000000,40073.000000,20965.000000
10964.000000,32368.000000,40029.000000,20996.000000
10931.000000,32343.000000,39999.000000,20981.000000
10903.000000,32269.000000,40016.000000,20953.000000
10871.000000,32298.000000,40003.000000,20974.000000
10861.000000,32300.000000,39985.000000,20978.000000
10845.000000,32304.000000,39972.000000,20953.000000
10830.000000,32271.000000,39952.000000,20967.000000
10858.000000,32175.000000,39951.000000,20960.000000
10818.000000,32200.000000,39937.000000,20947.000000
10770.000000,32195.000000,39919.000000,20959.000000
10708.000000,32100.000000,39888.000000,20916.000000
10700.000000,32112.000000,39878.000000,20913.000000
10685.000000,32057.000000,39874.000000,20905.000000
10689.000000,32049.000000,39866.000000,20895.000000
10672.000000,32011.000000,39842.000000,20894.000000
10579.000000,31962.000000,39808.000000,20895.000000
10620.000000,31922.000000,39828.000000,20874.000000
10595.000000,31944.000000,39779.000000,20846.000000
10512.000000,31876.000000,39753.000000,20861.000000
10515.000000,31854.000000,39745.000000,20851.000000
10438.000000,31789.000000,39709.000000,20790.000000
10450.000000,31781.000000,39677.000000,20841.000000
10463.000000,31759.000000,39667.000000,20818.000000
10412.000000,31757.000000,39665.000000,20819.000000
10371.000000,31745.000000,39670.000000,20837.000000
10378.000000,31718.000000,39609.000000,20830.000000
10392.000000,31702.000000,39646.000000,20817.000000
10369.000000,31679.000000,39638.000000,20809.000000
10310.000000,31590.000000,39592.000000,20802.000000
10266.000000,31580.000000,39593.000000,20773.000000
10278.000000,31563.000000,39597.000000,20773.000000
10243.000000,31572.000000,39562.000000,20783.000000
10237.000000,31533.000000,39542.000000,20768.000000
10141.000000,31469.000000,39496.000000,20732.000000
10116.000000,31438.000000,39510.000000,20738.000000
10048.000000,31373.000000,39414.000000,20722.000000
10015.000000,31333.000000,39417.000000,20728.000000
10005.000000,31264.000000,39441.000000,20699.000000
9984.000000,31264.000000,39385.000000,20693.000000
9961.000000,31231.000000,39373.000000,20680.000000
9938.000000,31208.000000,39407.000000,20657.000000
9886.000000,31196.000000,39340.000000,20689.000000
9889.000000,31154.000000,39328.000000,20675.000000
9884.000000,31157.000000,39305.000000,20630.000000
9827.000000,31131.000000,39316.000000,20628.000000
9837.000000,31076.000000,39306.000000,20645.000000
9854.000000,31133.000000,39336.000000,20658.000000
9887.000000,31143.000000,39312.000000,20653.000000
9926.000000,31158.000000,39314.000000,20648.000000
9972.000000,31181.000000,39364.000000,20636.000000
9927.000000,31241.000000,39397.000000,20676.000000
10031.000000,31318.000000,39422.000000,20672.000000
10013.000000,31385.000000,39423.000000,20676.000000
10082.000000,31409.000000,39460.000000,20699.000000
10132.000000,31428.000000,39467.000000,20713.000000
10161.000000,31449.000000,39503.000000,20696.000000
10179.000000,31516.000000,39558.000000,20711.000000
10230.000000,31559.000000,39571.000000,20712.000000
10348.000000,31657.000000,39617.000000,20733.000000
10352.000000,31691.000000,39644.000000,20724.000000
10396.000000,31721.000000,39672.000000,20757.000000
10484.000000,31749.000000,39703.000000,20788.000000
10475.000000,31825.000000,39701.000000,20774.000000
10583.000000,31920.000000,39744.000000,20819.000000
10606.000000,31939.000000,39782.000000,20794.000000
10652.000000,32005.000000,39813.000000,20819.000000
10666.000000,32013.000000,39856.000000,20841.000000
10761.000000,32044.000000,39842.000000,20857.000000
10778.000000,32148.000000,39896.000000,20843.000000
10958.000000,32279.000000,39992.000000,20913.000000
11005.000000,32357.000000,40028.000000,20909.000000
11022.000000,32428.000000,40052.000000,20954.000000
11100.000000,32537.000000,40111.000000,20980.000000
11159.000000,32576.000000,40149.000000,20992.000000
11253.000000,32664.000000,40187.000000,21012.000000
11292.000000,32746.000000,40241.000000,21056.000000
11287.000000,32789.000000,40277.000000,21031.000000
11414.000000,32865.000000,40328.000000,21057.000000
11392.000000,32887.000000,40335.000000,21103.000000
11394.000000,32889.000000,40338.000000,21062.000000
11413.000000,32846.000000,40327.000000,21086.000000
11396.000000,32857.000000,40324.000000,21081.000000
11344.000000,32851.000000,40302.000000,21083.000000
11349.000000,32786.000000,40302.000000,21068.000000
11369.000000,32832.000000,40283.000000,21063.000000
11360.000000,32772.000000,40264.000000,21071.000000
11298.000000,32698.000000,40263.000000,21063.000000
11308.000000,32735.000000,40269.000000,21054.000000
11317.000000,32733.000000,40246.000000,21068.000000
11266.000000,32736.000000,40264.000000,21044.000000
11223.000000,32712.000000,40176.000000,21056.000000
11264.000000,32678.000000,40233.000000,21071.000000
11231.000000,32633.000000,40223.000000,21018.000000
11228.000000,32653.000000,40180.000000,21060.000000
11239.000000,32624.000000,40183.000000,21069.000000
11157.000000,32606.000000,40159.000000,21015.000000
11184.000000,32584.000000,40149.000000,21046.000000
11097.000000,32499.000000,40132.000000,21015.000000
11109.000000,32495.000000,40112.000000,21004.000000
11099.000000,32532.000000,40080.000000,20990.000000
11046.000000,32500.000000,40098.000000,20991.000000
11105.000000,32461.000000,40091.000000,20989.000000
11047.000000,32451.000000,40071.000000,20999.000000
11046.000000,32483.000000,40064.000000,20986.000000
11016.000000,32428.000000,40065.000000,20987.000000
10977.000000,32423.000000,40051.000000,21004.000000
10983.000000,32381.000000,40067.000000,20964.000000
10962.000000,32353.000000,40006.000000,20975.000000
10918.000000,32326.000000,40009.000000,20938.000000
10882.000000,32284.000000,39947.000000,20955.000000
10847.000000,32247.000000,39994.000000,20949.000000
10864.000000,32252.000000,39946.000000,20949.000000
10862.000000,32212.000000,39938.000000,20925.000000
10846.000000,32189.000000,39966.000000,20922.000000
10821.000000,32117.000000,39906.000000,20928.000000
10766.000000,32152.000000,39879.000000,20896.000000
10746.000000,32106.000000,39867.000000,20915.000000
10725.000000,32072.000000,39886.000000,20918.000000
10742.000000,32071.000000,39867.000000,20885.000000
10712.000000,32073.000000,39859.000000,20886.000000
10719.000000,32072.000000,39850.000000,20889.000000
10629.000000,31944.000000,39774.000000,20851.000000
10586.000000,31964.000000,39776.000000,20869.000000
10602.000000,31905.000000,39772.000000,20883.000000
10580.000000,31910.000000,39744.000000,20853.000000
10509.000000,31805.000000,39733.000000,20825.000000
10478.000000,31785.000000,39682.000000,20796.000000
10405.000000,31753.000000,39671.000000,20813.000000
10409.000000,31732.000000,39665.000000,20807.000000
10414.000000,31705.000000,39665.000000,20794.000000
10397.000000,31696.000000,39650.000000,20788.000000
10346.000000,31627.000000,39577.000000,20774.000000
10316.000000,31605.000000,39594.000000,20793.000000
10320.000000,31607.000000,39558.000000,20778.000000
10316.000000,31622.000000,39587.000000,20772.000000
10308.000000,31535.000000,39562.000000,20730.000000
10265.000000,31558.000000,39578.000000,20735.000000
10233.000000,31526.000000,39558.000000,20738.000000
10214.000000,31472.000000,39526.000000,20751.000000
10211.000000,31490.000000,39512.000000,20752.000000
10151.000000,31489.000000,39470.000000,20739.000000
10130.000000,31434.000000,39494.000000,20723.000000
10083.000000,31333.000000,39447.000000,20698.000000
10018.000000,31326.000000,39426.000000,20708.000000
10015.000000,31291.000000,39377.000000,20673.000000
10010.000000,31266.000000,39352.000000,20664.000000
9950.000000,31224.000000,39381.000000,20647.000000
9911.000000,31213.000000,39343.000000,20668.000000
9935.000000,31146.000000,39313.000000,20661.000000
9910.000000,31188.000000,39318.000000,20634.000000
9900.000000,31136.000000,39294.000000,20622.000000
9879.000000,31151.000000,39315.000000,20664.000000
9892.000000,31154.000000,39309.000000,20630.000000
9864.000000,31141.000000,39329.000000,20637.000000
9844.000000,31152.000000,39349.000000,20645.000000
9930.000000,31229.000000,39368.000000,20636.000000
9959.000000,31235.000000,39374.000000,20647.000000
10010.000000,31314.000000,39420.000000,20664.000000
10062.000000,31364.000000,39438.000000,20668.000000
10132.000000,31465.000000,39482.000000,20686.000000
10179.000000,31481.000000,39512.000000,20676.000000
10213.000000,31504.000000,39517.000000,20697.000000
10303.000000,31655.000000,39595.000000,20720.000000
10323.000000,31660.000000,39590.000000,20739.000000
10388.000000,31687.000000,39617.000000,20762.000000
10399.000000,31771.000000,39648.000000,20721.000000
10435.000000,31788.000000,39665.000000,20738.000000
10485.000000,31792.000000,39692.000000,20751.000000
10569.000000,31953.000000,39725.000000,20796.000000
10610.000000,31964.000000,39779.000000,20810.000000
10660.000000,31984.000000,39799.000000,20798.000000
10685.000000,32046.000000,39822.000000,20828.000000
10772.000000,32121.000000,39868.000000,20828.000000
10755.000000,32137.000000,39886.000000,20817.000000
10928.000000,32327.000000,39942.000000,20890.000000
10973.000000,32411.000000,40018.000000,20904.000000
11037.000000,32457.000000,40039.000000,20935.000000
11140.000000,32533.000000,40100.000000,20946.000000
11178.000000,32622.000000,40138.000000,20979.000000
11221.000000,32681.000000,40190.000000,20958.000000
11240.000000,32704.000000,40193.000000,20998.000000
11327.000000,32774.000000,40270.000000,21021.000000
11323.000000,32796.000000,40228.000000,21050.000000
11287.000000,32811.000000,40267.000000,21055.000000
11283.000000,32758.000000,40224.000000,21072.000000
11296.000000,32759.000000,40224.000000,21046.000000
11267.000000,32753.000000,40220.000000,21035.000000
11219.000000,32684.000000,40187.000000,20998.000000
11194.000000,32617.000000,40168.000000,21024.000000
11209.000000,32631.000000,40168.000000,21024.000000
11193.000000,32617.000000,40147.000000,21011.000000
11161.000000,32625.000000,40134.000000,20997.000000
11135.000000,32557.000000,40145.000000,20984.000000
11149.000000,32586.000000,40110.000000,21020.000000
11130.000000,32584.000000,40094.000000,21018.000000
11069.000000,32550.000000,40084.000000,20999.000000
11069.000000,32469.000000,40038.000000,20977.000000
11026.000000,32454.000000,40057.000000,20972.000000
11010.000000,32426.000000,40009.000000,20979.000000
11027.000000,32398.000000,40027.000000,20967.000000
11001.000000,32424.000000,40009.000000,20972.000000
11001.000000,32400.000000,40007.000000,20972.000000
10993.000000,32340.000000,39971.000000,20977.000000
10955.000000,32319.000000,39948.000000,20967.000000
