660nm,730nm,850nm,940nm
16669.000000,42007.000000,45168.000000,24952.000000
16667.000000,42006.000000,45132.000000,24958.000000
16629.000000,42015.000000,45118.000000,24931.000000
16671.000000,42000.000000,45102.000000,24934.000000
16579.000000,41951.000000,45090.000000,24900.000000
16575.000000,41925.000000,45098.000000,24903.000000
16556.000000,41932.000000,45075.000000,24890.000000
16548.000000,41878.000000,45080.000000,24904.000000
16557.000000,41892.000000,45067.000000,24888.000000
16529.000000,41838.000000,45039.000000,24886.000000
16504.000000,41863.000000,45046.000000,24878.000000
16468.000000,41851.000000,45052.000000,24867.000000
16450.000000,41824.000000,45052.000000,24842.000000
16466.000000,41814.000000,45071.000000,24833.000000
16424.000000,41812.000000,45044.000000,24832.000000
16424.000000,41819.000000,45020.000000,24830.000000
16398.000000,41774.000000,45002.000000,24813.000000
16401.000000,41806.000000,44969.000000,24811.000000
16396.000000,41747.000000,45002.000000,24817.000000
16358.000000,41766.000000,44983.000000,24781.000000
16324.000000,41742.000000,44965.000000,24782.000000
16344.000000,41744.000000,44976.000000,24750.000000
16292.000000,41722.000000,44982.000000,24744.000000
16297.000000,41707.000000,44947.000000,24719.000000
16237.000000,41715.000000,44925.000000,24716.000000
16274.000000,41659.000000,44944.000000,24736.000000
16233.000000,41637.000000,44921.000000,24706.000000
16203.000000,41643.000000,44928.000000,24691.000000
16187.000000,41651.000000,44931.000000,24703.000000
16210.000000,41616.000000,44905.000000,24700.000000
16223.000000,41696.000000,44938.000000,24699.000000
16216.000000,41746.000000,44988.000000,24698.000000
16238.000000,41767.000000,45002.000000,24715.000000
16305.000000,41804.000000,45015.000000,24712.000000
16316.000000,41845.000000,45034.000000,24764.000000
16328.000000,41976.000000,45115.000000,24795.000000
16382.000000,42037.000000,45148.000000,24772.000000
16518.000000,42036.000000,45157.000000,24781.000000
16522.000000,42216.000000,45252.000000,24855.000000
16609.000000,42275.000000,45285.000000,24854.000000
16744.000000,42316.000000,45309.000000,24870.000000
16755.000000,42422.000000,45362.000000,24907.000000
16766.000000,42486.000000,45370.000000,24898.000000
16870.000000,42549.000000,45444.000000,24921.000000
16943.000000,42582.000000,45481.000000,24917.000000
16974.000000,42600.000000,45511.000000,24959.000000
16990.000000,42616.000000,45489.000000,24940.000000
17017.000000,42594.000000,45482.000000,24952.000000
17037.000000,42601.000000,45433.000000,24938.000000
17028.000000,42582.000000,45462.000000,24933.000000
16982.000000,42562.000000,45468.000000,24966.000000
16999.000000,42539.000000,45446.000000,24952.000000
16958.000000,42510.000000,45412.000000,24934.000000
16958.000000,42532.000000,45390.000000,24905.000000
16965.000000,42433.000000,45389.000000,24902.000000
16932.000000,42472.000000,45402.000000,24892.000000
16890.000000,42444.000000,45395.000000,24914.000000
16872.000000,42378.000000,45354.000000,24893.000000
16871.000000,42384.000000,45321.000000,24877.000000
16803.000000,42385.000000,45342.000000,24889.000000
16812.000000,42293.000000,45325.000000,24881.000000
16782.000000,42312.000000,45311.000000,24870.000000
16731.000000,42305.000000,45326.000000,24846.000000
16731.000000,42278.000000,45275.000000,24860.000000
16681.000000,42217.000000,45216.000000,24839.000000
16707.000000,42222.000000,45241.000000,24833.000000
16667.000000,42189.000000,45259.000000,24802.000000
16615.000000,42173.000000,45207.000000,24788.000000
16607.000000,42146.000000,45192.000000,24809.000000
16594.000000,42142.000000,45193.000000,24818.000000
16542.000000,42117.000000,45209.000000,24821.000000
16579.000000,42044.000000,45140.000000,24755.000000
16511.000000,42077.000000,45108.000000,24776.000000
16501.000000,42074.000000,45131.000000,24789.000000
16465.000000,41999.000000,45128.000000,24736.000000
16443.000000,41960.000000,45108.000000,24761.000000
16425.000000,41977.000000,45097.000000,24732.000000
16384.000000,41941.000000,45101.000000,24755.000000
16439.000000,41923.000000,45084.000000,24749.000000
16366.000000,41893.000000,45047.000000,24739.000000
16373.000000,41918.000000,45046.000000,24723.000000
16337.000000,41879.000000,45032.000000,24703.000000
16334.000000,41819.000000,45028.000000,24720.000000
16316.000000,41833.000000,45035.000000,24742.000000
16278.000000,41789.000000,44976.000000,24715.000000
16320.000000,41802.000000,44990.000000,24716.000000
16286.000000,41799.000000,45014.000000,24681.000000
16257.000000,41771.000000,44990.000000,24697.000000
16246.000000,41818.000000,45029.000000,24718.000000
16238.000000,41844.000000,45028.000000,24739.000000
16342.000000,41836.000000,45054.000000,24737.000000
16326.000000,41866.000000,45037.000000,24737.000000
16337.000000,41936.000000,45063.000000,24734.000000
16379.000000,41929.000000,45091.000000,24740.000000
16401.000000,42012.000000,45137.000000,24750.000000
16412.000000,42042.000000,45119.000000,24780.000000
16491.000000,42198.000000,45255.000000,24807.000000
16519.000000,42237.000000,45271.000000,24834.000000
16660.000000,42266.000000,45265.000000,24830.000000
16690.000000,42333.000000,45291.000000,24832.000000
16716.000000,42397.000000,45347.000000,24872.000000
16794.000000,42551.000000,45437.000000,24923.000000
16832.000000,42549.000000,45463.000000,24939.000000
17003.000000,42614.000000,45460.000000,24951.000000
16998.000000,42705.000000,45535.000000,24968.000000
17028.000000,42652.000000,45521.000000,24950.000000
17067.000000,42678.000000,45507.000000,24966.000000
17097.000000,42694.000000,45499.000000,24972.000000
17098.000000,42671.000000,45495.000000,24997.000000
17086.000000,42651.000000,45493.000000,24964.000000
17050.000000,42634.000000,45523.000000,24997.000000
17094.000000,42627.000000,45487.000000,24979.000000
17085.000000,42613.000000,45500.000000,24987.000000
17019.000000,42584.000000,45480.000000,24939.000000
17026.000000,42561.000000,45439.000000,24903.000000
17041.000000,42524.000000,45437.000000,24933.000000
16976.000000,42527.000000,45435.000000,24919.000000
16928.000000,42532.000000,45422.000000,24911.000000
16957.000000,42465.000000,45428.000000,24902.000000
16944.000000,42437.000000,45378.000000,24936.000000
16903.000000,42463.000000,45363.000000,24898.000000
16887.000000,42415.000000,45325.000000,24892.000000
16859.000000,42376.000000,45335.000000,24902.000000
16838.000000,42376.000000,45327.000000,24876.000000
16817.000000,42362.000000,45322.000000,24876.000000
16804.000000,42287.000000,45318.000000,24865.000000
16791.000000,42257.000000,45313.000000,24854.000000
16720.000000,42298.000000,45299.000000,24858.000000
16718.000000,42264.000000,45290.000000,24857.000000
16704.000000,42201.000000,45248.000000,24823.000000
16673.000000,42220.000000,45233.000000,24814.000000
16643.000000,42193.000000,45196.000000,24817.000000
16654.000000,42151.000000,45224.000000,24816.000000
16633.000000,42143.000000,45194.000000,24818.000000
16580.000000,42090.000000,45186.000000,24820.000000
16594.000000,42092.000000,45155.000000,24794.000000
16553.000000,42046.000000,45159.000000,24787.000000
16505.000000,42069.000000,45165.000000,24778.000000
16524.000000,41986.000000,45122.000000,24766.000000
16512.000000,41988.000000,45090.000000,24775.000000
16424.000000,42009.000000,45101.000000,24743.000000
16429.000000,41940.000000,45097.000000,24768.000000
16398.000000,41916.000000,45061.000000,24766.000000
16446.000000,41906.000000,45035.000000,24765.000000
16328.000000,41889.000000,45054.000000,24738.000000
16351.000000,41867.000000,44998.000000,24743.000000
16337.000000,41814.000000,44998.000000,24729.000000
16255.000000,41830.000000,44987.000000,24748.000000
16271.000000,41832.000000,44975.000000,24713.000000
16253.000000,41852.000000,44989.000000,24731.000000
16279.000000,41805.000000,44987.000000,24726.000000
16238.000000,41841.000000,45005.000000,24718.000000
16269.000000,41909.000000,45033.000000,24760.000000
16326.000000,41894.000000,45068.000000,24745.000000
16337.000000,41964.000000,45073.000000,24766.000000
16371.000000,41982.000000,45091.000000,24762.000000
16387.000000,41997.000000,45108.000000,24754.000000
16479.000000,42116.000000,45190.000000,24810.000000
16408.000000,42160.000000,45179.000000,24821.000000
16550.000000,42184.000000,45179.000000,24822.000000
16599.000000,42241.000000,45260.000000,24833.000000
16582.000000,42328.000000,45286.000000,24854.000000
16633.000000,42443.000000,45366.000000,24915.000000
16748.000000,42477.000000,45383.000000,24899.000000
16844.000000,42480.000000,45394.000000,24922.000000
16854.000000,42505.000000,45393.000000,24928.000000
16837.000000,42515.000000,45381.000000,24943.000000
16885.000000,42532.000000,45400.000000,24926.000000
16916.000000,42505.000000,45380.000000,24929.000000
16893.000000,42487.000000,45350.000000,24929.000000
16862.000000,42500.000000,45358.000000,24904.000000
16864.000000,42397.000000,45335.000000,24933.000000
16857.000000,42447.000000,45319.000000,24941.000000
16806.000000,42405.000000,45334.000000,24924.000000
16815.000000,42358.000000,45277.000000,24934.000000
16784.000000,42387.000000,45297.000000,24903.000000
16796.000000,42355.000000,45299.000000,24911.000000
16759.000000,42269.000000,45247.000000,24911.000000
16723.000000,42273.000000,45237.000000,24897.000000
16708.000000,42291.000000,45217.000000,24885.000000
16703.000000,42238.000000,45199.000000,24889.000000
16641.000000,42200.000000,45196.000000,24868.000000
16628.000000,42204.000000,45211.000000,24871.000000
16615.000000,42155.000000,45169.000000,24874.000000
16594.000000,42140.000000,45136.000000,24864.000000
16558.000000,42058.000000,45098.000000,24857.000000
16573.000000,42049.000000,45101.000000,24833.000000
16489.000000,42010.000000,45062.000000,24826.000000
16493.000000,41997.000000,45094.000000,24833.000000
16476.000000,41960.000000,45053.000000,24848.000000
16452.000000,41951.000000,45037.000000,24855.000000
16428.000000,41985.000000,45001.000000,24818.000000
16436.000000,41897.000000,45046.000000,24822.000000
16411.000000,41862.000000,44981.000000,24815.000000
16355.000000,41795.000000,44929.000000,24809.000000
16311.000000,41784.000000,44919.000000,24795.000000
16311.000000,41756.000000,44892.000000,24793.000000
16249.000000,41659.000000,44861.000000,24768.000000
16198.000000,41638.000000,44850.000000,24772.000000
16165.000000,41650.000000,44820.000000,24741.000000
16136.000000,41619.000000,44817.000000,24748.000000
16114.000000,41512.000000,44790.000000,24753.000000
16100.000000,41552.000000,44786.000000,24714.000000
16026.000000,41521.000000,44756.000000,24726.000000
16002.000000,41430.000000,44699.000000,24730.000000
16007.000000,41432.000000,44734.000000,24703.000000
15936.000000,41428.000000,44691.000000,24694.000000
15906.000000,41429.000000,44642.000000,24703.000000
15903.000000,41415.000000,44664.000000,24692.000000
15901.000000,41392.000000,44655.000000,24661.000000
15894.000000,41365.000000,44644.000000,24662.000000
15864.000000,41386.000000,44706.000000,24693.000000
15877.000000,41433.000000,44687.000000,24736.000000
15895.000000,41499.000000,44694.000000,24709.000000
15951.000000,41518.000000,44743.000000,24731.000000
15994.000000,41553.000000,44745.000000,24709.000000
15981.000000,41691.000000,44812.000000,24743.000000
16031.000000,41725.000000,44828.000000,24772.000000
16133.000000,41702.000000,44873.000000,24804.000000
16166.000000,41743.000000,44856.000000,24779.000000
16156.000000,41893.000000,44953.000000,24830.000000
16220.000000,41915.000000,44958.000000,24849.000000
16340.000000,41992.000000,45027.000000,24877.000000
16359.000000,42028.000000,45010.000000,24884.000000
16429.000000,42072.000000,45040.000000,24894.000000
16462.000000,42115.000000,45072.000000,24894.000000
16443.000000,42083.000000,45041.000000,24906.000000
16536.000000,42090.000000,45066.000000,24880.000000
16516.000000,42103.000000,45062.000000,24925.000000
16525.000000,42111.000000,45082.000000,24931.000000
16483.000000,42080.000000,45061.000000,24917.000000
16496.000000,42049.000000,45059.000000,24911.000000
16521.000000,42075.000000,45038.000000,24880.000000
16501.000000,42023.000000,45024.000000,24886.000000
16461.000000,41981.000000,44993.000000,24881.000000
16417.000000,41971.000000,44991.000000,24876.000000
16432.000000,41924.000000,44974.000000,24893.000000
16377.000000,41895.000000,44951.000000,24876.000000
16414.000000,41880.000000,44947.000000,24862.000000
16333.000000,41900.000000,44961.000000,24885.000000
16328.000000,41827.000000,44953.000000,24849.000000
16334.000000,41822.000000,44946.000000,24825.000000
16358.000000,41837.000000,44921.000000,24829.000000
16304.000000,41808.000000,44933.000000,24822.000000
16279.000000,41791.000000,44908.000000,24827.000000
16301.000000,41747.000000,44868.000000,24831.000000
16247.000000,41773.000000,44911.000000,24798.000000
16260.000000,41743.000000,44885.000000,24797.000000
16219.000000,41705.000000,44875.000000,24810.000000
16206.000000,41732.000000,44890.000000,24787.000000
16276.000000,41704.000000,44882.000000,24801.000000
16214.000000,41717.000000,44843.000000,24797.000000
16216.000000,41699.000000,44887.000000,24776.000000
16241.000000,41701.000000,44850.000000,24776.000000
16209.000000,41670.000000,44839.000000,24778.000000
16213.000000,41653.000000,44814.000000,24755.000000
16220.000000,41605.000000,44807.000000,24776.000000
16142.000000,41593.000000,44792.000000,24750.000000
16119.000000,41558.000000,44763.000000,24738.000000
16061.000000,41541.000000,44801.000000,24765.000000
16076.000000,41540.000000,44792.000000,24727.000000
16049.000000,41491.000000,44771.000000,24746.000000
16074.000000,41476.000000,44756.000000,24718.000000
16020.000000,41466.000000,44747.000000,24737.000000
16057.000000,41475.000000,44722.000000,24705.000000
16012.000000,41428.000000,44725.000000,24712.000000
16005.000000,41423.000000,44698.000000,24692.000000
15966.000000,41455.000000,44714.000000,24735.000000
15983.000000,41499.000000,44754.000000,24717.000000
15998.000000,41554.000000,44776.000000,24742.000000
16035.000000,41594.000000,44802.000000,24761.000000
16118.000000,41693.000000,44835.000000,24765.000000
16125.000000,41738.000000,44947.000000,24778.000000
16191.000000,41778.000000,44934.000000,24796.000000
16251.000000,41878.000000,44998.000000,24816.000000
16341.000000,41999.000000,45040.000000,24873.000000
16395.000000,42094.000000,45124.000000,24857.000000
16465.000000,42169.000000,45203.000000,24905.000000
16540.000000,42235.000000,45176.000000,24928.000000
16665.000000,42272.000000,45201.000000,24944.000000
16726.000000,42289.000000,45206.000000,24959.000000
16740.000000,42261.000000,45244.000000,24961.000000
16738.000000,42267.000000,45216.000000,24951.000000
16762.000000,42218.000000,45157.000000,24944.000000
16729.000000,42189.000000,45157.000000,24944.000000
16699.000000,42171.000000,45130.000000,24927.000000
16652.000000,42154.000000,45137.000000,24925.000000
16599.000000,42116.000000,45124.000000,24933.000000
16580.000000,42081.000000,45098.000000,24886.000000
16560.000000,42109.000000,45094.000000,24896.000000
16582.000000,42093.000000,45054.000000,24896.000000
16559.000000,42034.000000,45058.000000,24913.000000
16560.000000,41998.000000,45084.000000,24866.000000
16554.000000,41978.000000,45041.000000,24872.000000
16551.000000,41985.000000,45042.000000,24873.000000
16528.000000,41942.000000,45049.000000,24845.000000
16521.000000,41932.000000,45016.000000,24870.000000
16493.000000,41878.000000,44976.000000,24845.000000
16454.000000,41845.000000,44977.000000,24838.000000
16410.000000,41823.000000,44938.000000,24819.000000
16363.000000,41766.000000,44927.000000,24809.000000
16327.000000,41733.000000,44914.000000,24803.000000
16285.000000,41713.000000,44885.000000,24787.000000
16272.000000,41662.000000,44875.000000,24783.000000
16251.000000,41691.000000,44811.000000,24756.000000
16230.000000,41649.000000,44820.000000,24757.000000
16212.000000,41619.000000,44816.000000,24746.000000
16191.000000,41588.000000,44797.000000,24771.000000
16145.000000,41546.000000,44789.000000,24742.000000
16156.000000,41550.000000,44752.000000,24747.000000
16120.000000,41531.000000,44738.000000,24754.000000
16109.000000,41480.000000,44739.000000,24731.000000
16041.000000,41437.000000,44714.000000,24726.000000
16022.000000,41485.000000,44746.000000,24733.000000
16033.000000,41408.000000,44730.000000,24751.000000
16004.000000,41448.000000,44779.000000,24715.000000
16040.000000,41494.000000,44785.000000,24763.000000
16063.000000,41602.000000,44834.000000,24756.000000
16079.000000,41605.000000,44868.000000,24781.000000
16199.000000,41632.000000,44858.000000,24799.000000
16171.000000,41771.000000,44944.000000,24789.000000
16219.000000,41761.000000,44945.000000,24832.000000
16310.000000,41824.000000,44959.000000,24847.000000
16377.000000,41935.000000,45085.000000,24852.000000
16422.000000,42014.000000,45102.000000,24872.000000
16544.000000,42258.000000,45325.000000,24960.000000
16588.000000,42332.000000,45345.000000,24965.000000
16859.000000,42371.000000,45368.000000,24982.000000
16947.000000,42375.000000,45364.000000,24971.000000
16969.000000,42476.000000,45436.000000,25013.000000
16978.000000,42497.000000,45466.000000,25026.000000
17075.000000,42571.000000,45476.000000,25040.000000
17117.000000,42605.000000,45507.000000,25024.000000
17177.000000,42599.000000,45490.000000,25041.000000
17157.000000,42553.000000,45474.000000,24996.000000
17137.000000,42568.000000,45464.000000,25025.000000
17130.000000,42525.000000,45441.000000,25014.000000
17134.000000,42537.000000,45476.000000,25049.000000
17096.000000,42490.000000,45459.000000,25003.000000
17088.000000,42463.000000,45431.000000,25012.000000
17028.000000,42487.000000,45433.000000,24995.000000
17046.000000,42454.000000,45405.000000,24999.000000
17049.000000,42445.000000,45360.000000,24980.000000
17047.000000,42389.000000,45385.000000,24972.000000
16984.000000,42393.000000,45346.000000,24974.000000
16979.000000,42370.000000,45358.000000,24991.000000
16979.000000,42357.000000,45349.000000,24966.000000
16935.000000,42309.000000,45301.000000,24935.000000
16952.000000,42267.000000,45307.000000,24941.000000
16897.000000,42264.000000,45313.000000,24911.000000
16879.000000,42280.000000,45305.000000,24935.000000
16888.000000,42257.000000,45296.000000,24927.000000
16833.000000,42212.000000,45282.000000,24918.000000
16860.000000,42214.000000,45254.000000,24922.000000
16840.000000,42139.000000,45253.000000,24908.000000
16840.000000,42156.000000,45224.000000,24885.000000
16809.000000,42144.000000,45209.000000,24879.000000
16773.000000,42099.000000,45216.000000,24885.000000
16732.000000,42040.000000,45193.000000,24847.000000
16696.000000,42044.000000,45155.000000,24835.000000
16713.000000,42017.000000,45143.000000,24868.000000
16679.000000,42009.000000,45162.000000,24837.000000
16671.000000,41981.000000,45126.000000,24832.000000
16666.000000,41990.000000,45148.000000,24820.000000
16619.000000,41979.000000,45108.000000,24821.000000
16568.000000,41914.000000,45070.000000,24804.000000
16595.000000,41884.000000,45080.000000,24807.000000
16535.000000,41870.000000,45076.000000,24769.000000
16514.000000,41854.000000,45058.000000,24798.000000
16510.000000,41843.000000,45036.000000,24800.000000
16518.000000,41850.000000,45029.000000,24811.000000
16479.000000,41827.000000,45027.000000,24782.000000
16449.000000,41836.000000,45033.000000,24789.000000
16454.000000,41823.000000,45014.000000,24778.000000
16462.000000,41836.000000,45028.000000,24771.000000
16465.000000,41863.000000,45059.000000,24761.000000
16480.000000,41873.000000,45070.000000,24788.000000
16498.000000,41878.000000,45064.000000,24800.000000
16525.000000,41958.000000,45084.000000,24818.000000
16544.000000,42003.000000,45122.000000,24831.000000
16563.000000,42064.000000,45154.000000,24831.000000
16645.000000,42061.000000,45176.000000,24832.000000
16662.000000,42106.000000,45206.000000,24860.000000
16660.000000,42294.000000,45275.000000,24870.000000
16733.000000,42287.000000,45293.000000,24896.000000
16889.000000,42341.000000,45295.000000,24917.000000
16884.000000,42339.000000,45329.000000,24890.000000
16901.000000,42407.000000,45351.000000,24946.000000
16946.000000,42458.000000,45374.000000,24971.000000
16982.000000,42479.000000,45371.000000,24995.000000
17037.000000,42442.000000,45424.000000,24975.000000
17013.000000,42442.000000,45347.000000,24971.000000
17031.000000,42460.000000,45326.000000,24952.000000
17046.000000,42414.000000,45329.000000,24957.000000
17008.000000,42372.000000,45324.000000,24946.000000
16961.000000,42352.000000,45301.000000,24969.000000
16923.000000,42312.000000,45282.000000,24934.000000
16907.000000,42241.000000,45259.000000,24932.000000
16884.000000,42223.000000,45237.000000,24920.000000
16851.000000,42182.000000,45212.000000,24919.000000
16838.000000,42157.000000,45199.000000,24915.000000
16793.000000,42152.000000,45227.000000,24905.000000
16790.000000,42120.000000,45171.000000,24907.000000
16768.000000,42093.000000,45151.000000,24885.000000
16759.000000,42061.000000,45135.000000,24856.000000
16731.000000,42084.000000,45092.000000,24868.000000
16734.000000,41965.000000,45100.000000,24885.000000
16690.000000,41998.000000,45083.000000,24850.000000
16668.000000,41960.000000,45085.000000,24874.000000
16642.000000,41944.000000,45034.000000,24879.000000
16608.000000,41944.000000,45010.000000,24870.000000
16646.000000,41886.000000,45028.000000,24809.000000
16576.000000,41904.000000,45012.000000,24852.000000
16547.000000,41873.000000,45003.000000,24820.000000
16497.000000,41810.000000,44980.000000,24832.000000
16549.000000,41835.000000,44959.000000,24827.000000
16505.000000,41766.000000,44966.000000,24815.000000
16484.000000,41744.000000,44945.000000,24813.000000
16403.000000,41762.000000,44924.000000,24801.000000
16418.000000,41716.000000,44931.000000,24797.000000
16398.000000,41703.000000,44933.000000,24796.000000
16431.000000,41637.000000,44878.000000,24778.000000
16404.000000,41662.000000,44912.000000,24766.000000
16355.000000,41652.000000,44877.000000,24786.000000
16328.000000,41648.000000,44875.000000,24760.000000
16322.000000,41615.000000,44868.000000,24732.000000
16329.000000,41587.000000,44860.000000,24756.000000
16324.000000,41592.000000,44858.000000,24727.000000
16291.000000,41583.000000,44850.000000,24746.000000
16284.000000,41594.000000,44866.000000,24758.000000
16318.000000,41620.000000,44905.000000,24775.000000
16279.000000,41675.000000,44910.000000,24750.000000
16347.000000,41665.000000,44910.000000,24767.000000
16387.000000,41676.000000,44903.000000,24789.000000
16345.000000,41795.000000,44984.000000,24782.000000
16392.000000,41808.000000,45023.000000,24802.000000
16488.000000,41827.000000,45013.000000,24828.000000
16500.000000,41871.000000,45040.000000,24830.000000
16545.000000,41953.000000,45090.000000,24816.000000
16568.000000,42071.000000,45194.000000,24893.000000
16621.000000,42120.000000,45177.000000,24910.000000
16765.000000,42213.000000,45208.000000,24885.000000
16821.000000,42240.000000,45224.000000,24901.000000
16888.000000,42262.000000,45267.000000,24943.000000
16884.000000,42359.000000,45306.000000,24977.000000
16925.000000,42406.000000,45339.000000,24939.000000
17006.000000,42408.000000,45382.000000,24966.000000
17022.000000,42388.000000,45357.000000,24970.000000
17040.000000,42407.000000,45298.000000,24971.000000
16993.000000,42365.000000,45319.000000,24993.000000
16999.000000,42356.000000,45317.000000,24979.000000
16991.000000,42327.000000,45301.000000,24967.000000
16952.000000,42308.000000,45295.000000,24977.000000
16974.000000,42282.000000,45278.000000,24944.000000
16992.000000,42238.000000,45277.000000,24961.000000
16950.000000,42258.000000,45247.000000,24942.000000
16885.000000,42219.000000,45251.000000,24937.000000
16937.000000,42167.000000,45200.000000,24944.000000
16852.000000,42171.000000,45182.000000,24949.000000
16857.000000,42086.000000,45145.000000,24910.000000
16836.000000,42069.000000,45143.000000,24905.000000
16782.000000,42081.000000,45136.000000,24888.000000
16787.000000,42033.000000,45152.000000,24890.000000
16758.000000,42036.000000,45098.000000,24889.000000
16716.000000,41989.000000,45086.000000,24883.000000
16726.000000,41962.000000,45061.000000,24866.000000
16653.000000,41945.000000,45058.000000,24860.000000
16644.000000,41948.000000,45052.000000,24856.000000
16599.000000,41882.000000,45043.000000,24835.000000
16594.000000,41888.000000,44968.000000,24858.000000
16557.000000,41826.000000,44989.000000,24865.000000
16563.000000,41799.000000,44932.000000,24810.000000
16518.000000,41746.000000,44922.000000,24822.000000
16439.000000,41750.000000,44935.000000,24817.000000
16454.000000,41714.000000,44891.000000,24782.000000
16457.000000,41688.000000,44925.000000,24813.000000
16393.000000,41683.000000,44887.000000,24793.000000
16390.000000,41645.000000,44831.000000,24771.000000
16391.000000,41631.000000,44835.000000,24801.000000
16336.000000,41588.000000,44835.000000,24781.000000
16327.000000,41587.000000,44837.000000,24790.000000
16332.000000,41547.000000,44776.000000,24731.000000
16313.000000,41523.000000,44781.000000,24781.000000
16216.000000,41500.000000,44785.000000,24744.000000
16244.000000,41491.000000,44780.000000,24755.000000
16225.000000,41461.000000,44745.000000,24736.000000
16191.000000,41405.000000,44774.000000,24724.000000
16168.000000,41419.000000,44713.000000,24719.000000
16164.000000,41397.000000,44731.000000,24712.000000
16175.000000,41407.000000,44715.000000,24732.000000
16128.000000,41416.000000,44738.000000,24745.000000
16157.000000,41473.000000,44747.000000,24719.000000
16193.000000,41444.000000,44740.000000,24728.000000
16178.000000,41456.000000,44776.000000,24711.000000
16181.000000,41564.000000,44808.000000,24756.000000
16194.000000,41597.000000,44813.000000,24741.000000
16309.000000,41594.000000,44794.000000,24780.000000
16284.000000,41736.000000,44934.000000,24819.000000
16331.000000,41788.000000,44921.000000,24790.000000
16452.000000,41798.000000,44925.000000,24823.000000
16452.000000,41831.000000,44933.000000,24845.000000
16540.000000,41936.000000,45012.000000,24847.000000
16541.000000,42049.000000,45109.000000,24915.000000
16619.000000,42079.000000,45092.000000,24919.000000
16725.000000,42097.000000,45112.000000,24913.000000
16768.000000,42214.000000,45178.000000,24964.000000
16837.000000,42220.000000,45179.000000,24949.000000
16906.000000,42234.000000,45188.000000,24966.000000
16891.000000,42234.000000,45179.000000,24963.000000
16906.000000,42220.000000,45207.000000,24955.000000
16909.000000,42196.000000,45165.000000,24981.000000
16849.000000,42210.000000,45178.000000,24960.000000
16872.000000,42158.000000,45188.000000,24932.000000
16857.000000,42148.000000,45154.000000,24941.000000
16820.000000,42096.000000,45137.000000,24924.000000
16809.000000,42092.000000,45137.000000,24927.000000
16823.000000,42070.000000,45104.000000,24935.000000
16769.000000,42077.000000,45098.000000,24911.000000
16765.000000,42054.000000,45069.000000,24880.000000
16762.000000,42034.000000,45077.000000,24923.000000
16747.000000,42012.000000,45074.000000,24897.000000
16715.000000,42008.000000,45064.000000,24877.000000
16740.000000,41973.000000,45041.000000,24889.000000
16707.000000,41926.000000,45028.000000,24883.000000
16692.000000,41897.000000,45003.000000,24898.000000
16623.000000,41909.000000,45009.000000,24876.000000
16645.000000,41881.000000,44996.000000,24892.000000
16597.000000,41864.000000,44985.000000,24849.000000
16614.000000,41847.000000,44971.000000,24839.000000
16610.000000,41869.000000,44980.000000,24855.000000
16558.000000,41811.000000,44950.000000,24875.000000
16543.000000,41767.000000,44941.000000,24837.000000
16562.000000,41772.000000,44931.000000,24851.000000
16484.000000,41758.000000,44896.000000,24834.000000
16487.000000,41747.000000,44929.000000,24832.000000
16485.000000,41698.000000,44894.000000,24810.000000
16443.000000,41672.000000,44873.000000,24819.000000
16424.000000,41673.000000,44906.000000,24819.000000
16426.000000,41679.000000,44870.000000,24808.000000
16422.000000,41646.000000,44860.000000,24838.000000
16367.000000,41640.000000,44848.000000,24796.000000
16389.000000,41603.000000,44839.000000,24793.000000
16351.000000,41593.000000,44838.000000,24800.000000
16343.000000,41578.000000,44804.000000,24756.000000
16380.000000,41563.000000,44785.000000,24757.000000
16317.000000,41560.000000,44815.000000,24763.000000
16304.000000,41547.000000,44798.000000,24777.000000
16320.000000,41491.000000,44765.000000,24772.000000
16279.000000,41475.000000,44746.000000,24768.000000
16286.000000,41503.000000,44734.000000,24744.000000
16237.000000,41430.000000,44752.000000,24752.000000
16221.000000,41413.000000,44752.000000,24765.000000
16226.000000,41430.000000,44741.000000,24752.000000
16199.000000,41500.000000,44739.000000,24749.000000
16245.000000,41543.000000,44759.000000,24783.000000
16211.000000,41549.000000,44818.000000,24784.000000
16285.000000,41526.000000,44805.000000,24795.000000
16290.000000,41627.000000,44850.000000,24832.000000
16324.000000,41660.000000,44871.000000,24803.000000
16406.000000,41669.000000,44891.000000,24815.000000
16397.000000,41709.000000,44913.000000,24838.000000
16413.000000,41839.000000,44973.000000,24861.000000
16495.000000,41859.000000,44969.000000,24842.000000
16575.000000,41995.000000,45031.000000,24888.000000
16577.000000,42008.000000,45094.000000,24899.000000
16646.000000,42090.000000,45146.000000,24923.000000
16770.000000,42201.000000,45160.000000,24966.000000
16801.000000,42223.000000,45204.000000,24973.000000
16883.000000,42226.000000,45215.000000,24969.000000
16922.000000,42226.000000,45217.000000,24943.000000
16949.000000,42211.000000,45224.000000,24961.000000
16910.000000,42195.000000,45199.000000,24942.000000
16930.000000,42180.000000,45180.000000,24940.000000
16885.000000,42183.000000,45149.000000,24954.000000
16880.000000,42166.000000,45137.000000,24938.000000
16850.000000,42119.000000,45110.000000,24933.000000
16825.000000,42076.000000,45143.000000,24929.000000
16806.000000,42087.000000,45118.000000,24921.000000
16760.000000,42020.000000,45069.000000,24914.000000
16789.000000,42032.000000,45069.000000,24892.000000
16737.000000,42034.000000,45086.000000,24908.000000
16692.000000,41988.000000,45097.000000,24882.000000
16696.000000,42010.000000,45055.000000,24882.000000
16696.000000,41974.000000,45058.000000,24880.000000
16659.000000,41936.000000,45042.000000,24858.000000
16626.000000,41878.000000,45009.000000,24854.000000
16603.000000,41884.000000,44982.000000,24854.000000
16568.000000,41888.000000,44987.000000,24857.000000
16593.000000,41798.000000,44958.000000,24834.000000
16543.000000,41812.000000,44944.000000,24821.000000
16512.000000,41793.000000,44950.000000,24800.000000
16480.000000,41774.000000,44938.000000,24820.000000
16509.000000,41754.000000,44891.000000,24810.000000
16492.000000,41725.000000,44914.000000,24781.000000
16441.000000,41705.000000,44890.000000,24808.000000
16417.000000,41696.000000,44867.000000,24766.000000
16417.000000,41640.000000,44842.000000,24748.000000
16391.000000,41637.000000,44851.000000,24764.000000
16338.000000,41612.000000,44851.000000,24773.000000
16335.000000,41583.000000,44833.000000,24759.000000
16293.000000,41545.000000,44792.000000,24743.000000
16270.000000,41552.000000,44808.000000,24756.000000
16281.000000,41514.000000,44763.000000,24754.000000
16258.000000,41483.000000,44761.000000,24733.000000
16230.000000,41441.000000,44737.000000,24747.000000
16246.000000,41423.000000,44726.000000,24734.000000
16148.000000,41419.000000,44726.000000,24720.000000
16128.000000,41444.000000,44733.000000,24723.000000
16166.000000,41423.000000,44727.000000,24699.000000
16173.000000,41410.000000,44745.000000,24702.000000
16191.000000,41406.000000,44700.000000,24741.000000
16157.000000,41449.000000,44743.000000,24719.000000
16154.000000,41540.000000,44758.000000,24738.000000
16196.000000,41545.000000,44782.000000,24740.000000
16260.000000,41556.000000,44821.000000,24736.000000
16290.000000,41571.000000,44807.000000,24736.000000
16271.000000,41628.000000,44855.000000,24786.000000
16348.000000,41694.000000,44918.000000,24790.000000
16347.000000,41846.000000,44947.000000,24812.000000
16412.000000,41857.000000,44968.000000,24863.000000
16558.000000,41913.000000,44992.000000,24862.000000
16613.000000,42060.000000,45090.000000,24892.000000
16607.000000,42058.000000,45098.000000,24918.000000
16714.000000,42142.000000,45147.000000,24909.000000
16763.000000,42226.000000,45165.000000,24926.000000
16820.000000,42186.000000,45193.000000,24977.000000
16900.000000,42233.000000,45175.000000,24962.000000
16874.000000,42223.000000,45205.000000,24964.000000
16942.000000,42185.000000,45163.000000,24985.000000
16896.000000,42185.000000,45174.000000,24954.000000
16890.000000,42171.000000,45174.000000,24956.000000
16856.000000,42176.000000,45153.000000,24949.000000
16894.000000,42122.000000,45091.000000,24942.000000
16836.000000,42123.000000,45130.000000,24930.000000
16811.000000,42093.000000,45095.000000,24905.000000
16767.000000,42049.000000,45079.000000,24920.000000
16739.000000,42107.000000,45079.000000,24918.000000
16759.000000,42045.000000,45066.000000,24899.000000
16763.000000,41997.000000,45053.000000,24942.000000
16712.000000,41948.000000,45012.000000,24919.000000
16721.000000,41933.000000,45022.000000,24889.000000
16705.000000,41940.000000,44975.000000,24872.000000
16649.000000,41899.000000,44980.000000,24874.000000
16592.000000,41887.000000,44958.000000,24857.000000
16593.000000,41834.000000,44912.000000,24837.000000
16578.000000,41811.000000,44917.000000,24851.000000
16517.000000,41809.000000,44906.000000,24848.000000
16504.000000,41795.000000,44880.000000,24865.000000
16518.000000,41768.000000,44911.000000,24859.000000
16475.000000,41680.000000,44890.000000,24843.000000
16457.000000,41637.000000,44866.000000,24835.000000
16411.000000,41669.000000,44833.000000,24839.000000
16374.000000,41666.000000,44841.000000,24835.000000
16404.000000,41640.000000,44852.000000,24811.000000
16392.000000,41627.000000,44832.000000,24807.000000
16366.000000,41601.000000,44808.000000,24821.000000
16376.000000,41590.000000,44804.000000,24824.000000
16382.000000,41603.000000,44812.000000,24826.000000
16387.000000,41598.000000,44835.000000,24818.000000
16335.000000,41560.000000,44834.000000,24822.000000
16346.000000,41577.000000,44811.000000,24806.000000
16347.000000,41549.000000,44818.000000,24822.000000
16381.000000,41601.000000,44842.000000,24795.000000
16374.000000,41580.000000,44840.000000,24806.000000
16371.000000,41560.000000,44819.000000,24777.000000
16336.000000,41553.000000,44824.000000,24779.000000
16355.000000,41548.000000,44843.000000,24786.000000
16353.000000,41531.000000,44819.000000,24806.000000
16378.000000,41541.000000,44823.000000,24785.000000
16341.000000,41601.000000,44857.000000,24812.000000
16389.000000,41676.000000,44855.000000,24812.000000
16404.000000,41677.000000,44949.000000,24845.000000
16449.000000,41753.000000,44955.000000,24858.000000
16503.000000,41791.000000,44954.000000,24866.000000
16549.000000,41869.000000,45021.000000,24874.000000
16591.000000,42026.000000,45139.000000,24921.000000
16664.000000,42076.000000,45150.000000,24938.000000
16827.000000,42149.000000,45175.000000,24926.000000
16903.000000,42145.000000,45191.000000,24950.000000
16898.000000,42329.000000,45280.000000,25002.000000
16915.000000,42348.000000,45321.000000,24990.000000
17049.000000,42334.000000,45288.000000,25019.000000
17105.000000,42375.000000,45337.000000,25014.000000
17121.000000,42398.000000,45307.000000,25014.000000
17107.000000,42374.000000,45324.000000,25035.000000
17165.000000,42336.000000,45322.000000,25032.000000
17115.000000,42406.000000,45317.000000,25047.000000
17138.000000,42327.000000,45293.000000,25033.000000
17082.000000,42324.000000,45248.000000,25022.000000
17048.000000,42314.000000,45291.000000,25033.000000
17069.000000,42271.000000,45245.000000,25002.000000
17071.000000,42260.000000,45266.000000,25007.000000
17019.000000,42259.000000,45249.000000,25014.000000
17019.000000,42238.000000,45242.000000,25008.000000
17046.000000,42199.000000,45217.000000,24967.000000
17002.000000,42166.000000,45181.000000,24986.000000
16944.000000,42085.000000,45093.000000,24964.000000
16916.000000,42088.000000,45126.000000,24957.000000
16841.000000,42046.000000,45135.000000,24937.000000
16833.000000,41999.000000,45066.000000,24941.000000
16802.000000,41996.000000,45048.000000,24948.000000
16735.000000,41952.000000,45058.000000,24928.000000
16753.000000,41897.000000,45028.000000,24916.000000
16712.000000,41847.000000,44993.000000,24904.000000
16659.000000,41844.000000,44965.000000,24886.000000
16587.000000,41860.000000,44966.000000,24896.000000
16610.000000,41805.000000,44944.000000,24896.000000
16591.000000,41795.000000,44954.000000,24872.000000
16564.000000,41794.000000,44936.000000,24888.000000
16591.000000,41721.000000,44903.000000,24857.000000
16530.000000,41704.000000,44876.000000,24852.000000
16496.000000,41690.000000,44918.000000,24856.000000
16501.000000,41671.000000,44884.000000,24865.000000
16474.000000,41635.000000,44857.000000,24857.000000
16467.000000,41593.000000,44787.000000,24813.000000
16473.000000,41569.000000,44784.000000,24804.000000
16414.000000,41586.000000,44788.000000,24823.000000
16366.000000,41490.000000,44760.000000,24796.000000
16380.000000,41497.000000,44753.000000,24778.000000
16310.000000,41500.000000,44724.000000,24806.000000
16324.000000,41431.000000,44715.000000,24787.000000
16299.000000,41403.000000,44708.000000,24773.000000
16272.000000,41374.000000,44675.000000,24768.000000
16235.000000,41397.000000,44662.000000,24732.000000
16160.000000,41344.000000,44675.000000,24742.000000
16195.000000,41362.000000,44682.000000,24745.000000
16169.000000,41350.000000,44659.000000,24758.000000
16205.000000,41397.000000,44676.000000,24755.000000
16194.000000,41437.000000,44733.000000,24770.000000
16217.000000,41482.000000,44722.000000,24779.000000
16286.000000,41511.000000,44730.000000,24766.000000
16336.000000,41572.000000,44803.000000,24754.000000
16335.000000,41582.000000,44777.000000,24820.000000
16361.000000,41784.000000,44852.000000,24858.000000
16418.000000,41755.000000,44912.000000,24847.000000
16519.000000,41801.000000,44912.000000,24872.000000
16567.000000,41824.000000,44914.000000,24870.000000
16579.000000,42009.000000,45021.000000,24918.000000
16643.000000,42052.000000,45056.000000,24937.000000
16782.000000,42037.000000,45078.000000,24941.000000
16797.000000,42117.000000,45094.000000,24972.000000
16804.000000,42175.000000,45095.000000,24988.000000
16856.000000,42173.000000,45105.000000,24986.000000
16894.000000,42180.000000,45144.000000,24982.000000
16929.000000,42176.000000,45110.000000,25003.000000
16907.000000,42176.000000,45106.000000,24985.000000
16872.000000,42122.000000,45099.000000,24999.000000
16900.000000,42085.000000,45067.000000,24978.000000
16922.000000,42092.000000,45051.000000,24969.000000
16873.000000,42079.000000,45054.000000,24957.000000
16850.000000,42064.000000,45049.000000,24944.000000
16842.000000,41989.000000,45034.000000,24952.000000
16809.000000,41997.000000,45021.000000,24938.000000
16829.000000,41944.000000,44990.000000,24919.000000
16797.000000,41942.000000,44966.000000,24913.000000
16729.000000,41911.000000,44958.000000,24942.000000
16658.000000,41886.000000,44949.000000,24899.000000
16715.000000,41835.000000,44930.000000,24893.000000
16682.000000,41823.000000,44931.000000,24857.000000
16609.000000,41787.000000,44880.000000,24890.000000
16625.000000,41826.000000,44880.000000,24879.000000
16607.000000,41794.000000,44908.000000,24899.000000
16567.000000,41693.000000,44843.000000,24854.000000
16549.000000,41677.000000,44845.000000,24850.000000
16508.000000,41634.000000,44803.000000,24846.000000
16462.000000,41646.000000,44804.000000,24838.000000
16461.000000,41566.000000,44767.000000,24824.000000
16463.000000,41567.000000,44783.000000,24807.000000
16410.000000,41552.000000,44752.000000,24810.000000
16390.000000,41548.000000,44744.000000,24769.000000
16362.000000,41497.000000,44749.000000,24783.000000
16355.000000,41438.000000,44688.000000,24779.000000
16338.000000,41412.000000,44697.000000,24762.000000
16266.000000,41381.000000,44658.000000,24729.000000
16216.000000,41392.000000,44632.000000,24731.000000
16245.000000,41355.000000,44651.000000,24735.000000
16214.000000,41366.000000,44614.000000,24713.000000
16187.000000,41294.000000,44600.000000,24700.000000
16178.000000,41268.000000,44571.000000,24681.000000
16085.000000,41243.000000,44562.000000,24699.000000
16095.000000,41219.000000,44553.000000,24716.000000
16074.000000,41146.000000,44533.000000,24670.000000
16052.000000,41116.000000,44525.000000,24697.000000
15979.000000,41151.000000,44495.000000,24659.000000
16006.000000,41115.000000,44499.000000,24674.000000
15935.000000,41113.000000,44472.000000,24660.000000
15948.000000,41099.000000,44495.000000,24653.000000
15930.000000,41081.000000,44486.000000,24665.000000
15913.000000,41127.000000,44476.000000,24636.000000
15937.000000,41161.000000,44530.000000,24683.000000
15922.000000,41165.000000,44507.000000,24679.000000
15963.000000,41170.000000,44504.000000,24674.000000
16019.000000,41309.000000,44575.000000,24712.000000
16015.000000,41299.000000,44577.000000,24712.000000
16095.000000,41361.000000,44590.000000,24719.000000
16161.000000,41482.000000,44659.000000,24761.000000
16122.000000,41478.000000,44725.000000,24745.000000
16234.000000,41540.000000,44696.000000,24771.000000
16288.000000,41737.000000,44859.000000,24838.000000
16321.000000,41729.000000,44870.000000,24853.000000
16490.000000,41783.000000,44874.000000,24872.000000
16556.000000,41799.000000,44894.000000,24872.000000
16558.000000,41891.000000,44922.000000,24899.000000
16543.000000,41873.000000,44927.000000,24890.000000
16625.000000,41884.000000,44917.000000,24886.000000
16618.000000,41881.000000,44954.000000,24902.000000
16633.000000,41821.000000,44917.000000,24893.000000
16639.000000,41813.000000,44890.000000,24891.000000
16552.000000,41837.000000,44887.000000,24869.000000
16598.000000,41789.000000,44852.000000,24878.000000
16562.000000,41724.000000,44848.000000,24862.000000
16487.000000,41739.000000,44866.000000,24859.000000
16494.000000,41708.000000,44856.000000,24847.000000
16534.000000,41680.000000,44815.000000,24846.000000
16495.000000,41627.000000,44811.000000,24828.000000
16439.000000,41629.000000,44797.000000,24871.000000
16400.000000,41662.000000,44798.000000,24826.000000
16434.000000,41574.000000,44748.000000,24800.000000
16393.000000,41584.000000,44780.000000,24819.000000
16379.000000,41570.000000,44770.000000,24798.000000
16362.000000,41515.000000,44723.000000,24814.000000
16317.000000,41515.000000,44707.000000,24795.000000
16317.000000,41487.000000,44734.000000,24829.000000
16314.000000,41421.000000,44705.000000,24803.000000
16300.000000,41416.000000,44712.000000,24753.000000
16258.000000,41429.000000,44689.000000,24767.000000
16271.000000,41405.000000,44686.000000,24766.000000
16273.000000,41380.000000,44692.000000,24765.000000
16228.000000,41405.000000,44678.000000,24744.000000
16240.000000,41308.000000,44683.000000,24756.000000
16248.000000,41322.000000,44640.000000,24720.000000
16199.000000,41308.000000,44666.000000,24744.000000
16209.000000,41270.000000,44659.000000,24754.000000
16183.000000,41238.000000,44628.000000,24723.000000
16204.000000,41220.000000,44605.000000,24725.000000
16147.000000,41256.000000,44634.000000,24734.000000
16150.000000,41158.000000,44597.000000,24717.000000
16157.000000,41150.000000,44545.000000,24694.000000
16087.000000,41044.000000,44499.000000,24686.000000
16099.000000,41016.000000,44497.000000,24676.000000
15995.000000,41034.000000,44461.000000,24662.000000
15979.000000,40988.000000,44514.000000,24670.000000
16003.000000,40946.000000,44457.000000,24674.000000
15939.000000,40892.000000,44441.000000,24643.000000
15942.000000,40848.000000,44408.000000,24673.000000
15858.000000,40884.000000,44426.000000,24643.000000
15896.000000,40860.000000,44438.000000,24639.000000
15854.000000,40875.000000,44430.000000,24633.000000
15848.000000,40886.000000,44390.000000,24664.000000
15894.000000,40945.000000,44433.000000,24663.000000
15880.000000,40994.000000,44459.000000,24692.000000
15927.000000,41037.000000,44499.000000,24693.000000
15961.000000,41107.000000,44515.000000,24732.000000
15979.000000,41223.000000,44577.000000,24767.000000
16069.000000,41275.000000,44587.000000,24780.000000
16209.000000,41306.000000,44636.000000,24811.000000
16285.000000,41509.000000,44737.000000,24849.000000
16263.000000,41562.000000,44759.000000,24850.000000
16459.000000,41550.000000,44759.000000,24886.000000
16476.000000,41578.000000,44768.000000,24908.000000
16470.000000,41604.000000,44817.000000,24903.000000
16476.000000,41647.000000,44794.000000,24899.000000
16531.000000,41617.000000,44798.000000,24892.000000
16528.000000,41627.000000,44790.000000,24914.000000
16535.000000,41551.000000,44750.000000,24897.000000
16522.000000,41588.000000,44751.000000,24891.000000
16470.000000,41528.000000,44764.000000,24918.000000
16469.000000,41494.000000,44739.000000,24904.000000
16440.000000,41512.000000,44720.000000,24871.000000
16457.000000,41489.000000,44715.000000,24905.000000
16410.000000,41403.000000,44667.000000,24895.000000
16404.000000,41403.000000,44711.000000,24871.000000
16388.000000,41453.000000,44670.000000,24876.000000
16385.000000,41374.000000,44653.000000,24861.000000
16394.000000,41355.000000,44641.000000,24874.000000
16354.000000,41323.000000,44619.000000,24863.000000
16314.000000,41302.000000,44640.000000,24841.000000
16329.000000,41273.000000,44584.000000,24863.000000
16279.000000,41206.000000,44574.000000,24850.000000
16243.000000,41244.000000,44595.000000,24834.000000
16266.000000,41228.000000,44582.000000,24832.000000
16231.000000,41196.000000,44589.000000,24819.000000
16237.000000,41173.000000,44535.000000,24822.000000
16194.000000,41201.000000,44571.000000,24809.000000
16171.000000,41196.000000,44528.000000,24834.000000
16162.000000,41127.000000,44577.000000,24786.000000
16151.000000,41129.000000,44519.000000,24820.000000
16136.000000,41089.000000,44517.000000,24779.000000
16157.000000,41103.000000,44523.000000,24766.000000
16107.000000,41091.000000,44514.000000,24775.000000
16110.000000,41059.000000,44483.000000,24757.000000
16113.000000,41038.000000,44494.000000,24765.000000
16071.000000,41023.000000,44479.000000,24728.000000
16087.000000,41015.000000,44479.000000,24741.000000
16073.000000,40949.000000,44470.000000,24688.000000
16006.000000,40959.000000,44450.000000,24696.000000
16022.000000,40931.000000,44415.000000,24697.000000
15989.000000,40914.000000,44412.000000,24698.000000
15973.000000,40886.000000,44410.000000,24692.000000
15953.000000,40882.000000,44369.000000,24670.000000
15917.000000,40832.000000,44369.000000,24660.000000
15848.000000,40796.000000,44363.000000,24649.000000
15842.000000,40744.000000,44296.000000,24618.000000
15851.000000,40726.000000,44351.000000,24625.000000
15804.000000,40758.000000,44313.000000,24625.000000
15751.000000,40706.000000,44319.000000,24624.000000
15799.000000,40692.000000,44300.000000,24602.000000
15762.000000,40710.000000,44290.000000,24592.000000
15773.000000,40708.000000,44321.000000,24624.000000
15752.000000,40728.000000,44331.000000,24605.000000
15775.000000,40813.000000,44372.000000,24635.000000
15783.000000,40818.000000,44377.000000,24626.000000
15853.000000,40838.000000,44387.000000,24627.000000
15851.000000,40869.000000,44391.000000,24633.000000
15870.000000,41045.000000,44517.000000,24665.000000
15886.000000,41066.000000,44512.000000,24665.000000
16061.000000,41116.000000,44555.000000,24681.000000
16070.000000,41211.000000,44605.000000,24695.000000
16093.000000,41352.000000,44684.000000,24753.000000
16182.000000,41504.000000,44773.000000,24771.000000
16300.000000,41799.000000,44921.000000,24865.000000
16419.000000,41778.000000,44939.000000,24870.000000
16662.000000,41821.000000,44968.000000,24861.000000
16691.000000,41861.000000,44974.000000,24882.000000
16736.000000,41894.000000,45002.000000,24882.000000
16739.000000,41863.000000,45012.000000,24918.000000
16793.000000,41876.000000,44967.000000,24918.000000
16751.000000,41814.000000,44953.000000,24878.000000
16759.000000,41839.000000,44945.000000,24897.000000
16739.000000,41822.000000,44965.000000,24882.000000
16683.000000,41763.000000,44927.000000,24870.000000
16723.000000,41817.000000,44935.000000,24846.000000
16718.000000,41760.000000,44925.000000,24838.000000
16675.000000,41780.000000,44903.000000,24834.000000
16661.000000,41736.000000,44904.000000,24834.000000
16657.000000,41695.000000,44905.000000,24825.000000
16651.000000,41687.000000,44873.000000,24811.000000
16618.000000,41661.000000,44858.000000,24836.000000
16590.000000,41675.000000,44857.000000,24802.000000
16581.000000,41673.000000,44877.000000,24807.000000
16570.000000,41609.000000,44875.000000,24802.000000
16565.000000,41605.000000,44845.000000,24812.000000
16549.000000,41594.000000,44805.000000,24759.000000
16501.000000,41539.000000,44837.000000,24733.000000
16473.000000,41568.000000,44812.000000,24734.000000
16446.000000,41524.000000,44786.000000,24745.000000
16477.000000,41499.000000,44788.000000,24726.000000
16436.000000,41471.000000,44743.000000,24699.000000
16438.000000,41434.000000,44729.000000,24690.000000
16393.000000,41391.000000,44729.000000,24711.000000
16292.000000,41396.000000,44692.000000,24686.000000
16319.000000,41403.000000,44683.000000,24695.000000
16336.000000,41336.000000,44698.000000,24645.000000
16282.000000,41322.000000,44646.000000,24676.000000
16219.000000,41280.000000,44602.000000,24650.000000
16163.000000,41199.000000,44568.000000,24636.000000
16181.000000,41118.000000,44530.000000,24617.000000
16146.000000,41097.000000,44510.000000,24608.000000
15972.000000,41132.000000,44475.000000,24611.000000
15955.000000,41013.000000,44418.000000,24567.000000
15958.000000,40979.000000,44462.000000,24554.000000
15850.000000,40974.000000,44413.000000,24570.000000
15844.000000,41001.000000,44406.000000,24564.000000
15858.000000,40898.000000,44391.000000,24526.000000
15848.000000,40926.000000,44365.000000,24532.000000
15805.000000,40897.000000,44378.000000,24557.000000
15784.000000,40849.000000,44328.000000,24521.000000
15734.000000,40884.000000,44358.000000,24527.000000
15725.000000,40841.000000,44325.000000,24532.000000
15738.000000,40875.000000,44369.000000,24535.000000
15762.000000,40931.000000,44382.000000,24532.000000
15796.000000,40924.000000,44393.000000,24534.000000
15783.000000,40927.000000,44401.000000,24527.000000
15793.000000,41044.000000,44442.000000,24576.000000
15835.000000,41079.000000,44468.000000,24558.000000
15911.000000,41123.000000,44501.000000,24581.000000
15952.000000,41216.000000,44559.000000,24597.000000
15973.000000,41218.000000,44533.000000,24641.000000
16387.000000,41374.000000,44631.000000,24652.000000
16579.000000,41504.000000,44692.000000,24674.000000
16598.000000,41523.000000,44742.000000,24704.000000
16626.000000,41561.000000,44776.000000,24683.000000
16652.000000,41814.000000,44864.000000,24765.000000
16708.000000,41809.000000,44935.000000,24780.000000
16735.000000,41841.000000,44914.000000,24798.000000
16769.000000,41896.000000,44936.000000,24786.000000
16749.000000,41966.000000,44998.000000,24798.000000
16749.000000,42005.000000,45004.000000,24798.000000
16730.000000,42003.000000,45028.000000,24821.000000
16708.000000,42005.000000,45022.000000,24810.000000
16691.000000,41979.000000,45011.000000,24833.000000
16665.000000,41989.000000,44986.000000,24776.000000
16666.000000,41967.000000,45004.000000,24782.000000
16642.000000,41942.000000,44983.000000,24785.000000
16659.000000,41950.000000,44977.000000,24761.000000
16636.000000,41923.000000,44974.000000,24752.000000
16676.000000,41922.000000,44981.000000,24746.000000
16634.000000,41922.000000,44955.000000,24780.000000
16619.000000,41849.000000,44972.000000,24745.000000
16610.000000,41888.000000,44970.000000,24763.000000
16570.000000,41888.000000,44950.000000,24747.000000
16555.000000,41889.000000,44967.000000,24740.000000
16545.000000,41871.000000,45008.000000,24738.000000
16477.000000,41818.000000,44955.000000,24717.000000
16424.000000,41826.000000,44953.000000,24694.000000
16415.000000,41738.000000,44947.000000,24728.000000
16424.000000,41715.000000,44856.000000,24683.000000
16415.000000,41708.000000,44859.000000,24697.000000
16360.000000,41649.000000,44862.000000,24679.000000
16332.000000,41631.000000,44874.000000,24687.000000
16322.000000,41628.000000,44819.000000,24678.000000
16316.000000,41597.000000,44819.000000,24671.000000
16299.000000,41564.000000,44823.000000,24640.000000
16290.000000,41604.000000,44822.000000,24642.000000
16277.000000,41544.000000,44797.000000,24661.000000
16260.000000,41533.000000,44798.000000,24629.000000
16265.000000,41562.000000,44763.000000,24620.000000
16279.000000,41511.000000,44777.000000,24630.000000
16275.000000,41467.000000,44786.000000,24589.000000
16277.000000,41493.000000,44767.000000,24624.000000
16225.000000,41500.000000,44783.000000,24620.000000
16207.000000,41462.000000,44759.000000,24606.000000
16203.000000,41458.000000,44743.000000,24617.000000
16163.000000,41397.000000,44733.000000,24600.000000
16139.000000,41459.000000,44718.000000,24583.000000
16168.000000,41403.000000,44762.000000,24600.000000
16098.000000,41375.000000,44683.000000,24532.000000
16165.000000,41346.000000,44700.000000,24559.000000
16113.000000,41338.000000,44697.000000,24559.000000
16185.000000,41287.000000,44675.000000,24550.000000
16161.000000,41305.000000,44654.000000,24560.000000
16204.000000,41317.000000,44674.000000,24561.000000
16247.000000,41368.000000,44703.000000,24556.000000
16227.000000,41356.000000,44715.000000,24562.000000
16340.000000,41413.000000,44724.000000,24566.000000
16396.000000,41455.000000,44743.000000,24590.000000
16565.000000,41439.000000,44761.000000,24594.000000
16640.000000,41535.000000,44823.000000,24596.000000
16631.000000,41610.000000,44878.000000,24642.000000
16817.000000,41822.000000,44980.000000,24691.000000
16857.000000,41837.000000,45005.000000,24713.000000
16911.000000,41882.000000,45012.000000,24692.000000
16977.000000,42108.000000,45142.000000,24751.000000
17024.000000,42144.000000,45151.000000,24769.000000
17083.000000,42163.000000,45182.000000,24791.000000
17074.000000,42232.000000,45218.000000,24819.000000
17055.000000,42327.000000,45255.000000,24860.000000
17038.000000,42328.000000,45278.000000,24872.000000
17039.000000,42382.000000,45282.000000,24842.000000
17022.000000,42316.000000,45260.000000,24864.000000
16987.000000,42330.000000,45266.000000,24854.000000
16982.000000,42298.000000,45269.000000,24848.000000
16971.000000,42273.000000,45235.000000,24856.000000
16927.000000,42209.000000,45214.000000,24847.000000
16950.000000,42228.000000,45232.000000,24835.000000
16912.000000,42237.000000,45227.000000,24844.000000
16899.000000,42174.000000,45203.000000,24836.000000
16876.000000,42139.000000,45174.000000,24809.000000
16864.000000,42181.000000,45158.000000,24814.000000
16858.000000,42161.000000,45169.000000,24834.000000
16850.000000,42088.000000,45162.000000,24798.000000
16811.000000,42111.000000,45143.000000,24804.000000
16769.000000,42092.000000,45150.000000,24797.000000
16782.000000,42057.000000,45120.000000,24787.000000
16765.000000,42016.000000,45125.000000,24820.000000
16762.000000,42025.000000,45083.000000,24798.000000
16719.000000,41973.000000,45125.000000,24782.000000
16735.000000,41924.000000,45058.000000,24776.000000
16715.000000,41946.000000,45069.000000,24763.000000
16692.000000,41912.000000,45072.000000,24772.000000
16621.000000,41880.000000,45039.000000,24752.000000
16585.000000,41861.000000,45041.000000,24765.000000
16596.000000,41873.000000,44998.000000,24747.000000
16611.000000,41854.000000,45032.000000,24747.000000
16543.000000,41791.000000,44986.000000,24709.000000
16558.000000,41781.000000,44990.000000,24739.000000
16501.000000,41770.000000,44944.000000,24728.000000
16479.000000,41692.000000,44918.000000,24740.000000
16494.000000,41703.000000,44916.000000,24700.000000
16472.000000,41662.000000,44938.000000,24704.000000
16410.000000,41663.000000,44889.000000,24685.000000
16440.000000,41627.000000,44884.000000,24698.000000
16454.000000,41612.000000,44870.000000,24677.000000
16389.000000,41573.000000,44824.000000,24678.000000
16356.000000,41561.000000,44795.000000,24688.000000
16359.000000,41543.000000,44843.000000,24640.000000
16355.000000,41546.000000,44827.000000,24674.000000
16332.000000,41475.000000,44791.000000,24646.000000
16290.000000,41458.000000,44783.000000,24648.000000
16309.000000,41460.000000,44787.000000,24666.000000
16314.000000,41399.000000,44774.000000,24646.000000
16297.000000,41419.000000,44735.000000,24614.000000
16353.000000,41409.000000,44770.000000,24634.000000
16410.000000,41360.000000,44745.000000,24603.000000
16400.000000,41423.000000,44753.000000,24629.000000
16438.000000,41404.000000,44748.000000,24655.000000
16472.000000,41505.000000,44801.000000,24629.000000
16586.000000,41482.000000,44803.000000,24649.000000
16682.000000,41498.000000,44834.000000,24653.000000
16897.000000,41576.000000,44886.000000,24685.000000
16922.000000,41662.000000,44898.000000,24724.000000
16931.000000,41765.000000,44969.000000,24761.000000
16978.000000,41981.000000,45081.000000,24829.000000
17135.000000,42059.000000,45089.000000,24821.000000
17104.000000,42066.000000,45122.000000,24827.000000
17143.000000,42115.000000,45176.000000,24870.000000
17133.000000,42282.000000,45223.000000,24930.000000
17130.000000,42296.000000,45269.000000,24917.000000
17108.000000,42277.000000,45247.000000,24920.000000
17088.000000,42331.000000,45258.000000,24917.000000
17083.000000,42299.000000,45237.000000,24946.000000
17051.000000,42298.000000,45218.000000,24928.000000
16975.000000,42295.000000,45214.000000,24894.000000
16958.000000,42259.000000,45221.000000,24917.000000
17003.000000,42236.000000,45225.000000,24905.000000
16938.000000,42190.000000,45139.000000,24878.000000
16895.000000,42121.000000,45172.000000,24879.000000
16875.000000,42143.000000,45132.000000,24907.000000
16877.000000,42056.000000,45082.000000,24877.000000
16840.000000,42035.000000,45078.000000,24875.000000
16822.000000,42043.000000,45099.000000,24859.000000
16797.000000,42027.000000,45036.000000,24882.000000
16726.000000,41991.000000,45019.000000,24866.000000
16674.000000,41952.000000,45013.000000,24870.000000
16692.000000,41951.000000,45009.000000,24849.000000
16681.000000,41848.000000,44951.000000,24814.000000
16618.000000,41831.000000,44969.000000,24827.000000
16612.000000,41826.000000,44910.000000,24793.000000
16503.000000,41813.000000,44911.000000,24818.000000
16541.000000,41764.000000,44885.000000,24792.000000
16480.000000,41736.000000,44870.000000,24805.000000
16444.000000,41643.000000,44797.000000,24769.000000
16340.000000,41616.000000,44788.000000,24778.000000
16342.000000,41616.000000,44758.000000,24761.000000
16351.000000,41560.000000,44767.000000,24757.000000
16245.000000,41513.000000,44704.000000,24725.000000
16239.000000,41438.000000,44677.000000,24735.000000
16244.000000,41463.000000,44673.000000,24717.000000
16161.000000,41363.000000,44592.000000,24686.000000
16125.000000,41320.000000,44644.000000,24683.000000
16109.000000,41313.000000,44575.000000,24693.000000
16096.000000,41228.000000,44547.000000,24674.000000
16081.000000,41228.000000,44529.000000,24649.000000
16017.000000,41195.000000,44554.000000,24651.000000
16019.000000,41205.000000,44524.000000,24674.000000
15978.000000,41178.000000,44492.000000,24632.000000
15948.000000,41178.000000,44497.000000,24658.000000
15933.000000,41141.000000,44467.000000,24635.000000
15980.000000,41073.000000,44431.000000,24634.000000
15954.000000,41055.000000,44419.000000,24607.000000
15919.000000,41050.000000,44412.000000,24587.000000
15877.000000,41014.000000,44376.000000,24604.000000
15864.000000,41020.000000,44419.000000,24586.000000
15908.000000,41008.000000,44361.000000,24580.000000
15913.000000,40961.000000,44381.000000,24613.000000
15974.000000,40960.000000,44394.000000,24596.000000
16034.000000,40946.000000,44396.000000,24606.000000
16145.000000,40978.000000,44386.000000,24562.000000
16162.000000,41084.000000,44418.000000,24625.000000
16191.000000,41138.000000,44494.000000,24626.000000
16380.000000,41266.000000,44569.000000,24660.000000
16423.000000,41296.000000,44568.000000,24680.000000
16461.000000,41326.000000,44580.000000,24669.000000
16479.000000,41549.000000,44729.000000,24744.000000
16644.000000,41581.000000,44734.000000,24759.000000
16701.000000,41615.000000,44771.000000,24730.000000
16715.000000,41668.000000,44789.000000,24767.000000
16813.000000,41892.000000,44912.000000,24825.000000
16840.000000,41887.000000,44932.000000,24841.000000
16887.000000,41932.000000,44972.000000,24865.000000
16877.000000,42027.000000,45011.000000,24870.000000
16912.000000,42040.000000,45014.000000,24900.000000
16866.000000,42114.000000,45056.000000,24916.000000
16852.000000,42098.000000,45060.000000,24921.000000
16861.000000,42096.000000,45040.000000,24908.000000
16830.000000,42131.000000,45056.000000,24894.000000
16782.000000,42091.000000,45061.000000,24921.000000
16786.000000,42059.000000,45027.000000,24903.000000
16763.000000,42045.000000,45019.000000,24890.000000
16751.000000,41988.000000,44991.000000,24886.000000
16723.000000,41969.000000,44983.000000,24879.000000
16690.000000,41984.000000,44971.000000,24838.000000
16667.000000,41941.000000,45001.000000,24883.000000
16685.000000,41929.000000,44948.000000,24875.000000
16671.000000,41893.000000,44936.000000,24842.000000
16654.000000,41873.000000,44937.000000,24856.000000
16638.000000,41861.000000,44926.000000,24866.000000
16636.000000,41911.000000,44912.000000,24858.000000
16657.000000,41842.000000,44900.000000,24843.000000
16603.000000,41849.000000,44926.000000,24865.000000
16645.000000,41823.000000,44926.000000,24885.000000
16653.000000,41835.000000,44915.000000,24850.000000
16632.000000,41823.000000,44957.000000,24835.000000
16632.000000,41856.000000,44935.000000,24844.000000
16604.000000,41800.000000,44930.000000,24846.000000
16608.000000,41836.000000,44920.000000,24816.000000
16569.000000,41798.000000,44945.000000,24834.000000
16562.000000,41809.000000,44921.000000,24834.000000
16565.000000,41812.000000,44936.000000,24814.000000
16586.000000,41730.000000,44901.000000,24811.000000
16583.000000,41759.000000,44903.000000,24811.000000
16549.000000,41713.000000,44915.000000,24807.000000
16600.000000,41734.000000,44879.000000,24819.000000
16602.000000,41753.000000,44894.000000,24808.000000
16627.000000,41691.000000,44911.000000,24802.000000
16604.000000,41735.000000,44921.000000,24787.000000
16636.000000,41697.000000,44932.000000,24792.000000
16641.000000,41735.000000,44947.000000,24793.000000
16623.000000,41699.000000,44930.000000,24751.000000
16542.000000,41745.000000,44928.000000,24786.000000
16613.000000,41693.000000,44934.000000,24776.000000
16554.000000,41682.000000,44933.000000,24763.000000
16568.000000,41613.000000,44921.000000,24750.000000
16567.000000,41642.000000,44875.000000,24780.000000
16597.000000,41647.000000,44902.000000,24755.000000
16568.000000,41640.000000,44885.000000,24743.000000
16600.000000,41609.000000,44895.000000,24760.000000
16693.000000,41617.000000,44900.000000,24721.000000
16754.000000,41622.000000,44906.000000,24757.000000
16716.000000,41647.000000,44892.000000,24754.000000
16757.000000,41721.000000,45012.000000,24776.000000
16822.000000,41760.000000,44989.000000,24788.000000
16916.000000,41778.000000,44988.000000,24794.000000
16936.000000,41762.000000,45003.000000,24799.000000
16982.000000,41809.000000,44989.000000,24784.000000
17130.000000,41922.000000,45092.000000,24841.000000
17176.000000,42004.000000,45113.000000,24824.000000
17233.000000,42011.000000,45171.000000,24855.000000
17417.000000,42245.000000,45271.000000,24893.000000
17399.000000,42267.000000,45282.000000,24907.000000
17488.000000,42316.000000,45292.000000,24944.000000
17566.000000,42527.000000,45459.000000,24975.000000
17623.000000,42613.000000,45470.000000,25006.000000
17675.000000,42601.000000,45478.000000,25038.000000
17664.000000,42681.000000,45527.000000,25052.000000
17642.000000,42812.000000,45593.000000,25079.000000
17617.000000,42841.000000,45606.000000,25081.000000
17616.000000,42858.000000,45624.000000,25073.000000
17626.000000,42860.000000,45618.000000,25073.000000
17570.000000,42825.000000,45603.000000,25078.000000
17542.000000,42761.000000,45572.000000,25041.000000
17512.000000,42739.000000,45581.000000,25082.000000
17470.000000,42779.000000,45540.000000,25021.000000
17513.000000,42723.000000,45545.000000,25030.000000
17499.000000,42655.000000,45513.000000,24992.000000
17456.000000,42676.000000,45494.000000,25014.000000
17433.000000,42624.000000,45504.000000,25000.000000
17433.000000,42655.000000,45520.000000,25006.000000
17379.000000,42620.000000,45477.000000,24979.000000
17352.000000,42593.000000,45474.000000,24999.000000
17275.000000,42557.000000,45450.000000,24968.000000
17300.000000,42518.000000,45447.000000,24992.000000
17288.000000,42478.000000,45413.000000,24959.000000
17235.000000,42402.000000,45366.000000,24943.000000
17221.000000,42409.000000,45362.000000,24935.000000
17219.000000,42425.000000,45357.000000,24909.000000
17183.000000,42374.000000,45327.000000,24907.000000
17149.000000,42346.000000,45335.000000,24900.000000
17115.000000,42357.000000,45326.000000,24926.000000
17077.000000,42271.000000,45281.000000,24898.000000
17053.000000,42288.000000,45278.000000,24897.000000
17012.000000,42257.000000,45287.000000,24874.000000
17026.000000,42204.000000,45227.000000,24871.000000
16982.000000,42190.000000,45208.000000,24865.000000
16987.000000,42163.000000,45214.000000,24866.000000
16971.000000,42171.000000,45208.000000,24838.000000
16930.000000,42123.000000,45179.000000,24856.000000
16895.000000,42097.000000,45164.000000,24821.000000
16887.000000,42112.000000,45171.000000,24836.000000
16876.000000,42052.000000,45141.000000,24832.000000
16832.000000,42038.000000,45132.000000,24825.000000
16882.000000,42022.000000,45124.000000,24816.000000
16873.000000,42005.000000,45124.000000,24790.000000
16822.000000,41990.000000,45094.000000,24784.000000
16796.000000,41968.000000,45096.000000,24781.000000
16816.000000,41969.000000,45077.000000,24774.000000
16810.000000,41964.000000,45093.000000,24774.000000
16840.000000,41930.000000,45073.000000,24757.000000
16858.000000,41923.000000,45076.000000,24756.000000
16883.000000,41949.000000,45089.000000,24768.000000
16962.000000,41912.000000,45070.000000,24759.000000
17024.000000,41978.000000,45134.000000,24731.000000
17032.000000,42022.000000,45147.000000,24752.000000
17069.000000,42062.000000,45157.000000,24758.000000
17133.000000,42138.000000,45185.000000,24803.000000
17139.000000,42185.000000,45207.000000,24797.000000
17196.000000,42177.000000,45211.000000,24811.000000
17297.000000,42351.000000,45291.000000,24832.000000
17300.000000,42367.000000,45307.000000,24861.000000
17338.000000,42392.000000,45333.000000,24859.000000
17327.000000,42509.000000,45375.000000,24896.000000
17404.000000,42501.000000,45419.000000,24922.000000
17414.000000,42541.000000,45404.000000,24943.000000
17405.000000,42563.000000,45415.000000,24893.000000
17400.000000,42617.000000,45471.000000,24959.000000
17378.000000,42601.000000,45462.000000,24948.000000
17276.000000,42624.000000,45451.000000,24974.000000
17278.000000,42594.000000,45445.000000,24962.000000
17245.000000,42605.000000,45398.000000,24950.000000
17241.000000,42462.000000,45414.000000,24943.000000
17144.000000,42461.000000,45335.000000,24945.000000
17152.000000,42464.000000,45346.000000,24953.000000
17079.000000,42419.000000,45316.000000,24935.000000
17103.000000,42322.000000,45247.000000,24919.000000
16985.000000,42342.000000,45246.000000,24897.000000
17005.000000,42283.000000,45235.000000,24901.000000
16957.000000,42293.000000,45214.000000,24894.000000
16885.000000,42201.000000,45172.000000,24870.000000
16864.000000,42167.000000,45123.000000,24866.000000
16821.000000,42181.000000,45111.000000,24871.000000
16734.000000,42143.000000,45084.000000,24854.000000
16710.000000,42052.000000,45047.000000,24840.000000
16596.000000,42001.000000,44999.000000,24843.000000
16599.000000,41948.000000,44930.000000,24808.000000
16571.000000,41875.000000,44934.000000,24806.000000
16488.000000,41783.000000,44860.000000,24792.000000
16484.000000,41746.000000,44826.000000,24765.000000
16459.000000,41749.000000,44814.000000,24775.000000
16481.000000,41654.000000,44788.000000,24755.000000
16424.000000,41638.000000,44783.000000,24754.000000
16415.000000,41642.000000,44728.000000,24759.000000
16369.000000,41618.000000,44754.000000,24767.000000
16325.000000,41581.000000,44718.000000,24731.000000
16318.000000,41590.000000,44709.000000,24699.000000
16277.000000,41531.000000,44668.000000,24714.000000
16244.000000,41504.000000,44647.000000,24688.000000
16197.000000,41455.000000,44663.000000,24678.000000
16178.000000,41413.000000,44625.000000,24684.000000
16153.000000,41395.000000,44615.000000,24671.000000
16128.000000,41339.000000,44599.000000,24659.000000
16090.000000,41268.000000,44558.000000,24655.000000
16126.000000,41257.000000,44543.000000,24642.000000
16138.000000,41269.000000,44503.000000,24654.000000
16153.000000,41232.000000,44515.000000,24619.000000
16248.000000,41231.000000,44502.000000,24612.000000
16320.000000,41247.000000,44514.000000,24633.000000
16439.000000,41294.000000,44568.000000,24641.000000
16534.000000,41374.000000,44617.000000,24649.000000
16740.000000,41441.000000,44655.000000,24686.000000
16765.000000,41592.000000,44741.000000,24729.000000
16799.000000,41691.000000,44811.000000,24780.000000
16999.000000,41873.000000,44916.000000,24797.000000
16949.000000,41877.000000,44957.000000,24827.000000
16967.000000,41944.000000,44963.000000,24823.000000
17006.000000,42127.000000,45053.000000,24873.000000
17044.000000,42139.000000,45069.000000,24859.000000
16997.000000,42144.000000,45102.000000,24897.000000
17032.000000,42181.000000,45061.000000,24916.000000
16996.000000,42191.000000,45114.000000,24931.000000
16969.000000,42219.000000,45082.000000,24932.000000
17002.000000,42221.000000,45108.000000,24920.000000
16991.000000,42182.000000,45065.000000,24927.000000
16966.000000,42134.000000,45069.000000,24914.000000
16952.000000,42122.000000,45080.000000,24926.000000
16941.000000,42167.000000,45057.000000,24911.000000
16940.000000,42126.000000,45070.000000,24937.000000
16947.000000,42126.000000,45058.000000,24917.000000
16940.000000,42105.000000,45038.000000,24900.000000
16961.000000,42106.000000,45032.000000,24903.000000
16947.000000,42088.000000,45029.000000,24904.000000
16938.000000,42084.000000,45048.000000,24896.000000
16932.000000,42030.000000,45035.000000,24922.000000
16953.000000,42052.000000,45047.000000,24892.000000
16953.000000,42062.000000,45053.000000,24915.000000
16921.000000,42036.000000,45063.000000,24917.000000
16900.000000,42009.000000,45055.000000,24931.000000
16904.000000,42034.000000,45059.000000,24922.000000
16919.000000,42020.000000,45029.000000,24900.000000
16898.000000,41972.000000,45043.000000,24903.000000
16884.000000,41986.000000,45018.000000,24886.000000
16869.000000,41952.000000,44995.000000,24893.000000
16889.000000,41928.000000,45012.000000,24895.000000
16814.000000,41928.000000,45000.000000,24875.000000
16761.000000,41911.000000,45006.000000,24888.000000
16799.000000,41884.000000,44977.000000,24892.000000
16773.000000,41835.000000,44952.000000,24867.000000
16731.000000,41866.000000,44948.000000,24868.000000
16728.000000,41827.000000,44914.000000,24881.000000
16671.000000,41783.000000,44904.000000,24853.000000
16704.000000,41768.000000,44890.000000,24863.000000
16650.000000,41764.000000,44927.000000,24870.000000
16648.000000,41711.000000,44871.000000,24850.000000
16620.000000,41727.000000,44874.000000,24834.000000
16617.000000,41675.000000,44837.000000,24830.000000
16595.000000,41617.000000,44844.000000,24817.000000
16558.000000,41644.000000,44826.000000,24839.000000
16527.000000,41607.000000,44815.000000,24808.000000
16517.000000,41624.000000,44792.000000,24802.000000
16552.000000,41587.000000,44804.000000,24812.000000
16503.000000,41525.000000,44758.000000,24795.000000
16503.000000,41498.000000,44776.000000,24823.000000
16515.000000,41523.000000,44750.000000,24804.000000
16538.000000,41505.000000,44779.000000,24775.000000
16563.000000,41452.000000,44753.000000,24803.000000
16575.000000,41490.000000,44729.000000,24800.000000
16605.000000,41506.000000,44792.000000,24796.000000
16685.000000,41522.000000,44751.000000,24800.000000
16686.000000,41539.000000,44810.000000,24799.000000
16787.000000,41604.000000,44837.000000,24852.000000
16840.000000,41660.000000,44868.000000,24858.000000
16894.000000,41715.000000,44863.000000,24841.000000
17039.000000,41813.000000,44915.000000,24843.000000
17095.000000,41892.000000,45004.000000,24893.000000
17111.000000,41909.000000,45002.000000,24903.000000
17232.000000,42095.000000,45140.000000,24962.000000
17227.000000,42139.000000,45131.000000,24940.000000
17324.000000,42187.000000,45203.000000,24960.000000
17403.000000,42304.000000,45216.000000,25009.000000
17405.000000,42311.000000,45260.000000,25012.000000
17425.000000,42432.000000,45281.000000,25023.000000
17434.000000,42530.000000,45342.000000,25069.000000
17398.000000,42514.000000,45394.000000,25078.000000
17450.000000,42519.000000,45352.000000,25085.000000
17394.000000,42542.000000,45353.000000,25084.000000
17386.000000,42550.000000,45350.000000,25079.000000
17373.000000,42539.000000,45371.000000,25078.000000
17298.000000,42499.000000,45336.000000,25054.000000
17337.000000,42496.000000,45354.000000,25052.000000
17294.000000,42464.000000,45357.000000,25059.000000
17244.000000,42443.000000,45318.000000,25068.000000
17278.000000,42440.000000,45280.000000,25058.000000
17270.000000,42430.000000,45293.000000,25041.000000
17213.000000,42351.000000,45240.000000,25013.000000
17164.000000,42351.000000,45255.000000,25028.000000
17165.000000,42338.000000,45233.000000,25004.000000
17165.000000,42337.000000,45248.000000,25019.000000
17158.000000,42286.000000,45251.000000,25034.000000
17069.000000,42274.000000,45176.000000,24983.000000
17102.000000,42234.000000,45187.000000,25004.000000
17080.000000,42209.000000,45153.000000,24982.000000
16987.000000,42160.000000,45155.000000,24983.000000
16985.000000,42160.000000,45142.000000,24977.000000
16998.000000,42206.000000,45119.000000,24970.000000
16922.000000,42070.000000,45100.000000,24951.000000
16925.000000,42042.000000,45090.000000,24966.000000
16926.000000,42061.000000,45093.000000,24966.000000
16880.000000,42009.000000,45051.000000,24949.000000
16869.000000,41991.000000,45022.000000,24940.000000
16815.000000,41953.000000,45029.000000,24942.000000
16817.000000,41906.000000,45004.000000,24918.000000
16794.000000,41888.000000,45008.000000,24923.000000
16753.000000,41876.000000,45001.000000,24909.000000
16729.000000,41864.000000,44971.000000,24907.000000
16704.000000,41838.000000,44928.000000,24938.000000
16728.000000,41760.000000,44926.000000,24880.000000
16634.000000,41785.000000,44893.000000,24898.000000
16662.000000,41738.000000,44920.000000,24897.000000
16658.000000,41727.000000,44900.000000,24884.000000
16611.000000,41692.000000,44878.000000,24859.000000
16615.000000,41694.000000,44850.000000,24865.000000
16570.000000,41635.000000,44820.000000,24881.000000
16554.000000,41648.000000,44847.000000,24859.000000
16523.000000,41577.000000,44818.000000,24849.000000
16553.000000,41574.000000,44778.000000,24829.000000
16614.000000,41561.000000,44783.000000,24845.000000
16608.000000,41567.000000,44772.000000,24823.000000
16712.000000,41553.000000,44765.000000,24813.000000
16704.000000,41577.000000,44808.000000,24839.000000
16750.000000,41565.000000,44802.000000,24865.000000
16815.000000,41688.000000,44849.000000,24849.000000
16838.000000,41728.000000,44882.000000,24895.000000
16939.000000,41735.000000,44927.000000,24879.000000
17145.000000,41794.000000,44958.000000,24910.000000
17176.000000,41904.000000,44969.000000,24909.000000
17184.000000,41955.000000,45039.000000,24936.000000
17399.000000,42220.000000,45143.000000,24979.000000
17438.000000,42232.000000,45196.000000,24995.000000
17469.000000,42280.000000,45232.000000,25006.000000
17522.000000,42532.000000,45352.000000,25068.000000
17591.000000,42536.000000,45383.000000,25099.000000
17637.000000,42592.000000,45376.000000,25089.000000
17573.000000,42592.000000,45427.000000,25084.000000
17598.000000,42724.000000,45489.000000,25140.000000
17606.000000,42704.000000,45473.000000,25135.000000
17619.000000,42717.000000,45484.000000,25133.000000
17575.000000,42722.000000,45489.000000,25139.000000
17569.000000,42742.000000,45492.000000,25137.000000
17582.000000,42720.000000,45495.000000,25149.000000
17539.000000,42686.000000,45484.000000,25142.000000
17550.000000,42659.000000,45504.000000,25121.000000
17524.000000,42677.000000,45449.000000,25140.000000
17533.000000,42616.000000,45482.000000,25134.000000
17536.000000,42660.000000,45466.000000,25113.000000
17545.000000,42650.000000,45436.000000,25146.000000
17512.000000,42611.000000,45480.000000,25101.000000
17512.000000,42619.000000,45459.000000,25085.000000
17475.000000,42565.000000,45427.000000,25097.000000
17485.000000,42602.000000,45440.000000,25107.000000
17491.000000,42590.000000,45434.000000,25080.000000
17407.000000,42558.000000,45413.000000,25072.000000
17441.000000,42510.000000,45414.000000,25056.000000
17390.000000,42531.000000,45399.000000,25106.000000
17372.000000,42456.000000,45388.000000,25065.000000
17369.000000,42450.000000,45376.000000,25048.000000
17323.000000,42464.000000,45333.000000,25039.000000
17318.000000,42436.000000,45355.000000,25032.000000
17282.000000,42422.000000,45338.000000,25041.000000
17234.000000,42373.000000,45302.000000,25034.000000
17238.000000,42345.000000,45258.000000,25023.000000
17196.000000,42320.000000,45274.000000,25017.000000
17147.000000,42260.000000,45232.000000,25025.000000
17140.000000,42266.000000,45233.000000,25002.000000
17109.000000,42277.000000,45214.000000,24989.000000
17025.000000,42223.000000,45225.000000,24977.000000
17007.000000,42193.000000,45199.000000,24992.000000
17000.000000,42146.000000,45156.000000,24975.000000
16854.000000,42102.000000,45147.000000,24944.000000
16853.000000,42066.000000,45126.000000,24930.000000
16872.000000,42002.000000,45049.000000,24948.000000
16854.000000,41958.000000,44988.000000,24902.000000
16850.000000,41877.000000,44995.000000,24935.000000
16861.000000,41883.000000,44980.000000,24915.000000
16860.000000,41884.000000,44970.000000,24866.000000
16876.000000,41848.000000,44994.000000,24893.000000
16910.000000,41852.000000,44977.000000,24893.000000
16892.000000,41879.000000,44987.000000,24882.000000
16861.000000,41893.000000,44974.000000,24873.000000
16905.000000,41883.000000,44998.000000,24874.000000
16963.000000,41924.000000,45007.000000,24892.000000
16966.000000,41881.000000,45047.000000,24880.000000
16987.000000,41961.000000,45013.000000,24912.000000
17044.000000,41965.000000,45030.000000,24925.000000
17071.000000,41996.000000,45037.000000,24909.000000
17100.000000,42043.000000,45026.000000,24920.000000
17248.000000,42152.000000,45108.000000,24933.000000
17255.000000,42156.000000,45081.000000,24973.000000
17271.000000,42192.000000,45133.000000,24970.000000
17331.000000,42362.000000,45222.000000,25011.000000
17346.000000,42381.000000,45239.000000,25029.000000
17397.000000,42399.000000,45281.000000,25048.000000
17403.000000,42448.000000,45262.000000,25043.000000
17415.000000,42527.000000,45316.000000,25083.000000
17387.000000,42562.000000,45312.000000,25092.000000
17343.000000,42538.000000,45343.000000,25084.000000
17329.000000,42519.000000,45313.000000,25088.000000
17380.000000,42559.000000,45309.000000,25087.000000
17382.000000,42524.000000,45293.000000,25083.000000
17333.000000,42518.000000,45280.000000,25074.000000
17339.000000,42505.000000,45299.000000,25116.000000
17332.000000,42516.000000,45300.000000,25094.000000
17349.000000,42488.000000,45297.000000,25067.000000
17354.000000,42471.000000,45266.000000,25071.000000
17374.000000,42505.000000,45278.000000,25078.000000
17340.000000,42462.000000,45321.000000,25094.000000
17324.000000,42450.000000,45285.000000,25062.000000
17357.000000,42484.000000,45306.000000,25088.000000
17348.000000,42473.000000,45301.000000,25070.000000
17359.000000,42458.000000,45315.000000,25071.000000
17402.000000,42521.000000,45341.000000,25071.000000
17405.000000,42500.000000,45349.000000,25103.000000
17393.000000,42452.000000,45323.000000,25070.000000
17426.000000,42534.000000,45337.000000,25064.000000
17390.000000,42532.000000,45342.000000,25061.000000
17374.000000,42499.000000,45350.000000,25050.000000
17367.000000,42508.000000,45370.000000,25071.000000
17357.000000,42515.000000,45365.000000,25044.000000
17296.000000,42467.000000,45334.000000,25043.000000
17335.000000,42483.000000,45352.000000,25036.000000
17296.000000,42441.000000,45308.000000,25027.000000
17273.000000,42410.000000,45341.000000,25030.000000
17240.000000,42400.000000,45327.000000,25023.000000
17251.000000,42370.000000,45268.000000,25017.000000
17273.000000,42409.000000,45299.000000,24995.000000
17208.000000,42349.000000,45324.000000,25004.000000
17232.000000,42342.000000,45309.000000,25007.000000
17235.000000,42322.000000,45293.000000,24966.000000
17175.000000,42285.000000,45293.000000,24986.000000
17185.000000,42265.000000,45274.000000,24964.000000
17174.000000,42317.000000,45284.000000,24951.000000
17140.000000,42302.000000,45244.000000,24983.000000
17134.000000,42260.000000,45285.000000,24945.000000
17150.000000,42253.000000,45261.000000,24955.000000
17108.000000,42196.000000,45222.000000,24949.000000
17077.000000,42207.000000,45192.000000,24932.000000
17101.000000,42204.000000,45204.000000,24933.000000
17163.000000,42168.000000,45191.000000,24929.000000
17157.000000,42193.000000,45184.000000,24923.000000
17170.000000,42144.000000,45184.000000,24929.000000
17183.000000,42186.000000,45231.000000,24943.000000
17305.000000,42276.000000,45232.000000,24928.000000
17249.000000,42222.000000,45222.000000,24926.000000
17316.000000,42245.000000,45253.000000,24934.000000
17354.000000,42315.000000,45300.000000,24953.000000
17348.000000,42351.000000,45252.000000,24947.000000
17402.000000,42339.000000,45281.000000,24971.000000
17495.000000,42398.000000,45303.000000,24988.000000
17583.000000,42467.000000,45345.000000,24979.000000
17607.000000,42498.000000,45382.000000,25004.000000
17601.000000,42602.000000,45389.000000,25026.000000
17624.000000,42680.000000,45463.000000,25063.000000
17667.000000,42736.000000,45493.000000,25065.000000
17657.000000,42756.000000,45479.000000,25096.000000
17658.000000,42775.000000,45486.000000,25082.000000
17623.000000,42819.000000,45503.000000,25120.000000
17612.000000,42847.000000,45511.000000,25125.000000
17547.000000,42803.000000,45502.000000,25127.000000
17521.000000,42755.000000,45446.000000,25083.000000
17514.000000,42723.000000,45425.000000,25127.000000
17503.000000,42737.000000,45429.000000,25081.000000
17435.000000,42671.000000,45411.000000,25077.000000
17442.000000,42657.000000,45371.000000,25093.000000
17413.000000,42593.000000,45366.000000,25062.000000
17362.000000,42545.000000,45332.000000,25036.000000
17402.000000,42552.000000,45307.000000,25033.000000
17353.000000,42530.000000,45340.000000,25037.000000
17350.000000,42494.000000,45275.000000,25030.000000
17348.000000,42499.000000,45258.000000,25035.000000
17297.000000,42486.000000,45302.000000,25015.000000
17239.000000,42465.000000,45287.000000,25016.000000
17281.000000,42389.000000,45267.000000,25031.000000
17248.000000,42373.000000,45201.000000,25004.000000
17193.000000,42350.000000,45198.000000,24995.000000
17151.000000,42338.000000,45197.000000,24998.000000
17103.000000,42294.000000,45185.000000,24996.000000
17098.000000,42317.000000,45153.000000,24978.000000
17076.000000,42238.000000,45133.000000,24970.000000
17043.000000,42198.000000,45137.000000,24982.000000
16979.000000,42172.000000,45102.000000,24949.000000
16941.000000,42118.000000,45077.000000,24961.000000
16871.000000,42079.000000,45051.000000,24913.000000
16811.000000,42036.000000,45023.000000,24911.000000
16791.000000,41997.000000,44985.000000,24915.000000
16696.000000,41896.000000,44918.000000,24915.000000
16645.000000,41855.000000,44870.000000,24897.000000
16695.000000,41796.000000,44836.000000,24888.000000
16641.000000,41711.000000,44808.000000,24868.000000
16607.000000,41659.000000,44760.000000,24837.000000
16619.000000,41662.000000,44770.000000,24813.000000
16583.000000,41655.000000,44751.000000,24845.000000
16547.000000,41612.000000,44712.000000,24820.000000
16582.000000,41638.000000,44719.000000,24802.000000
16525.000000,41540.000000,44678.000000,24807.000000
16625.000000,41546.000000,44694.000000,24795.000000
16677.000000,41544.000000,44720.000000,24820.000000
16707.000000,41601.000000,44716.000000,24803.000000
16710.000000,41600.000000,44691.000000,24804.000000
16883.000000,41657.000000,44763.000000,24819.000000
16894.000000,41677.000000,44755.000000,24823.000000
16894.000000,41704.000000,44785.000000,24859.000000
16971.000000,41846.000000,44861.000000,24880.000000
17120.000000,41906.000000,44876.000000,24877.000000
17156.000000,41917.000000,44886.000000,24903.000000
17185.000000,41948.000000,44911.000000,24902.000000
17200.000000,42180.000000,45011.000000,24967.000000
17259.000000,42175.000000,45091.000000,24960.000000
17316.000000,42198.000000,45061.000000,24987.000000
17341.000000,42270.000000,45104.000000,24997.000000
17340.000000,42333.000000,45129.000000,25009.000000
17385.000000,42413.000000,45156.000000,25028.000000
17353.000000,42446.000000,45188.000000,25043.000000
17347.000000,42450.000000,45202.000000,25043.000000
17311.000000,42440.000000,45203.000000,25065.000000
17279.000000,42420.000000,45189.000000,25078.000000
17286.000000,42423.000000,45149.000000,25052.000000
17227.000000,42435.000000,45163.000000,25033.000000
17220.000000,42368.000000,45151.000000,25040.000000
17208.000000,42312.000000,45133.000000,25023.000000
17087.000000,42268.000000,45089.000000,25006.000000
17125.000000,42307.000000,45087.000000,24999.000000
17079.000000,42251.000000,45097.000000,25003.000000
17068.000000,42137.000000,45027.000000,24998.000000
17077.000000,42179.000000,45026.000000,25006.000000
17032.000000,42178.000000,45018.000000,24976.000000
17040.000000,42095.000000,44992.000000,24984.000000
17071.000000,42116.000000,44973.000000,24946.000000
17018.000000,42124.000000,45002.000000,24942.000000
17012.000000,42049.000000,44982.000000,24959.000000
16985.000000,42052.000000,44983.000000,24939.000000
16945.000000,42000.000000,44961.000000,24960.000000
16957.000000,42028.000000,44941.000000,24965.000000
16982.000000,41987.000000,44946.000000,24940.000000
16930.000000,41992.000000,44931.000000,24936.000000
16950.000000,42001.000000,44943.000000,24933.000000
16895.000000,41982.000000,44916.000000,24932.000000
16893.000000,41945.000000,44884.000000,24928.000000
16911.000000,41941.000000,44894.000000,24913.000000
16817.000000,41900.000000,44893.000000,24912.000000
16851.000000,41867.000000,44895.000000,24926.000000
16829.000000,41885.000000,44873.000000,24893.000000
16798.000000,41836.000000,44885.000000,24905.000000
16823.000000,41786.000000,44850.000000,24884.000000
16817.000000,41848.000000,44844.000000,24881.000000
16796.000000,41831.000000,44846.000000,24891.000000
16785.000000,41805.000000,44825.000000,24900.000000
16784.000000,41780.000000,44819.000000,24916.000000
16762.000000,41791.000000,44805.000000,24882.000000
16799.000000,41803.000000,44812.000000,24875.000000
16757.000000,41775.000000,44808.000000,24867.000000
16714.000000,41790.000000,44829.000000,24861.000000
16722.000000,41741.000000,44828.000000,24876.000000
16696.000000,41707.000000,44802.000000,24873.000000
16668.000000,41741.000000,44815.000000,24848.000000
16681.000000,41690.000000,44816.000000,24860.000000
16734.000000,41686.000000,44779.000000,24844.000000
16750.000000,41631.000000,44760.000000,24848.000000
16782.000000,41617.000000,44736.000000,24829.000000
16888.000000,41676.000000,44800.000000,24835.000000
16965.000000,41701.000000,44793.000000,24852.000000
16984.000000,41746.000000,44805.000000,24836.000000
17001.000000,41925.000000,44903.000000,24894.000000
17095.000000,41935.000000,44915.000000,24924.000000
17337.000000,41990.000000,44934.000000,24890.000000
17345.000000,41984.000000,44973.000000,24940.000000
17381.000000,42107.000000,45050.000000,24941.000000
17446.000000,42334.000000,45187.000000,25010.000000
17537.000000,42404.000000,45185.000000,25027.000000
17596.000000,42407.000000,45256.000000,25030.000000
17692.000000,42464.000000,45246.000000,25037.000000
17669.000000,42575.000000,45306.000000,25071.000000
17691.000000,42692.000000,45360.000000,25096.000000
17706.000000,42717.000000,45447.000000,25108.000000
17702.000000,42772.000000,45408.000000,25099.000000
17716.000000,42733.000000,45420.000000,25127.000000
17675.000000,42734.000000,45423.000000,25145.000000
17629.000000,42726.000000,45417.000000,25132.000000
17641.000000,42760.000000,45432.000000,25111.000000
17584.000000,42697.000000,45405.000000,25110.000000
17574.000000,42657.000000,45404.000000,25110.000000
17532.000000,42702.000000,45421.000000,25110.000000
17457.000000,42654.000000,45344.000000,25087.000000
17298.000000,42600.000000,45331.000000,25086.000000
17274.000000,42539.000000,45311.000000,25086.000000
17265.000000,42468.000000,45243.000000,25067.000000
17229.000000,42376.000000,45160.000000,25026.000000
17208.000000,42389.000000,45128.000000,25011.000000
17147.000000,42306.000000,45118.000000,25046.000000
17084.000000,42321.000000,45126.000000,25039.000000
17036.000000,42305.000000,45084.000000,24988.000000
17087.000000,42227.000000,45066.000000,24992.000000
17025.000000,42135.000000,44988.000000,24938.000000
17036.000000,42111.000000,44982.000000,24954.000000
17056.000000,42090.000000,44951.000000,24951.000000
17018.000000,42057.000000,44963.000000,24934.000000
17021.000000,42059.000000,44929.000000,24938.000000
16968.000000,42069.000000,44931.000000,24914.000000
16980.000000,42030.000000,44920.000000,24949.000000
16963.000000,42004.000000,44912.000000,24918.000000
16918.000000,42000.000000,44902.000000,24931.000000
16889.000000,41972.000000,44925.000000,24914.000000
16929.000000,41956.000000,44883.000000,24901.000000
16934.000000,41961.000000,44865.000000,24907.000000
16870.000000,41928.000000,44893.000000,24875.000000
16877.000000,41876.000000,44867.000000,24892.000000
16858.000000,41944.000000,44851.000000,24873.000000
16846.000000,41906.000000,44842.000000,24891.000000
16759.000000,41871.000000,44833.000000,24854.000000
16804.000000,41843.000000,44845.000000,24882.000000
16821.000000,41853.000000,44816.000000,24860.000000
16773.000000,41850.000000,44785.000000,24852.000000
16777.000000,41769.000000,44785.000000,24870.000000
16710.000000,41779.000000,44803.000000,24866.000000
16752.000000,41822.000000,44771.000000,24843.000000
16729.000000,41753.000000,44763.000000,24825.000000
16738.000000,41738.000000,44759.000000,24816.000000
16736.000000,41737.000000,44764.000000,24856.000000
16825.000000,41692.000000,44766.000000,24825.000000
16828.000000,41719.000000,44760.000000,24831.000000
16901.000000,41764.000000,44764.000000,24823.000000
16936.000000,41837.000000,44849.000000,24822.000000
16999.000000,41828.000000,44819.000000,24857.000000
17000.000000,41853.000000,44855.000000,24870.000000
17136.000000,41965.000000,44858.000000,24869.000000
17171.000000,42047.000000,44912.000000,24896.000000
17205.000000,42061.000000,44954.000000,24910.000000
17226.000000,42230.000000,45008.000000,24926.000000
17291.000000,42243.000000,45089.000000,24960.000000
17352.000000,42295.000000,45054.000000,24959.000000
17470.000000,42312.000000,45098.000000,24965.000000
17455.000000,42407.000000,45122.000000,24992.000000
17442.000000,42408.000000,45157.000000,25006.000000
17493.000000,42540.000000,45240.000000,25046.000000
17450.000000,42576.000000,45247.000000,25041.000000
17477.000000,42571.000000,45232.000000,25050.000000
17447.000000,42583.000000,45231.000000,25060.000000
17439.000000,42603.000000,45246.000000,25077.000000
17463.000000,42616.000000,45245.000000,25046.000000
17449.000000,42579.000000,45243.000000,25085.000000
17426.000000,42610.000000,45250.000000,25072.000000
17434.000000,42576.000000,45254.000000,25089.000000
17429.000000,42572.000000,45249.000000,25066.000000
17398.000000,42582.000000,45281.000000,25056.000000
17359.000000,42570.000000,45288.000000,25067.000000
17352.000000,42557.000000,45228.000000,25037.000000
17284.000000,42507.000000,45238.000000,25049.000000
17298.000000,42532.000000,45236.000000,25038.000000
17299.000000,42479.000000,45195.000000,25017.000000
17246.000000,42485.000000,45197.000000,25008.000000
17266.000000,42416.000000,45206.000000,25003.000000
17206.000000,42441.000000,45174.000000,25016.000000
17210.000000,42432.000000,45171.000000,24991.000000
17205.000000,42393.000000,45183.000000,24991.000000
17183.000000,42413.000000,45172.000000,25007.000000
17179.000000,42359.000000,45159.000000,25001.000000
17174.000000,42367.000000,45168.000000,24999.000000
17214.000000,42359.000000,45158.000000,24990.000000
17172.000000,42342.000000,45140.000000,24974.000000
17170.000000,42335.000000,45167.000000,24969.000000
17144.000000,42328.000000,45148.000000,24985.000000
17079.000000,42319.000000,45121.000000,24955.000000
17090.000000,42276.000000,45137.000000,24941.000000
17050.000000,42264.000000,45125.000000,24948.000000
17012.000000,42194.000000,45064.000000,24935.000000
16970.000000,42225.000000,45046.000000,24912.000000
16993.000000,42172.000000,45058.000000,24908.000000
16942.000000,42156.000000,45018.000000,24867.000000
16930.000000,42127.000000,45006.000000,24894.000000
16925.000000,42103.000000,44992.000000,24887.000000
16920.000000,42081.000000,44982.000000,24872.000000
16871.000000,42087.000000,44980.000000,24859.000000
16914.000000,42061.000000,44979.000000,24861.000000
16886.000000,42060.000000,45017.000000,24849.000000
16879.000000,42019.000000,44980.000000,24841.000000
16897.000000,42045.000000,44977.000000,24834.000000
16915.000000,42029.000000,44972.000000,24842.000000
16931.000000,41996.000000,44936.000000,24840.000000
17017.000000,42016.000000,44938.000000,24853.000000
17175.000000,42043.000000,44930.000000,24839.000000
17214.000000,42127.000000,44969.000000,24825.000000
17232.000000,42196.000000,45052.000000,24868.000000
17267.000000,42377.000000,45147.000000,24943.000000
17420.000000,42385.000000,45181.000000,24904.000000
17449.000000,42452.000000,45187.000000,24922.000000
17477.000000,42430.000000,45206.000000,24955.000000
17526.000000,42616.000000,45346.000000,24987.000000
17664.000000,42673.000000,45360.000000,24982.000000
17669.000000,42692.000000,45394.000000,25006.000000
17672.000000,42738.000000,45393.000000,25006.000000
17677.000000,42883.000000,45493.000000,25036.000000
17715.000000,42920.000000,45519.000000,25035.000000
17693.000000,42914.000000,45519.000000,25077.000000
17689.000000,42905.000000,45520.000000,25058.000000
17708.000000,42985.000000,45544.000000,25089.000000
17713.000000,42899.000000,45535.000000,25079.000000
17682.000000,42954.000000,45538.000000,25068.000000
17626.000000,42903.000000,45546.000000,25102.000000
17662.000000,42895.000000,45542.000000,25043.000000
17618.000000,42861.000000,45511.000000,25052.000000
17627.000000,42897.000000,45529.000000,25069.000000
17608.000000,42839.000000,45497.000000,25070.000000
17598.000000,42832.000000,45470.000000,25054.000000
17607.000000,42845.000000,45475.000000,25061.000000
17594.000000,42861.000000,45450.000000,25047.000000
17593.000000,42834.000000,45464.000000,25048.000000
17579.000000,42787.000000,45493.000000,25057.000000
17571.000000,42772.000000,45466.000000,25036.000000
17577.000000,42809.000000,45472.000000,25031.000000
17563.000000,42772.000000,45479.000000,25034.000000
17547.000000,42741.000000,45485.000000,25038.000000
17548.000000,42756.000000,45455.000000,25024.000000
17550.000000,42762.000000,45465.000000,25022.000000
17520.000000,42724.000000,45464.000000,25030.000000
17571.000000,42681.000000,45468.000000,25034.000000
17534.000000,42715.000000,45463.000000,25036.000000
17520.000000,42657.000000,45477.000000,25030.000000
17544.000000,42662.000000,45438.000000,25029.000000
17539.000000,42679.000000,45428.000000,25034.000000
17542.000000,42660.000000,45425.000000,25041.000000
17570.000000,42640.000000,45426.000000,25024.000000
17541.000000,42652.000000,45444.000000,25039.000000
17533.000000,42642.000000,45467.000000,25042.000000
17517.000000,42621.000000,45471.000000,25044.000000
17533.000000,42658.000000,45454.000000,25045.000000
17489.000000,42614.000000,45448.000000,25027.000000
17481.000000,42589.000000,45455.000000,25033.000000
17449.000000,42595.000000,45437.000000,25026.000000
17434.000000,42625.000000,45437.000000,24995.000000
17419.000000,42549.000000,45403.000000,25035.000000
17360.000000,42514.000000,45402.000000,24999.000000
17340.000000,42484.000000,45387.000000,24999.000000
17322.000000,42429.000000,45315.000000,24940.000000
17331.000000,42429.000000,45329.000000,24971.000000
17286.000000,42386.000000,45303.000000,24979.000000
17318.000000,42338.000000,45278.000000,25010.000000
17296.000000,42355.000000,45307.000000,24940.000000
17266.000000,42372.000000,45298.000000,24973.000000
17353.000000,42338.000000,45278.000000,24968.000000
17368.000000,42356.000000,45258.000000,24952.000000
17417.000000,42364.000000,45278.000000,24985.000000
17451.000000,42438.000000,45297.000000,24984.000000
17517.000000,42442.000000,45333.000000,24991.000000
17553.000000,42436.000000,45320.000000,24970.000000
17564.000000,42593.000000,45407.000000,25044.000000
17637.000000,42590.000000,45427.000000,25023.000000
17707.000000,42618.000000,45423.000000,25027.000000
17679.000000,42680.000000,45433.000000,25082.000000
17771.000000,42730.000000,45539.000000,25087.000000
17835.000000,42777.000000,45502.000000,25074.000000
17938.000000,42844.000000,45528.000000,25097.000000
17975.000000,42918.000000,45621.000000,25108.000000
18002.000000,42947.000000,45645.000000,25149.000000
18090.000000,43070.000000,45689.000000,25153.000000
18093.000000,43146.000000,45728.000000,25201.000000
18113.000000,43158.000000,45776.000000,25226.000000
18118.000000,43232.000000,45805.000000,25241.000000
18106.000000,43259.000000,45783.000000,25202.000000
18069.000000,43232.000000,45815.000000,25214.000000
18086.000000,43249.000000,45797.000000,25231.000000
18080.000000,43188.000000,45785.000000,25195.000000
18039.000000,43217.000000,45794.000000,25187.000000
18026.000000,43199.000000,45771.000000,25206.000000
17965.000000,43151.000000,45759.000000,25208.000000
17999.000000,43157.000000,45784.000000,25194.000000
17931.000000,43098.000000,45757.000000,25202.000000
17907.000000,43056.000000,45722.000000,25158.000000
17836.000000,43052.000000,45721.000000,25182.000000
17861.000000,43067.000000,45701.000000,25169.000000
17845.000000,42981.000000,45696.000000,25146.000000
17777.000000,42954.000000,45636.000000,25149.000000
17751.000000,42947.000000,45614.000000,25167.000000
17767.000000,42934.000000,45612.000000,25127.000000
17680.000000,42843.000000,45554.000000,25111.000000
17695.000000,42847.000000,45565.000000,25101.000000
17654.000000,42827.000000,45555.000000,25111.000000
17648.000000,42730.000000,45512.000000,25096.000000
17624.000000,42758.000000,45513.000000,25105.000000
17611.000000,42765.000000,45513.000000,25071.000000
17547.000000,42677.000000,45477.000000,25081.000000
17568.000000,42658.000000,45469.000000,25061.000000
17503.000000,42655.000000,45422.000000,25072.000000
17485.000000,42619.000000,45410.000000,25051.000000
17481.000000,42656.000000,45407.000000,25038.000000
17442.000000,42612.000000,45382.000000,25038.000000
17388.000000,42526.000000,45386.000000,25020.000000
17394.000000,42529.000000,45357.000000,25039.000000
17365.000000,42488.000000,45316.000000,25016.000000
17356.000000,42492.000000,45325.000000,25004.000000
17384.000000,42443.000000,45337.000000,25002.000000
17329.000000,42449.000000,45317.000000,24980.000000
17313.000000,42421.000000,45310.000000,24966.000000
17340.000000,42421.000000,45298.000000,24992.000000
17314.000000,42442.000000,45297.000000,24990.000000
17330.000000,42377.000000,45278.000000,24994.000000
17334.000000,42354.000000,45286.000000,24985.000000
17312.000000,42350.000000,45305.000000,24973.000000
17314.000000,42349.000000,45281.000000,24969.000000
17326.000000,42334.000000,45259.000000,24956.000000
17318.000000,42347.000000,45254.000000,24971.000000
17312.000000,42315.000000,45280.000000,24967.000000
17362.000000,42327.000000,45273.000000,24958.000000
17392.000000,42359.000000,45272.000000,24959.000000
17406.000000,42353.000000,45301.000000,24940.000000
17454.000000,42320.000000,45271.000000,24977.000000
17471.000000,42374.000000,45286.000000,24979.000000
17641.000000,42431.000000,45290.000000,24974.000000
17634.000000,42479.000000,45370.000000,25012.000000
17669.000000,42527.000000,45347.000000,25025.000000
17767.000000,42666.000000,45442.000000,25058.000000
17819.000000,42668.000000,45461.000000,25050.000000
17819.000000,42711.000000,45469.000000,25077.000000
17872.000000,42795.000000,45537.000000,25102.000000
17920.000000,42856.000000,45540.000000,25089.000000
17950.000000,42901.000000,45593.000000,25100.000000
17942.000000,42952.000000,45628.000000,25123.000000
17907.000000,43059.000000,45615.000000,25135.000000
17881.000000,43064.000000,45639.000000,25169.000000
17915.000000,43050.000000,45639.000000,25146.000000
17844.000000,43028.000000,45602.000000,25157.000000
17848.000000,43047.000000,45584.000000,25149.000000
17790.000000,42990.000000,45597.000000,25148.000000
17786.000000,42992.000000,45581.000000,25138.000000
17767.000000,42977.000000,45587.000000,25165.000000
17776.000000,42895.000000,45541.000000,25134.000000
17754.000000,42876.000000,45530.000000,25135.000000
17698.000000,42856.000000,45527.000000,25134.000000
17695.000000,42881.000000,45503.000000,25133.000000
17684.000000,42843.000000,45528.000000,25110.000000
17692.000000,42816.000000,45495.000000,25112.000000
17683.000000,42766.000000,45451.000000,25101.000000
17604.000000,42795.000000,45455.000000,25098.000000
17591.000000,42795.000000,45480.000000,25102.000000
17576.000000,42744.000000,45446.000000,25091.000000
17557.000000,42716.000000,45461.000000,25086.000000
17498.000000,42707.000000,45410.000000,25091.000000
17541.000000,42698.000000,45411.000000,25078.000000
17533.000000,42642.000000,45369.000000,25068.000000
17477.000000,42656.000000,45388.000000,25076.000000
17477.000000,42627.000000,45382.000000,25050.000000
17488.000000,42619.000000,45346.000000,25051.000000
17438.000000,42578.000000,45347.000000,25021.000000
17424.000000,42552.000000,45337.000000,25053.000000
17413.000000,42544.000000,45284.000000,25000.000000
17375.000000,42510.000000,45292.000000,25023.000000
17368.000000,42513.000000,45299.000000,24993.000000
17345.000000,42492.000000,45281.000000,25004.000000
17377.000000,42445.000000,45283.000000,24987.000000
17333.000000,42472.000000,45261.000000,24987.000000
17277.000000,42426.000000,45303.000000,24980.000000
17299.000000,42440.000000,45258.000000,24992.000000
17247.000000,42422.000000,45245.000000,24935.000000
17245.000000,42413.000000,45233.000000,24976.000000
17263.000000,42406.000000,45246.000000,24978.000000
17275.000000,42346.000000,45249.000000,24946.000000
17244.000000,42346.000000,45225.000000,24934.000000
17221.000000,42360.000000,45225.000000,24936.000000
17255.000000,42361.000000,45208.000000,24944.000000
17346.000000,42353.000000,45197.000000,24953.000000
17340.000000,42307.000000,45220.000000,24930.000000
17345.000000,42333.000000,45241.000000,24945.000000
17446.000000,42420.000000,45296.000000,24956.000000
17521.000000,42428.000000,45300.000000,24943.000000
17565.000000,42452.000000,45292.000000,24994.000000
17627.000000,42536.000000,45352.000000,24984.000000
17720.000000,42640.000000,45441.000000,24996.000000
17948.000000,42698.000000,45451.000000,25043.000000
17958.000000,42739.000000,45483.000000,25024.000000
18014.000000,42834.000000,45576.000000,25063.000000
18124.000000,43075.000000,45666.000000,25106.000000
18234.000000,43141.000000,45741.000000,25129.000000
18227.000000,43137.000000,45738.000000,25149.000000
18276.000000,43271.000000,45857.000000,25178.000000
18337.000000,43425.000000,45941.000000,25225.000000
18334.000000,43466.000000,45940.000000,25218.000000
18328.000000,43468.000000,45957.000000,25225.000000
18309.000000,43512.000000,45986.000000,25233.000000
18299.000000,43518.000000,46007.000000,25233.000000
18317.000000,43495.000000,45998.000000,25242.000000
18259.000000,43477.000000,46021.000000,25203.000000
18236.000000,43471.000000,45965.000000,25221.000000
18255.000000,43448.000000,45979.000000,25234.000000
18234.000000,43487.000000,45979.000000,25220.000000
18243.000000,43445.000000,45965.000000,25200.000000
18198.000000,43406.000000,45952.000000,25203.000000
18193.000000,43421.000000,45937.000000,25211.000000
18189.000000,43421.000000,45971.000000,25186.000000
18213.000000,43384.000000,45947.000000,25168.000000
18164.000000,43353.000000,45934.000000,25160.000000
18164.000000,43357.000000,45946.000000,25179.000000
18135.000000,43382.000000,45948.000000,25179.000000
18115.000000,43326.000000,45905.000000,25140.000000
18131.000000,43325.000000,45885.000000,25146.000000
18093.000000,43333.000000,45923.000000,25148.000000
18060.000000,43247.000000,45891.000000,25136.000000
18077.000000,43267.000000,45872.000000,25114.000000
18055.000000,43267.000000,45878.000000,25132.000000
18005.000000,43186.000000,45844.000000,25144.000000
17981.000000,43233.000000,45836.000000,25131.000000
17970.000000,43188.000000,45832.000000,25139.000000
17967.000000,43178.000000,45812.000000,25099.000000
17951.000000,43115.000000,45790.000000,25094.000000
17937.000000,43124.000000,45800.000000,25102.000000
17852.000000,43099.000000,45778.000000,25099.000000
17811.000000,43121.000000,45775.000000,25075.000000
17838.000000,43033.000000,45735.000000,25082.000000
17827.000000,42984.000000,45686.000000,25043.000000
17832.000000,42995.000000,45692.000000,25045.000000
17785.000000,42983.000000,45726.000000,25062.000000
17753.000000,42955.000000,45677.000000,25081.000000
17778.000000,42985.000000,45686.000000,25051.000000
17747.000000,42932.000000,45691.000000,25035.000000
17706.000000,42899.000000,45670.000000,25016.000000
17683.000000,42876.000000,45654.000000,25003.000000
17720.000000,42876.000000,45665.000000,25016.000000
17712.000000,42830.000000,45637.000000,25013.000000
17694.000000,42836.000000,45642.000000,24982.000000
17716.000000,42838.000000,45633.000000,25007.000000
17689.000000,42830.000000,45615.000000,24986.000000
17665.000000,42790.000000,45601.000000,25001.000000
17714.000000,42827.000000,45605.000000,24975.000000
17718.000000,42782.000000,45594.000000,24993.000000
17733.000000,42815.000000,45604.000000,25007.000000
17830.000000,42852.000000,45635.000000,24996.000000
17848.000000,42839.000000,45638.000000,24994.000000
17838.000000,42869.000000,45652.000000,24988.000000
17942.000000,42973.000000,45673.000000,25028.000000
17948.000000,42948.000000,45692.000000,25021.000000
17973.000000,42964.000000,45702.000000,25039.000000
18047.000000,43091.000000,45753.000000,25044.000000
18089.000000,43136.000000,45779.000000,25057.000000
18121.000000,43139.000000,45809.000000,25065.000000
18245.000000,43276.000000,45883.000000,25074.000000
18204.000000,43309.000000,45881.000000,25099.000000
18238.000000,43330.000000,45884.000000,25125.000000
18262.000000,43468.000000,45962.000000,25130.000000
18300.000000,43503.000000,46001.000000,25159.000000
18319.000000,43463.000000,45982.000000,25154.000000
18307.000000,43509.000000,46018.000000,25180.000000
18253.000000,43540.000000,46010.000000,25170.000000
18295.000000,43563.000000,45992.000000,25170.000000
18267.000000,43550.000000,46051.000000,25154.000000
18274.000000,43562.000000,46036.000000,25175.000000
18279.000000,43522.000000,46009.000000,25181.000000
18275.000000,43558.000000,46014.000000,25163.000000
18275.000000,43503.000000,46007.000000,25169.000000
18223.000000,43506.000000,46008.000000,25153.000000
18247.000000,43469.000000,46023.000000,25172.000000
18231.000000,43483.000000,46002.000000,25145.000000
18208.000000,43468.000000,45996.000000,25163.000000
18164.000000,43467.000000,46022.000000,25168.000000
18169.000000,43440.000000,45991.000000,25137.000000
18173.000000,43414.000000,45983.000000,25125.000000
18134.000000,43360.000000,45955.000000,25117.000000
18099.000000,43362.000000,45942.000000,25145.000000
18095.000000,43410.000000,45919.000000,25110.000000
18092.000000,43354.000000,45941.000000,25113.000000
18048.000000,43295.000000,45912.000000,25111.000000
18052.000000,43278.000000,45916.000000,25103.000000
18025.000000,43287.000000,45896.000000,25095.000000
17978.000000,43209.000000,45859.000000,25073.000000
17981.000000,43223.000000,45866.000000,25075.000000
17963.000000,43240.000000,45876.000000,25075.000000
17919.000000,43190.000000,45825.000000,25031.000000
17957.000000,43149.000000,45825.000000,25047.000000
17947.000000,43111.000000,45822.000000,25050.000000
17918.000000,43137.000000,45787.000000,25027.000000
17874.000000,43107.000000,45803.000000,25042.000000
17868.000000,43109.000000,45798.000000,25027.000000
17817.000000,43056.000000,45763.000000,25045.000000
17813.000000,43052.000000,45759.000000,25007.000000
17806.000000,43043.000000,45742.000000,25033.000000
17768.000000,42959.000000,45711.000000,24995.000000
17747.000000,42970.000000,45726.000000,25020.000000
17708.000000,42971.000000,45720.000000,24999.000000
17677.000000,42918.000000,45693.000000,24972.000000
17689.000000,42919.000000,45668.000000,24988.000000
17619.000000,42862.000000,45623.000000,24974.000000
17622.000000,42823.000000,45624.000000,24950.000000
17599.000000,42785.000000,45609.000000,24928.000000
17578.000000,42727.000000,45561.000000,24942.000000
17626.000000,42701.000000,45562.000000,24935.000000
17616.000000,42746.000000,45537.000000,24917.000000
17599.000000,42732.000000,45543.000000,24927.000000
17630.000000,42720.000000,45541.000000,24932.000000
17637.000000,42714.000000,45542.000000,24967.000000
17682.000000,42702.000000,45533.000000,24920.000000
17727.000000,42771.000000,45555.000000,24972.000000
17737.000000,42776.000000,45561.000000,24975.000000
17743.000000,42764.000000,45569.000000,24960.000000
17810.000000,42845.000000,45594.000000,24984.000000
17892.000000,42874.000000,45600.000000,24997.000000
17977.000000,42904.000000,45632.000000,24983.000000
17934.000000,42966.000000,45657.000000,25012.000000
18007.000000,43078.000000,45708.000000,25022.000000
18048.000000,43130.000000,45720.000000,25064.000000
18024.000000,43134.000000,45734.000000,25067.000000
18031.000000,43219.000000,45789.000000,25109.000000
18054.000000,43231.000000,45782.000000,25122.000000
18031.000000,43238.000000,45786.000000,25127.000000
17990.000000,43214.000000,45791.000000,25142.000000
18027.000000,43215.000000,45783.000000,25161.000000
17981.000000,43237.000000,45793.000000,25137.000000
17998.000000,43230.000000,45758.000000,25107.000000
18004.000000,43223.000000,45760.000000,25158.000000
17961.000000,43168.000000,45776.000000,25133.000000
17949.000000,43147.000000,45744.000000,25128.000000
17889.000000,43159.000000,45768.000000,25128.000000
17901.000000,43146.000000,45758.000000,25123.000000
17883.000000,43080.000000,45709.000000,25111.000000
17891.000000,43076.000000,45725.000000,25108.000000
17875.000000,43056.000000,45697.000000,25120.000000
17882.000000,43065.000000,45683.000000,25080.000000
17874.000000,43035.000000,45707.000000,25105.000000
17876.000000,43011.000000,45693.000000,25095.000000
17851.000000,43032.000000,45684.000000,25053.000000
17870.000000,43012.000000,45707.000000,25064.000000
17816.000000,43001.000000,45677.000000,25073.000000
17812.000000,42952.000000,45651.000000,25042.000000
17792.000000,43004.000000,45654.000000,25037.000000
17779.000000,42941.000000,45649.000000,25075.000000
17787.000000,42916.000000,45616.000000,25027.000000
17736.000000,42920.000000,45634.000000,25060.000000
17739.000000,42906.000000,45625.000000,25035.000000
17724.000000,42868.000000,45592.000000,25027.000000
17740.000000,42851.000000,45599.000000,25023.000000
17739.000000,42857.000000,45586.000000,25034.000000
17736.000000,42823.000000,45570.000000,25021.000000
17742.000000,42780.000000,45577.000000,25015.000000
17705.000000,42839.000000,45584.000000,25041.000000
17729.000000,42808.000000,45618.000000,25024.000000
17699.000000,42823.000000,45605.000000,25024.000000
17680.000000,42784.000000,45597.000000,25019.000000
17624.000000,42768.000000,45576.000000,25016.000000
17624.000000,42797.000000,45549.000000,24976.000000
17581.000000,42746.000000,45583.000000,24970.000000
17622.000000,42685.000000,45518.000000,24970.000000
17587.000000,42700.000000,45547.000000,24973.000000
17573.000000,42690.000000,45522.000000,25005.000000
17547.000000,42664.000000,45539.000000,24985.000000
17554.000000,42657.000000,45481.000000,24973.000000
17522.000000,42642.000000,45492.000000,24971.000000
17581.000000,42613.000000,45491.000000,24950.000000
17537.000000,42617.000000,45464.000000,24941.000000
17605.000000,42612.000000,45502.000000,24955.000000
17626.000000,42610.000000,45496.000000,24918.000000
17640.000000,42663.000000,45487.000000,24919.000000
17683.000000,42671.000000,45503.000000,24920.000000
17685.000000,42668.000000,45516.000000,24946.000000
17695.000000,42660.000000,45521.000000,24939.000000
17774.000000,42753.000000,45561.000000,24952.000000
17760.000000,42771.000000,45541.000000,24958.000000
17811.000000,42761.000000,45566.000000,24977.000000
17914.000000,42854.000000,45589.000000,24976.000000
17998.000000,42899.000000,45635.000000,24972.000000
18094.000000,42992.000000,45678.000000,25017.000000
18119.000000,43011.000000,45710.000000,25032.000000
18159.000000,43115.000000,45776.000000,25085.000000
18136.000000,43228.000000,45823.000000,25091.000000
18203.000000,43291.000000,45856.000000,25092.000000
18150.000000,43342.000000,45903.000000,25128.000000
18121.000000,43389.000000,45907.000000,25158.000000
18115.000000,43369.000000,45905.000000,25140.000000
18074.000000,43334.000000,45882.000000,25134.000000
18046.000000,43317.000000,45878.000000,25148.000000
18063.000000,43283.000000,45845.000000,25160.000000
18059.000000,43248.000000,45820.000000,25135.000000
17994.000000,43211.000000,45824.000000,25132.000000
18014.000000,43213.000000,45777.000000,25105.000000
18001.000000,43213.000000,45817.000000,25109.000000
17977.000000,43154.000000,45782.000000,25095.000000
17966.000000,43113.000000,45762.000000,25105.000000
17947.000000,43090.000000,45761.000000,25108.000000
17953.000000,43091.000000,45753.000000,25105.000000
17921.000000,43104.000000,45743.000000,25093.000000
17888.000000,43064.000000,45749.000000,25087.000000
17928.000000,43061.000000,45727.000000,25083.000000
17903.000000,43081.000000,45721.000000,25095.000000
17925.000000,43040.000000,45722.000000,25092.000000
17853.000000,43010.000000,45728.000000,25056.000000
17883.000000,42996.000000,45695.000000,25064.000000
17884.000000,43015.000000,45701.000000,25086.000000
17891.000000,42985.000000,45680.000000,25058.000000
17867.000000,42974.000000,45704.000000,25064.000000
17820.000000,42950.000000,45669.000000,25056.000000
17804.000000,42952.000000,45661.000000,25037.000000
17820.000000,42926.000000,45630.000000,25061.000000
17796.000000,42913.000000,45663.000000,25049.000000
17804.000000,42898.000000,45618.000000,25062.000000
17742.000000,42898.000000,45643.000000,25045.000000
17761.000000,42848.000000,45632.000000,25030.000000
17734.000000,42818.000000,45644.000000,25040.000000
17722.000000,42828.000000,45602.000000,24997.000000
17742.000000,42811.000000,45584.000000,24990.000000
17677.000000,42784.000000,45582.000000,25020.000000
17672.000000,42753.000000,45597.000000,25011.000000
17678.000000,42785.000000,45595.000000,24991.000000
17683.000000,42749.000000,45541.000000,24969.000000
17666.000000,42702.000000,45550.000000,24989.000000
17653.000000,42654.000000,45537.000000,24972.000000
17686.000000,42712.000000,45535.000000,24987.000000
17689.000000,42702.000000,45546.000000,24993.000000
17714.000000,42680.000000,45524.000000,24995.000000
17735.000000,42733.000000,45539.000000,24977.000000
17751.000000,42708.000000,45573.000000,24972.000000
17757.000000,42694.000000,45576.000000,24986.000000
17890.000000,42790.000000,45585.000000,24964.000000
17923.000000,42814.000000,45653.000000,24961.000000
17930.000000,42840.000000,45621.000000,24999.000000
18041.000000,42969.000000,45710.000000,25005.000000
18061.000000,42985.000000,45685.000000,25036.000000
18121.000000,43051.000000,45734.000000,25026.000000
18142.000000,43183.000000,45782.000000,25071.000000
18196.000000,43176.000000,45830.000000,25088.000000
18178.000000,43213.000000,45837.000000,25083.000000
18219.000000,43327.000000,45905.000000,25101.000000
18263.000000,43340.000000,45933.000000,25122.000000
18271.000000,43379.000000,45907.000000,25102.000000
18269.000000,43406.000000,45963.000000,25147.000000
18245.000000,43411.000000,45970.000000,25127.000000
18198.000000,43420.000000,45973.000000,25157.000000
18165.000000,43454.000000,45962.000000,25129.000000
18148.000000,43417.000000,45923.000000,25121.000000
18112.000000,43396.000000,45945.000000,25132.000000
18083.000000,43389.000000,45897.000000,25108.000000
18022.000000,43344.000000,45871.000000,25106.000000
18032.000000,43313.000000,45863.000000,25079.000000
18037.000000,43277.000000,45851.000000,25043.000000
17992.000000,43198.000000,45844.000000,25089.000000
18002.000000,43207.000000,45822.000000,25039.000000
17933.000000,43179.000000,45815.000000,25025.000000
17938.000000,43175.000000,45814.000000,25036.000000
17911.000000,43180.000000,45822.000000,25047.000000
17894.000000,43081.000000,45776.000000,25043.000000
17892.000000,43115.000000,45772.000000,25051.000000
17871.000000,43093.000000,45729.000000,25017.000000
17829.000000,43044.000000,45739.000000,25024.000000
17849.000000,43039.000000,45734.000000,25027.000000
17832.000000,42987.000000,45709.000000,25004.000000
17787.000000,42984.000000,45719.000000,25015.000000
17769.000000,42957.000000,45695.000000,25028.000000
17795.000000,42970.000000,45698.000000,25004.000000
17767.000000,42910.000000,45609.000000,24996.000000
17740.000000,42912.000000,45679.000000,24983.000000
17737.000000,42873.000000,45677.000000,24999.000000
17721.000000,42886.000000,45651.000000,25001.000000
17698.000000,42825.000000,45640.000000,24948.000000
17692.000000,42784.000000,45589.000000,24984.000000
17659.000000,42861.000000,45619.000000,24958.000000
17675.000000,42819.000000,45616.000000,24965.000000
17693.000000,42759.000000,45575.000000,24968.000000
17638.000000,42750.000000,45570.000000,24965.000000
17651.000000,42718.000000,45568.000000,24979.000000
17661.000000,42757.000000,45562.000000,24966.000000
17623.000000,42704.000000,45513.000000,24954.000000
17610.000000,42655.000000,45532.000000,24953.000000
17640.000000,42676.000000,45512.000000,24936.000000
17598.000000,42704.000000,45526.000000,24971.000000
17597.000000,42643.000000,45505.000000,24958.000000
17642.000000,42623.000000,45505.000000,24955.000000
17679.000000,42641.000000,45520.000000,24941.000000
17694.000000,42661.000000,45497.000000,24937.000000
17685.000000,42671.000000,45509.000000,24940.000000
17718.000000,42756.000000,45526.000000,24966.000000
17888.000000,42722.000000,45549.000000,24960.000000
17913.000000,42758.000000,45570.000000,24989.000000
17927.000000,42785.000000,45610.000000,24988.000000
17933.000000,42962.000000,45668.000000,25029.000000
18068.000000,42981.000000,45692.000000,25037.000000
18067.000000,43005.000000,45711.000000,25035.000000
