660nm,730nm,850nm,940nm
26598.000000,43095.000000,22282.000000,29668.000000
26590.000000,43087.000000,22254.000000,29638.000000
26597.000000,43101.000000,22251.000000,29655.000000
26603.000000,43118.000000,22244.000000,29666.000000
26612.000000,43126.000000,22221.000000,29645.000000
26639.000000,43145.000000,22210.000000,29631.000000
26670.000000,43177.000000,22219.000000,29637.000000
26677.000000,43195.000000,22216.000000,29625.000000
26664.000000,43187.000000,22184.000000,29587.000000
26653.000000,43179.000000,22152.000000,29563.000000
26641.000000,43175.000000,22129.000000,29562.000000
26608.000000,43147.000000,22088.000000,29535.000000
26560.000000,43091.000000,22024.000000,29472.000000
26512.000000,43036.000000,21966.000000,29409.000000
26455.000000,42987.000000,21914.000000,29353.000000
26373.000000,42921.000000,21837.000000,29272.000000
26284.000000,42839.000000,21739.000000,29179.000000
26208.000000,42770.000000,21651.000000,29119.000000
26143.000000,42715.000000,21572.000000,29082.000000
26075.000000,42651.000000,21480.000000,29013.000000
26014.000000,42587.000000,21383.000000,28916.000000
25971.000000,42551.000000,21307.000000,28840.000000
25931.000000,42532.000000,21237.000000,28781.000000
25875.000000,42494.000000,21138.000000,28701.000000
25822.000000,42446.000000,21024.000000,28620.000000
25788.000000,42422.000000,20937.000000,28574.000000
25760.000000,42412.000000,20866.000000,28527.000000
25723.000000,42387.000000,20782.000000,28431.000000
25693.000000,42358.000000,20698.000000,28315.000000
25679.000000,42348.000000,20635.000000,28230.000000
25651.000000,42335.000000,20570.000000,28166.000000
25596.000000,42289.000000,20475.000000,28082.000000
25539.000000,42234.000000,20376.000000,27995.000000
25495.000000,42198.000000,20299.000000,27942.000000
25445.000000,42166.000000,20225.000000,27881.000000
25380.000000,42113.000000,20131.000000,27775.000000
25311.000000,42053.000000,20036.000000,27676.000000
25249.000000,42010.000000,19962.000000,27618.000000
25183.000000,41969.000000,19890.000000,27563.000000
25114.000000,41914.000000,19794.000000,27481.000000
25064.000000,41868.000000,19703.000000,27397.000000
25032.000000,41849.000000,19639.000000,27329.000000
24991.000000,41828.000000,19571.000000,27245.000000
24939.000000,41789.000000,19478.000000,27134.000000
24901.000000,41763.000000,19391.000000,27045.000000
24871.000000,41759.000000,19326.000000,27004.000000
24832.000000,41748.000000,19255.000000,26958.000000
24793.000000,41719.000000,19169.000000,26882.000000
24766.000000,41699.000000,19092.000000,26814.000000
24739.000000,41688.000000,19034.000000,26763.000000
24694.000000,41653.000000,18964.000000,26691.000000
24637.000000,41588.000000,18869.000000,26604.000000
24590.000000,41529.000000,18786.000000,26546.000000
24550.000000,41484.000000,18727.000000,26520.000000
24500.000000,41432.000000,18669.000000,26487.000000
24459.000000,41378.000000,18617.000000,26447.000000
24450.000000,41358.000000,18610.000000,26444.000000
24467.000000,41375.000000,18650.000000,26482.000000
24499.000000,41403.000000,18707.000000,26528.000000
24561.000000,41445.000000,18792.000000,26600.000000
24669.000000,41531.000000,18944.000000,26740.000000
24810.000000,41659.000000,19158.000000,26933.000000
24974.000000,41800.000000,19400.000000,27130.000000
25174.000000,41959.000000,19676.000000,27336.000000
25415.000000,42154.000000,20011.000000,27600.000000
25676.000000,42371.000000,20385.000000,27918.000000
25938.000000,42581.000000,20763.000000,28245.000000
26212.000000,42793.000000,21153.000000,28593.000000
26508.000000,43031.000000,21576.000000,28987.000000
26805.000000,43277.000000,22012.000000,29379.000000
27085.000000,43502.000000,22422.000000,29722.000000
27356.000000,43713.000000,22812.000000,30047.000000
27627.000000,43932.000000,23204.000000,30391.000000
27879.000000,44142.000000,23572.000000,30727.000000
28103.000000,44321.000000,23887.000000,31018.000000
28315.000000,44488.000000,24173.000000,31280.000000
28522.000000,44667.000000,24458.000000,31535.000000
28701.000000,44834.000000,24709.000000,31752.000000
28850.000000,44968.000000,24903.000000,31901.000000
28991.000000,45088.000000,25070.000000,32028.000000
29123.000000,45213.000000,25232.000000,32166.000000
29234.000000,45324.000000,25363.000000,32272.000000
29327.000000,45404.000000,25451.000000,32323.000000
29418.000000,45473.000000,25529.000000,32363.000000
29503.000000,45545.000000,25614.000000,32410.000000
29554.000000,45592.000000,25674.000000,32432.000000
29574.000000,45601.000000,25692.000000,32424.000000
29595.000000,45605.000000,25703.000000,32437.000000
29617.000000,45617.000000,25722.000000,32482.000000
29619.000000,45612.000000,25721.000000,32508.000000
29609.000000,45586.000000,25695.000000,32502.000000
29605.000000,45571.000000,25684.000000,32505.000000
29602.000000,45573.000000,25695.000000,32523.000000
29582.000000,45564.000000,25691.000000,32514.000000
29554.000000,45539.000000,25664.000000,32472.000000
29536.000000,45524.000000,25645.000000,32449.000000
29518.000000,45522.000000,25635.000000,32450.000000
29479.000000,45498.000000,25598.000000,32431.000000
29432.000000,45454.000000,25538.000000,32399.000000
29397.000000,45422.000000,25490.000000,32383.000000
29360.000000,45401.000000,25448.000000,32360.000000
29303.000000,45358.000000,25377.000000,32285.000000
29238.000000,45299.000000,25284.000000,32176.000000
29177.000000,45250.000000,25198.000000,32091.000000
29100.000000,45197.000000,25101.000000,32015.000000
28999.000000,45113.000000,24969.000000,31900.000000
28901.000000,45019.000000,24828.000000,31770.000000
28830.000000,44951.000000,24716.000000,31668.000000
28767.000000,44895.000000,24617.000000,31569.000000
28690.000000,44820.000000,24503.000000,31440.000000
28612.000000,44740.000000,24381.000000,31320.000000
28549.000000,44682.000000,24282.000000,31249.000000
28487.000000,44635.000000,24194.000000,31202.000000
28419.000000,44574.000000,24091.000000,31142.000000
28371.000000,44518.000000,23995.000000,31085.000000
28349.000000,44492.000000,23932.000000,31059.000000
28326.000000,44473.000000,23879.000000,31024.000000
28295.000000,44441.000000,23817.000000,30947.000000
28272.000000,44415.000000,23769.000000,30882.000000
28264.000000,44415.000000,23752.000000,30864.000000
28255.000000,44420.000000,23738.000000,30849.000000
28244.000000,44411.000000,23709.000000,30815.000000
28246.000000,44408.000000,23692.000000,30792.000000
28260.000000,44427.000000,23701.000000,30786.000000
28256.000000,44435.000000,23701.000000,30762.000000
28232.000000,44416.000000,23676.000000,30715.000000
28215.000000,44401.000000,23655.000000,30686.000000
28201.000000,44399.000000,23646.000000,30689.000000
28172.000000,44381.000000,23620.000000,30678.000000
28135.000000,44339.000000,23567.000000,30640.000000
28103.000000,44297.000000,23520.000000,30613.000000
28064.000000,44262.000000,23487.000000,30600.000000
28002.000000,44208.000000,23435.000000,30560.000000
27927.000000,44132.000000,23355.000000,30492.000000
27866.000000,44070.000000,23280.000000,30448.000000
27816.000000,44031.000000,23218.000000,30428.000000
27762.000000,43986.000000,23143.000000,30383.000000
27712.000000,43937.000000,23059.000000,30308.000000
27681.000000,43910.000000,22998.000000,30240.000000
27656.000000,43904.000000,22953.000000,30174.000000
27623.000000,43888.000000,22889.000000,30081.000000
27587.000000,43863.000000,22810.000000,29983.000000
27564.000000,43854.000000,22750.000000,29922.000000
27542.000000,43852.000000,22695.000000,29882.000000
27507.000000,43831.000000,22620.000000,29816.000000
27476.000000,43807.000000,22544.000000,29735.000000
27463.000000,43810.000000,22501.000000,29677.000000
27449.000000,43823.000000,22464.000000,29614.000000
27418.000000,43813.000000,22397.000000,29512.000000
27382.000000,43793.000000,22315.000000,29414.000000
27357.000000,43790.000000,22250.000000,29366.000000
27328.000000,43786.000000,22186.000000,29336.000000
27286.000000,43751.000000,22094.000000,29280.000000
27251.000000,43709.000000,21999.000000,29212.000000
27233.000000,43688.000000,21934.000000,29165.000000
27209.000000,43673.000000,21877.000000,29109.000000
27170.000000,43637.000000,21798.000000,29010.000000
27131.000000,43598.000000,21719.000000,28912.000000
27098.000000,43579.000000,21663.000000,28852.000000
27057.000000,43562.000000,21605.000000,28791.000000
27005.000000,43526.000000,21520.000000,28708.000000
26965.000000,43493.000000,21443.000000,28627.000000
26937.000000,43479.000000,21391.000000,28562.000000
26890.000000,43454.000000,21328.000000,28478.000000
26829.000000,43400.000000,21237.000000,28367.000000
26775.000000,43344.000000,21149.000000,28280.000000
26722.000000,43297.000000,21076.000000,28230.000000
26655.000000,43240.000000,20994.000000,28168.000000
26587.000000,43167.000000,20894.000000,28078.000000
26538.000000,43111.000000,20812.000000,28009.000000
26504.000000,43085.000000,20766.000000,27975.000000
26470.000000,43062.000000,20733.000000,27934.000000
26446.000000,43038.000000,20706.000000,27889.000000
26460.000000,43045.000000,20723.000000,27897.000000
26507.000000,43093.000000,20796.000000,27972.000000
26574.000000,43155.000000,20897.000000,28080.000000
26671.000000,43229.000000,21027.000000,28216.000000
26817.000000,43348.000000,21223.000000,28409.000000
27003.000000,43508.000000,21487.000000,28650.000000
27212.000000,43677.000000,21787.000000,28896.000000
27450.000000,43859.000000,22126.000000,29163.000000
27723.000000,44075.000000,22525.000000,29503.000000
28013.000000,44312.000000,22964.000000,29907.000000
28303.000000,44540.000000,23403.000000,30319.000000
28603.000000,44773.000000,23849.000000,30734.000000
28921.000000,45034.000000,24328.000000,31177.000000
29238.000000,45304.000000,24817.000000,31609.000000
29531.000000,45543.000000,25271.000000,31983.000000
29806.000000,45755.000000,25691.000000,32329.000000
30069.000000,45964.000000,26099.000000,32691.000000
30301.000000,46155.000000,26469.000000,33042.000000
30495.000000,46304.000000,26770.000000,33334.000000
30674.000000,46432.000000,27025.000000,33583.000000
30850.000000,46569.000000,27266.000000,33833.000000
31006.000000,46701.000000,27481.000000,34057.000000
31132.000000,46804.000000,27652.000000,34220.000000
31243.000000,46895.000000,27801.000000,34355.000000
31344.000000,46994.000000,27952.000000,34488.000000
31421.000000,47076.000000,28077.000000,34590.000000
31471.000000,47120.000000,28155.000000,34648.000000
31520.000000,47157.000000,28224.000000,34710.000000
31573.000000,47205.000000,28303.000000,34802.000000
31610.000000,47238.000000,28366.000000,34873.000000
31632.000000,47247.000000,28399.000000,34898.000000
31655.000000,47256.000000,28436.000000,34920.000000
31672.000000,47271.000000,28484.000000,34962.000000
31662.000000,47266.000000,28503.000000,34989.000000
31633.000000,47229.000000,28483.000000,34989.000000
31614.000000,47197.000000,28463.000000,35004.000000
31603.000000,47186.000000,28458.000000,35040.000000
31582.000000,47168.000000,28443.000000,35048.000000
31557.000000,47134.000000,28410.000000,35014.000000
31542.000000,47110.000000,28385.000000,34976.000000
31528.000000,47101.000000,28372.000000,34947.000000
31495.000000,47079.000000,28336.000000,34893.000000
31452.000000,47041.000000,28275.000000,34818.000000
31418.000000,47016.000000,28223.000000,34766.000000
31392.000000,47005.000000,28179.000000,34728.000000
31355.000000,46978.000000,28111.000000,34656.000000
31309.000000,46933.000000,28024.000000,34553.000000
31260.000000,46894.000000,27947.000000,34473.000000
31198.000000,46852.000000,27872.000000,34417.000000
31115.000000,46779.000000,27765.000000,34349.000000
31024.000000,46686.000000,27634.000000,34282.000000
30945.000000,46610.000000,27513.000000,34244.000000
30866.000000,46546.000000,27401.000000,34196.000000
30771.000000,46461.000000,27271.000000,34096.000000
30671.000000,46367.000000,27137.000000,33972.000000
30584.000000,46298.000000,27031.000000,33875.000000
30497.000000,46242.000000,26934.000000,33792.000000
30408.000000,46170.000000,26816.000000,33685.000000
30339.000000,46105.000000,26704.000000,33575.000000
30304.000000,46075.000000,26629.000000,33498.000000
30279.000000,46064.000000,26573.000000,33417.000000
30248.000000,46042.000000,26506.000000,33303.000000
30222.000000,46022.000000,26447.000000,33206.000000
30204.000000,46021.000000,26416.000000,33155.000000
30184.000000,46018.000000,26388.000000,33122.000000
30161.000000,45991.000000,26338.000000,33087.000000
30147.000000,45966.000000,26292.000000,33066.000000
30141.000000,45957.000000,26268.000000,33068.000000
30122.000000,45939.000000,26239.000000,33052.000000
30094.000000,45898.000000,26188.000000,33004.000000
30071.000000,45860.000000,26141.000000,32975.000000
30052.000000,45837.000000,26110.000000,32983.000000
30019.000000,45812.000000,26067.000000,32978.000000
29980.000000,45774.000000,26001.000000,32937.000000
29953.000000,45750.000000,25949.000000,32902.000000
29935.000000,45751.000000,25923.000000,32883.000000
29907.000000,45746.000000,25888.000000,32836.000000
29873.000000,45724.000000,25832.000000,32754.000000
29848.000000,45710.000000,25785.000000,32681.000000
29824.000000,45709.000000,25748.000000,32621.000000
29780.000000,45691.000000,25688.000000,32541.000000
29730.000000,45648.000000,25605.000000,32445.000000
29690.000000,45612.000000,25531.000000,32369.000000
29647.000000,45585.000000,25466.000000,32306.000000
29583.000000,45538.000000,25380.000000,32214.000000
29510.000000,45470.000000,25271.000000,32095.000000
29439.000000,45404.000000,25166.000000,31999.000000
29354.000000,45334.000000,25058.000000,31918.000000
29244.000000,45235.000000,24919.000000,31816.000000
29128.000000,45118.000000,24763.000000,31714.000000
29029.000000,45021.000000,24631.000000,31648.000000
28933.000000,44941.000000,24512.000000,31595.000000
28828.000000,44851.000000,24370.000000,31503.000000
28731.000000,44763.000000,24226.000000,31385.000000
28655.000000,44705.000000,24117.000000,31289.000000
28580.000000,44662.000000,24024.000000,31205.000000
28494.000000,44604.000000,23916.000000,31097.000000
28417.000000,44539.000000,23805.000000,30992.000000
28359.000000,44496.000000,23720.000000,30926.000000
28302.000000,44460.000000,23638.000000,30872.000000
28236.000000,44404.000000,23531.000000,30789.000000
28176.000000,44347.000000,23421.000000,30695.000000
28132.000000,44311.000000,23333.000000,30618.000000
28076.000000,44273.000000,23245.000000,30530.000000
28002.000000,44211.000000,23136.000000,30403.000000
27926.000000,44142.000000,23027.000000,30283.000000
27852.000000,44085.000000,22935.000000,30203.000000
27769.000000,44018.000000,22832.000000,30120.000000
27683.000000,43931.000000,22704.000000,30008.000000
27611.000000,43854.000000,22587.000000,29909.000000
27550.000000,43806.000000,22499.000000,29843.000000
27477.000000,43756.000000,22406.000000,29766.000000
27397.000000,43689.000000,22295.000000,29658.000000
27337.000000,43639.000000,22204.000000,29575.000000
27296.000000,43622.000000,22148.000000,29542.000000
27256.000000,43609.000000,22097.000000,29510.000000
27231.000000,43592.000000,22053.000000,29476.000000
27249.000000,43605.000000,22065.000000,29490.000000
27306.000000,43657.000000,22144.000000,29560.000000
27379.000000,43720.000000,22255.000000,29642.000000
27474.000000,43790.000000,22395.000000,29732.000000
27609.000000,43894.000000,22597.000000,29886.000000
27778.000000,44031.000000,22859.000000,30114.000000
27961.000000,44172.000000,23146.000000,30371.000000
28170.000000,44322.000000,23460.000000,30654.000000
28419.000000,44514.000000,23832.000000,31002.000000
28693.000000,44738.000000,24249.000000,31397.000000
28963.000000,44956.000000,24668.000000,31769.000000
29233.000000,45168.000000,25089.000000,32122.000000
29512.000000,45395.000000,25533.000000,32504.000000
29779.000000,45624.000000,25978.000000,32904.000000
30020.000000,45828.000000,26389.000000,33268.000000
30251.000000,46015.000000,26773.000000,33611.000000
30493.000000,46214.000000,27155.000000,33968.000000
30729.000000,46415.000000,27517.000000,34304.000000
30939.000000,46586.000000,27824.000000,34572.000000
31132.000000,46739.000000,28092.000000,34800.000000
31319.000000,46895.000000,28348.000000,35029.000000
31475.000000,47035.000000,28569.000000,35243.000000
31588.000000,47132.000000,28730.000000,35410.000000
31688.000000,47214.000000,28864.000000,35554.000000
31788.000000,47306.000000,29000.000000,35710.000000
31870.000000,47389.000000,29116.000000,35840.000000
31928.000000,47440.000000,29193.000000,35911.000000
31974.000000,47478.000000,29256.000000,35976.000000
32015.000000,47523.000000,29330.000000,36060.000000
32043.000000,47558.000000,29389.000000,36123.000000
32060.000000,47566.000000,29413.000000,36155.000000
32086.000000,47581.000000,29438.000000,36188.000000
32121.000000,47622.000000,29487.000000,36231.000000
32144.000000,47657.000000,29525.000000,36246.000000
32156.000000,47666.000000,29533.000000,36223.000000
32178.000000,47675.000000,29543.000000,36213.000000
32200.000000,47693.000000,29571.000000,36237.000000
32204.000000,47697.000000,29586.000000,36250.000000
32203.000000,47683.000000,29582.000000,36237.000000
32212.000000,47680.000000,29589.000000,36238.000000
32221.000000,47693.000000,29608.000000,36255.000000
32208.000000,47690.000000,29605.000000,36241.000000
32178.000000,47662.000000,29568.000000,36192.000000
32151.000000,47636.000000,29528.000000,36159.000000
32120.000000,47617.000000,29492.000000,36141.000000
32069.000000,47578.000000,29428.000000,36097.000000
32009.000000,47523.000000,29337.000000,36024.000000
31958.000000,47484.000000,29258.000000,35959.000000
31903.000000,47453.000000,29188.000000,35892.000000
31826.000000,47396.000000,29090.000000,35785.000000
31736.000000,47322.000000,28968.000000,35664.000000
31652.000000,47258.000000,28856.000000,35581.000000
31565.000000,47200.000000,28746.000000,35521.000000
31469.000000,47120.000000,28609.000000,35430.000000
31381.000000,47033.000000,28466.000000,35313.000000
31311.000000,46967.000000,28349.000000,35210.000000
31241.000000,46908.000000,28241.000000,35105.000000
31155.000000,46831.000000,28111.000000,34967.000000
31067.000000,46747.000000,27974.000000,34833.000000
30991.000000,46685.000000,27863.000000,34748.000000
30924.000000,46638.000000,27768.000000,34685.000000
30857.000000,46581.000000,27662.000000,34602.000000
30803.000000,46527.000000,27563.000000,34514.000000
30766.000000,46499.000000,27499.000000,34454.000000
30725.000000,46476.000000,27448.000000,34396.000000
30674.000000,46432.000000,27379.000000,34307.000000
30623.000000,46383.000000,27309.000000,34229.000000
30573.000000,46348.000000,27257.000000,34186.000000
30510.000000,46302.000000,27194.000000,34145.000000
30434.000000,46223.000000,27098.000000,34084.000000
30358.000000,46143.000000,27009.000000,34022.000000
30279.000000,46080.000000,26946.000000,33971.000000
30182.000000,46002.000000,26877.000000,33895.000000
30081.000000,45901.000000,26784.000000,33787.000000
30000.000000,45817.000000,26695.000000,33704.000000
29934.000000,45764.000000,26626.000000,33667.000000
29864.000000,45712.000000,26547.000000,33631.000000
29800.000000,45655.000000,26449.000000,33583.000000
29767.000000,45622.000000,26367.000000,33547.000000
29756.000000,45620.000000,26311.000000,33522.000000
29737.000000,45614.000000,26244.000000,33465.000000
29713.000000,45592.000000,26157.000000,33372.000000
29695.000000,45580.000000,26083.000000,33290.000000
29674.000000,45583.000000,26026.000000,33222.000000
29634.000000,45563.000000,25949.000000,33126.000000
29579.000000,45515.000000,25844.000000,33010.000000
29523.000000,45471.000000,25745.000000,32929.000000
29465.000000,45435.000000,25654.000000,32875.000000
29387.000000,45373.000000,25541.000000,32790.000000
29294.000000,45288.000000,25413.000000,32674.000000
29204.000000,45215.000000,25308.000000,32578.000000
29112.000000,45149.000000,25212.000000,32497.000000
29004.000000,45061.000000,25089.000000,32390.000000
28898.000000,44961.000000,24949.000000,32276.000000
28814.000000,44886.000000,24832.000000,32197.000000
28742.000000,44832.000000,24727.000000,32135.000000
28668.000000,44772.000000,24606.000000,32038.000000
28613.000000,44721.000000,24489.000000,31917.000000
28584.000000,44700.000000,24408.000000,31821.000000
28557.000000,44688.000000,24342.000000,31741.000000
28516.000000,44654.000000,24253.000000,31634.000000
28470.000000,44611.000000,24152.000000,31528.000000
28428.000000,44584.000000,24068.000000,31462.000000
28384.000000,44563.000000,23990.000000,31409.000000
28330.000000,44523.000000,23892.000000,31335.000000
28282.000000,44480.000000,23797.000000,31258.000000
28240.000000,44457.000000,23729.000000,31194.000000
28183.000000,44428.000000,23660.000000,31115.000000
28105.000000,44368.000000,23565.000000,31002.000000
28030.000000,44304.000000,23471.000000,30901.000000
27962.000000,44254.000000,23392.000000,30836.000000
27884.000000,44196.000000,23295.000000,30763.000000
27803.000000,44120.000000,23170.000000,30666.000000
27739.000000,44057.000000,23054.000000,30577.000000
27687.000000,44021.000000,22962.000000,30507.000000
27623.000000,43979.000000,22860.000000,30418.000000
27550.000000,43914.000000,22737.000000,30302.000000
27492.000000,43858.000000,22630.000000,30209.000000
27447.000000,43824.000000,22551.000000,30159.000000
27395.000000,43786.000000,22470.000000,30100.000000
27344.000000,43740.000000,22383.000000,30020.000000
27318.000000,43713.000000,22332.000000,29956.000000
27315.000000,43712.000000,22328.000000,29920.000000
27317.000000,43711.000000,22341.000000,29883.000000
27334.000000,43715.000000,22368.000000,29864.000000
27386.000000,43757.000000,22448.000000,29921.000000
27470.000000,43842.000000,22585.000000,30055.000000
27577.000000,43937.000000,22753.000000,30215.000000
27717.000000,44047.000000,22959.000000,30403.000000
27907.000000,44204.000000,23240.000000,30655.000000
28129.000000,44399.000000,23581.000000,30951.000000
28362.000000,44596.000000,23936.000000,31247.000000
28614.000000,44795.000000,24307.000000,31560.000000
28897.000000,45022.000000,24724.000000,31935.000000
29194.000000,45265.000000,25164.000000,32347.000000
29485.000000,45489.000000,25585.000000,32738.000000
29781.000000,45711.000000,26000.000000,33106.000000
30085.000000,45955.000000,26434.000000,33486.000000
30370.000000,46196.000000,26854.000000,33853.000000
30616.000000,46397.000000,27220.000000,34166.000000
30835.000000,46568.000000,27543.000000,34455.000000
31037.000000,46737.000000,27851.000000,34755.000000
31209.000000,46893.000000,28129.000000,35030.000000
31348.000000,47011.000000,28353.000000,35245.000000
31469.000000,47109.000000,28547.000000,35422.000000
31585.000000,47212.000000,28738.000000,35587.000000
31677.000000,47299.000000,28895.000000,35723.000000
31740.000000,47353.000000,28998.000000,35822.000000
31805.000000,47403.000000,29083.000000,35921.000000
31876.000000,47469.000000,29174.000000,36039.000000
31933.000000,47528.000000,29245.000000,36132.000000
31985.000000,47570.000000,29290.000000,36178.000000
32048.000000,47619.000000,29344.000000,36213.000000
32112.000000,47685.000000,29423.000000,36257.000000
32159.000000,47737.000000,29492.000000,36284.000000
32194.000000,47765.000000,29539.000000,36291.000000
32241.000000,47798.000000,29596.000000,36326.000000
32292.000000,47841.000000,29666.000000,36402.000000
32326.000000,47867.000000,29716.000000,36468.000000
32353.000000,47874.000000,29740.000000,36500.000000
32386.000000,47892.000000,29773.000000,36532.000000
32410.000000,47920.000000,29821.000000,36578.000000
32406.000000,47924.000000,29846.000000,36604.000000
32384.000000,47897.000000,29842.000000,36602.000000
32363.000000,47872.000000,29840.000000,36611.000000
32340.000000,47855.000000,29838.000000,36639.000000
32308.000000,47825.000000,29803.000000,36643.000000
32275.000000,47783.000000,29744.000000,36623.000000
32258.000000,47764.000000,29702.000000,36604.000000
32246.000000,47761.000000,29670.000000,36565.000000
32216.000000,47740.000000,29606.000000,36474.000000
32177.000000,47704.000000,29519.000000,36360.000000
32142.000000,47680.000000,29440.000000,36274.000000
32097.000000,47656.000000,29359.000000,36200.000000
32031.000000,47605.000000,29245.000000,36096.000000
31964.000000,47543.000000,29119.000000,35981.000000
31910.000000,47501.000000,29018.000000,35898.000000
31849.000000,47467.000000,28928.000000,35814.000000
31767.000000,47409.000000,28818.000000,35686.000000
31680.000000,47334.000000,28700.000000,35552.000000
31602.000000,47268.000000,28597.000000,35458.000000
31513.000000,47196.000000,28493.000000,35383.000000
31405.000000,47096.000000,28364.000000,35289.000000
31304.000000,46995.000000,28241.000000,35200.000000
31222.000000,46921.000000,28148.000000,35149.000000
31147.000000,46859.000000,28065.000000,35097.000000
31078.000000,46793.000000,27971.000000,35013.000000
31033.000000,46742.000000,27892.000000,34936.000000
31011.000000,46723.000000,27845.000000,34892.000000
30984.000000,46707.000000,27799.000000,34851.000000
30951.000000,46676.000000,27737.000000,34798.000000
30934.000000,46658.000000,27686.000000,34762.000000
30930.000000,46663.000000,27658.000000,34758.000000
30916.000000,46660.000000,27624.000000,34735.000000
30894.000000,46639.000000,27573.000000,34672.000000
30880.000000,46624.000000,27527.000000,34613.000000
30870.000000,46623.000000,27495.000000,34583.000000
30840.000000,46609.000000,27446.000000,34539.000000
30797.000000,46575.000000,27373.000000,34469.000000
30763.000000,46550.000000,27306.000000,34418.000000
30732.000000,46535.000000,27254.000000,34394.000000
30688.000000,46503.000000,27188.000000,34352.000000
30638.000000,46453.000000,27108.000000,34282.000000
30597.000000,46414.000000,27041.000000,34217.000000
30558.000000,46386.000000,26985.000000,34150.000000
30506.000000,46337.000000,26906.000000,34048.000000
30447.000000,46268.000000,26807.000000,33925.000000
30393.000000,46210.000000,26716.000000,33835.000000
30336.000000,46163.000000,26628.000000,33769.000000
30267.000000,46102.000000,26514.000000,33681.000000
30205.000000,46041.000000,26395.000000,33586.000000
30164.000000,46009.000000,26304.000000,33519.000000
30123.000000,45987.000000,26225.000000,33455.000000
30064.000000,45939.000000,26125.000000,33359.000000
30000.000000,45878.000000,26017.000000,33257.000000
29945.000000,45839.000000,25931.000000,33188.000000
29887.000000,45810.000000,25851.000000,33134.000000
29820.000000,45764.000000,25747.000000,33052.000000
29764.000000,45714.000000,25641.000000,32960.000000
29724.000000,45685.000000,25560.000000,32898.000000
29680.000000,45660.000000,25488.000000,32833.000000
29620.000000,45613.000000,25398.000000,32720.000000
29561.000000,45560.000000,25300.000000,32600.000000
29512.000000,45524.000000,25218.000000,32515.000000
29457.000000,45489.000000,25131.000000,32435.000000
29395.000000,45435.000000,25020.000000,32333.000000
29345.000000,45386.000000,24915.000000,32232.000000
29313.000000,45363.000000,24840.000000,32148.000000
29278.000000,45342.000000,24767.000000,32057.000000
29238.000000,45306.000000,24677.000000,31941.000000
29209.000000,45281.000000,24597.000000,31849.000000
29186.000000,45276.000000,24541.000000,31803.000000
29153.000000,45265.000000,24484.000000,31746.000000
29117.000000,45242.000000,24415.000000,31655.000000
29099.000000,45233.000000,24361.000000,31572.000000
29095.000000,45246.000000,24328.000000,31512.000000
29077.000000,45244.000000,24280.000000,31436.000000
29042.000000,45214.000000,24206.000000,31336.000000
29009.000000,45182.000000,24133.000000,31258.000000
28970.000000,45155.000000,24071.000000,31212.000000
28912.000000,45106.000000,23987.000000,31156.000000
28848.000000,45036.000000,23882.000000,31088.000000
28795.000000,44980.000000,23788.000000,31044.000000
28745.000000,44943.000000,23712.000000,31012.000000
28683.000000,44896.000000,23624.000000,30940.000000
28622.000000,44844.000000,23527.000000,30831.000000
28574.000000,44810.000000,23450.000000,30738.000000
28527.000000,44786.000000,23382.000000,30666.000000
28470.000000,44745.000000,23287.000000,30579.000000
28416.000000,44697.000000,23178.000000,30492.000000
28382.000000,44673.000000,23099.000000,30436.000000
28353.000000,44665.000000,23046.000000,30385.000000
28320.000000,44647.000000,22991.000000,30299.000000
28300.000000,44630.000000,22945.000000,30200.000000
28308.000000,44642.000000,22938.000000,30148.000000
28325.000000,44669.000000,22959.000000,30145.000000
28348.000000,44686.000000,22982.000000,30152.000000
28394.000000,44708.000000,23025.000000,30191.000000
28475.000000,44766.000000,23117.000000,30298.000000
28576.000000,44848.000000,23250.000000,30442.000000
28689.000000,44931.000000,23406.000000,30587.000000
28834.000000,45035.000000,23605.000000,30759.000000
29017.000000,45185.000000,23874.000000,30988.000000
29212.000000,45356.000000,24186.000000,31253.000000
29417.000000,45525.000000,24512.000000,31528.000000
29648.000000,45711.000000,24870.000000,31846.000000
29906.000000,45929.000000,25270.000000,32227.000000
30172.000000,46156.000000,25685.000000,32616.000000
30441.000000,46372.000000,26092.000000,32977.000000
30720.000000,46596.000000,26505.000000,33338.000000
31000.000000,46835.000000,26928.000000,33704.000000
31252.000000,47055.000000,27315.000000,34042.000000
31475.000000,47236.000000,27645.000000,34340.000000
31690.000000,47406.000000,27948.000000,34630.000000
31890.000000,47576.000000,28236.000000,34920.000000
32057.000000,47717.000000,28482.000000,35163.000000
32200.000000,47824.000000,28680.000000,35348.000000
32337.000000,47926.000000,28865.000000,35520.000000
32462.000000,48028.000000,29046.000000,35687.000000
32555.000000,48099.000000,29190.000000,35808.000000
32626.000000,48141.000000,29296.000000,35886.000000
32695.000000,48184.000000,29396.000000,35976.000000
32753.000000,48233.000000,29490.000000,36087.000000
32791.000000,48260.000000,29555.000000,36176.000000
32824.000000,48270.000000,29598.000000,36236.000000
32868.000000,48297.000000,29655.000000,36303.000000
32910.000000,48340.000000,29727.000000,36368.000000
32935.000000,48372.000000,29780.000000,36396.000000
32955.000000,48391.000000,29818.000000,36415.000000
32988.000000,48425.000000,29868.000000,36475.000000
33023.000000,48463.000000,29921.000000,36557.000000
33047.000000,48479.000000,29949.000000,36605.000000
33076.000000,48489.000000,29969.000000,36621.000000
33122.000000,48523.000000,30015.000000,36643.000000
33163.000000,48565.000000,30071.000000,36662.000000
33183.000000,48580.000000,30096.000000,36644.000000
33193.000000,48577.000000,30101.000000,36619.000000
33202.000000,48585.000000,30118.000000,36627.000000
33200.000000,48590.000000,30130.000000,36639.000000
33184.000000,48568.000000,30101.000000,36613.000000
33170.000000,48536.000000,30054.000000,36564.000000
33160.000000,48518.000000,30018.000000,36528.000000
33129.000000,48490.000000,29970.000000,36482.000000
33070.000000,48432.000000,29884.000000,36400.000000
33006.000000,48367.000000,29783.000000,36321.000000
32944.000000,48316.000000,29691.000000,36280.000000
32874.000000,48264.000000,29591.000000,36231.000000
32799.000000,48194.000000,29471.000000,36149.000000
32733.000000,48130.000000,29362.000000,36070.000000
32674.000000,48083.000000,29281.000000,36002.000000
32599.000000,48024.000000,29192.000000,35908.000000
32513.000000,47944.000000,29080.000000,35781.000000
32440.000000,47871.000000,28973.000000,35673.000000
32369.000000,47813.000000,28883.000000,35607.000000
32284.000000,47746.000000,28785.000000,35543.000000
32198.000000,47668.000000,28672.000000,35464.000000
32133.000000,47608.000000,28578.000000,35398.000000
32083.000000,47577.000000,28518.000000,35354.000000
32027.000000,47549.000000,28460.000000,35295.000000
31975.000000,47515.000000,28395.000000,35218.000000
31947.000000,47501.000000,28355.000000,35158.000000
31937.000000,47511.000000,28339.000000,35118.000000
31928.000000,47513.000000,28313.000000,35065.000000
31926.000000,47508.000000,28272.000000,35009.000000
31942.000000,47521.000000,28247.000000,34990.000000
31961.000000,47546.000000,28236.000000,34988.000000
31964.000000,47552.000000,28205.000000,34946.000000
31958.000000,47539.000000,28160.000000,34876.000000
31955.000000,47532.000000,28133.000000,34834.000000
31939.000000,47521.000000,28112.000000,34813.000000
31893.000000,47477.000000,28058.000000,34771.000000
31837.000000,47415.000000,27983.000000,34726.000000
31793.000000,47374.000000,27924.000000,34708.000000
31753.000000,47348.000000,27875.000000,34687.000000
31701.000000,47303.000000,27806.000000,34619.000000
31652.000000,47249.000000,27728.000000,34529.000000
31618.000000,47214.000000,27666.000000,34464.000000
31577.000000,47182.000000,27601.000000,34415.000000
31517.000000,47129.000000,27505.000000,34339.000000
31462.000000,47072.000000,27402.000000,34258.000000
31421.000000,47041.000000,27320.000000,34208.000000
31380.000000,47021.000000,27246.000000,34154.000000
31329.000000,46986.000000,27155.000000,34060.000000
31282.000000,46947.000000,27064.000000,33953.000000
31244.000000,46926.000000,26998.000000,33860.000000
31192.000000,46899.000000,26930.000000,33764.000000
31121.000000,46841.000000,26831.000000,33646.000000
31052.000000,46777.000000,26726.000000,33544.000000
30989.000000,46726.000000,26633.000000,33484.000000
30920.000000,46668.000000,26529.000000,33416.000000
30846.000000,46590.000000,26405.000000,33311.000000
30780.000000,46519.000000,26293.000000,33208.000000
30717.000000,46467.000000,26210.000000,33126.000000
30633.000000,46403.000000,26115.000000,33029.000000
30533.000000,46316.000000,25992.000000,32911.000000
30449.000000,46241.000000,25881.000000,32817.000000
30379.000000,46189.000000,25794.000000,32755.000000
30303.000000,46131.000000,25700.000000,32680.000000
30228.000000,46063.000000,25588.000000,32582.000000
30170.000000,46014.000000,25491.000000,32499.000000
30123.000000,45991.000000,25418.000000,32434.000000
30066.000000,45959.000000,25333.000000,32345.000000
30005.000000,45908.000000,25228.000000,32233.000000
29955.000000,45867.000000,25137.000000,32151.000000
29907.000000,45842.000000,25064.000000,32102.000000
29845.000000,45804.000000,24975.000000,32038.000000
29784.000000,45753.000000,24872.000000,31962.000000
29741.000000,45721.000000,24794.000000,31911.000000
29709.000000,45705.000000,24735.000000,31868.000000
29669.000000,45671.000000,24656.000000,31783.000000
29626.000000,45629.000000,24570.000000,31674.000000
29594.000000,45604.000000,24509.000000,31595.000000
29557.000000,45584.000000,24453.000000,31532.000000
29501.000000,45538.000000,24367.000000,31447.000000
29442.000000,45482.000000,24271.000000,31365.000000
29402.000000,45447.000000,24202.000000,31326.000000
29364.000000,45424.000000,24146.000000,31294.000000
29315.000000,45388.000000,24068.000000,31219.000000
29272.000000,45351.000000,23985.000000,31119.000000
29243.000000,45334.000000,23927.000000,31040.000000
29207.000000,45317.000000,23869.000000,30969.000000
29152.000000,45275.000000,23783.000000,30872.000000
29098.000000,45230.000000,23690.000000,30779.000000
29056.000000,45205.000000,23618.000000,30722.000000
29015.000000,45180.000000,23546.000000,30660.000000
28969.000000,45134.000000,23452.000000,30571.000000
28929.000000,45088.000000,23364.000000,30489.000000
28893.000000,45062.000000,23300.000000,30426.000000
28842.000000,45029.000000,23229.000000,30350.000000
28777.000000,44973.000000,23136.000000,30255.000000
28726.000000,44924.000000,23057.000000,30193.000000
28687.000000,44895.000000,23007.000000,30185.000000
28647.000000,44869.000000,22963.000000,30179.000000
28622.000000,44840.000000,22924.000000,30152.000000
28636.000000,44840.000000,22932.000000,30154.000000
28685.000000,44883.000000,23001.000000,30201.000000
28747.000000,44940.000000,23100.000000,30257.000000
28827.000000,45001.000000,23222.000000,30317.000000
28941.000000,45093.000000,23394.000000,30441.000000
29086.000000,45224.000000,23622.000000,30641.000000
29250.000000,45367.000000,23877.000000,30866.000000
29437.000000,45517.000000,24156.000000,31110.000000
29657.000000,45700.000000,24483.000000,31415.000000
29901.000000,45913.000000,24850.000000,31763.000000
30148.000000,46123.000000,25221.000000,32097.000000
30399.000000,46324.000000,25591.000000,32413.000000
30662.000000,46538.000000,25984.000000,32750.000000
30919.000000,46760.000000,26381.000000,33091.000000
31150.000000,46952.000000,26734.000000,33395.000000
31360.000000,47113.000000,27045.000000,33677.000000
31562.000000,47271.000000,27344.000000,33980.000000
31741.000000,47421.000000,27622.000000,34279.000000
31889.000000,47538.000000,27849.000000,34522.000000
32028.000000,47637.000000,28051.000000,34712.000000
32174.000000,47749.000000,28262.000000,34892.000000
32306.000000,47862.000000,28459.000000,35049.000000
32407.000000,47945.000000,28606.000000,35147.000000
32496.000000,48012.000000,28718.000000,35223.000000
32592.000000,48090.000000,28832.000000,35318.000000
32673.000000,48163.000000,28934.000000,35422.000000
32728.000000,48208.000000,28995.000000,35502.000000
32779.000000,48247.000000,29042.000000,35569.000000
32839.000000,48302.000000,29107.000000,35651.000000
32891.000000,48353.000000,29170.000000,35719.000000
32927.000000,48376.000000,29209.000000,35744.000000
32959.000000,48390.000000,29247.000000,35767.000000
32988.000000,48417.000000,29302.000000,35813.000000
32996.000000,48430.000000,29339.000000,35850.000000
32980.000000,48408.000000,29340.000000,35861.000000
32965.000000,48380.000000,29339.000000,35885.000000
32950.000000,48363.000000,29352.000000,35939.000000
32919.000000,48336.000000,29352.000000,35970.000000
32889.000000,48293.000000,29327.000000,35952.000000
32877.000000,48265.000000,29309.000000,35930.000000
32871.000000,48262.000000,29311.000000,35925.000000
32849.000000,48254.000000,29299.000000,35901.000000
32820.000000,48230.000000,29262.000000,35849.000000
32805.000000,48218.000000,29229.000000,35815.000000
32795.000000,48224.000000,29203.000000,35802.000000
32771.000000,48216.000000,29154.000000,35764.000000
32740.000000,48186.000000,29079.000000,35698.000000
32717.000000,48162.000000,29012.000000,35648.000000
32692.000000,48145.000000,28959.000000,35611.000000
32650.000000,48109.000000,28889.000000,35540.000000
32598.000000,48053.000000,28802.000000,35434.000000
32548.000000,48003.000000,28728.000000,35339.000000
32491.000000,47958.000000,28658.000000,35251.000000
32419.000000,47889.000000,28559.000000,35138.000000
32341.000000,47804.000000,28439.000000,35025.000000
32274.000000,47737.000000,28339.000000,34961.000000
32212.000000,47683.000000,28255.000000,34929.000000
32141.000000,47615.000000,28155.000000,34875.000000
32078.000000,47547.000000,28052.000000,34803.000000
32040.000000,47512.000000,27983.000000,34752.000000
32006.000000,47494.000000,27933.000000,34703.000000
31960.000000,47461.000000,27870.000000,34622.000000
31917.000000,47427.000000,27808.000000,34537.000000
31888.000000,47413.000000,27771.000000,34489.000000
31856.000000,47401.000000,27738.000000,34455.000000
31809.000000,47364.000000,27678.000000,34396.000000
31768.000000,47322.000000,27611.000000,34338.000000
31737.000000,47299.000000,27568.000000,34321.000000
31702.000000,47277.000000,27533.000000,34307.000000
31656.000000,47230.000000,27477.000000,34261.000000
31615.000000,47182.000000,27422.000000,34213.000000
31583.000000,47155.000000,27387.000000,34189.000000
31544.000000,47127.000000,27346.000000,34152.000000
31498.000000,47079.000000,27283.000000,34076.000000
31458.000000,47035.000000,27225.000000,34005.000000
31417.000000,47007.000000,27178.000000,33959.000000
31361.000000,46969.000000,27114.000000,33909.000000
31298.000000,46911.000000,27022.000000,33851.000000
31254.000000,46867.000000,26941.000000,33809.000000
31226.000000,46851.000000,26887.000000,33789.000000
31191.000000,46828.000000,26828.000000,33746.000000
31148.000000,46784.000000,26750.000000,33660.000000
31109.000000,46747.000000,26681.000000,33572.000000
31061.000000,46721.000000,26625.000000,33499.000000
30989.000000,46675.000000,26548.000000,33411.000000
30906.000000,46603.000000,26442.000000,33302.000000
30836.000000,46535.000000,26341.000000,33218.000000
30771.000000,46481.000000,26248.000000,33169.000000
30693.000000,46412.000000,26137.000000,33105.000000
30612.000000,46331.000000,26011.000000,33020.000000
30545.000000,46268.000000,25908.000000,32952.000000
30484.000000,46222.000000,25825.000000,32892.000000
30406.000000,46162.000000,25727.000000,32791.000000
30321.000000,46090.000000,25617.000000,32663.000000
30247.000000,46037.000000,25526.000000,32566.000000
30176.000000,45991.000000,25441.000000,32492.000000
30090.000000,45921.000000,25329.000000,32393.000000
30010.000000,45843.000000,25205.000000,32286.000000
29957.000000,45794.000000,25111.000000,32215.000000
29910.000000,45762.000000,25032.000000,32152.000000
29855.000000,45715.000000,24935.000000,32049.000000
29807.000000,45666.000000,24835.000000,31922.000000
29771.000000,45635.000000,24757.000000,31816.000000
29720.000000,45603.000000,24677.000000,31722.000000
29643.000000,45545.000000,24570.000000,31609.000000
29560.000000,45475.000000,24458.000000,31510.000000
29486.000000,45421.000000,24367.000000,31457.000000
29410.000000,45369.000000,24277.000000,31410.000000
29327.000000,45295.000000,24161.000000,31336.000000
29259.000000,45224.000000,24049.000000,31259.000000
29208.000000,45182.000000,23967.000000,31204.000000
29156.000000,45146.000000,23890.000000,31131.000000
29101.000000,45097.000000,23800.000000,31014.000000
29053.000000,45050.000000,23720.000000,30905.000000
29008.000000,45016.000000,23658.000000,30834.000000
28949.000000,44975.000000,23583.000000,30774.000000
28888.000000,44917.000000,23486.000000,30706.000000
28849.000000,44874.000000,23410.000000,30650.000000
28828.000000,44858.000000,23365.000000,30615.000000
28800.000000,44837.000000,23311.000000,30557.000000
28763.000000,44795.000000,23233.000000,30462.000000
28731.000000,44759.000000,23160.000000,30376.000000
28694.000000,44736.000000,23104.000000,30312.000000
28636.000000,44699.000000,23031.000000,30233.000000
28570.000000,44642.000000,22935.000000,30134.000000
28516.000000,44597.000000,22852.000000,30062.000000
28467.000000,44570.000000,22785.000000,30015.000000
28404.000000,44530.000000,22701.000000,29949.000000
28336.000000,44475.000000,22598.000000,29865.000000
28281.000000,44436.000000,22514.000000,29801.000000
28232.000000,44411.000000,22450.000000,29743.000000
28167.000000,44364.000000,22367.000000,29644.000000
28094.000000,44294.000000,22265.000000,29519.000000
28027.000000,44233.000000,22178.000000,29427.000000
27959.000000,44180.000000,22097.000000,29363.000000
27879.000000,44111.000000,21991.000000,29276.000000
27809.000000,44041.000000,21875.000000,29176.000000
27767.000000,44001.000000,21788.000000,29104.000000
27738.000000,43980.000000,21722.000000,29047.000000
27700.000000,43952.000000,21646.000000,28968.000000
27670.000000,43931.000000,21579.000000,28892.000000
27665.000000,43943.000000,21555.000000,28866.000000
27668.000000,43968.000000,21555.000000,28876.000000
27672.000000,43981.000000,21557.000000,28882.000000
27701.000000,44005.000000,21585.000000,28914.000000
27765.000000,44067.000000,21670.000000,29013.000000
27849.000000,44150.000000,21794.000000,29142.000000
27947.000000,44230.000000,21932.000000,29263.000000
28073.000000,44320.000000,22107.000000,29403.000000
28233.000000,44445.000000,22341.000000,29591.000000
28403.000000,44585.000000,22607.000000,29799.000000
28580.000000,44717.000000,22877.000000,30005.000000
28779.000000,44860.000000,23172.000000,30252.000000
28994.000000,45028.000000,23501.000000,30562.000000
29207.000000,45199.000000,23830.000000,30890.000000
29421.000000,45357.000000,24141.000000,31207.000000
29656.000000,45530.000000,24465.000000,31536.000000
29900.000000,45727.000000,24811.000000,31876.000000
30126.000000,45916.000000,25141.000000,32174.000000
30331.000000,46084.000000,25435.000000,32408.000000
30529.000000,46246.000000,25713.000000,32622.000000
30709.000000,46403.000000,25980.000000,32833.000000
30850.000000,46523.000000,26201.000000,33003.000000
30960.000000,46601.000000,26368.000000,33129.000000
31060.000000,46670.000000,26517.000000,33260.000000
31148.000000,46742.000000,26656.000000,33408.000000
31206.000000,46789.000000,26754.000000,33529.000000
31249.000000,46808.000000,26814.000000,33612.000000
31298.000000,46833.000000,26878.000000,33703.000000
31349.000000,46871.000000,26950.000000,33795.000000
31381.000000,46896.000000,26997.000000,33834.000000
31404.000000,46908.000000,27024.000000,33829.000000
31433.000000,46932.000000,27065.000000,33840.000000
31458.000000,46962.000000,27111.000000,33868.000000
31461.000000,46968.000000,27123.000000,33871.000000
31460.000000,46957.000000,27112.000000,33878.000000
31474.000000,46961.000000,27120.000000,33928.000000
31491.000000,46975.000000,27137.000000,33990.000000
31493.000000,46969.000000,27134.000000,34009.000000
31496.000000,46957.000000,27127.000000,33991.000000
31506.000000,46967.000000,27143.000000,33981.000000
31506.000000,46980.000000,27155.000000,33977.000000
31488.000000,46969.000000,27135.000000,33946.000000
31473.000000,46950.000000,27102.000000,33916.000000
31471.000000,46947.000000,27088.000000,33925.000000
31468.000000,46950.000000,27076.000000,33933.000000
31454.000000,46933.000000,27036.000000,33903.000000
31441.000000,46912.000000,26989.000000,33858.000000
31431.000000,46908.000000,26960.000000,33823.000000
31401.000000,46897.000000,26922.000000,33770.000000
31350.000000,46856.000000,26851.000000,33677.000000
31300.000000,46810.000000,26775.000000,33598.000000
31255.000000,46777.000000,26710.000000,33561.000000
31201.000000,46739.000000,26631.000000,33520.000000
31145.000000,46687.000000,26528.000000,33450.000000
31105.000000,46646.000000,26436.000000,33385.000000
31075.000000,46625.000000,26369.000000,33336.000000
31028.000000,46590.000000,26296.000000,33262.000000
30966.000000,46531.000000,26202.000000,33160.000000
30914.000000,46472.000000,26119.000000,33083.000000
30867.000000,46427.000000,26060.000000,33046.000000
30811.000000,46376.000000,25998.000000,32997.000000
30757.000000,46322.000000,25925.000000,32924.000000
30720.000000,46290.000000,25873.000000,32871.000000
30694.000000,46284.000000,25843.000000,32844.000000
30662.000000,46274.000000,25805.000000,32800.000000
30631.000000,46253.000000,25759.000000,32733.000000
30618.000000,46247.000000,25733.000000,32686.000000
30613.000000,46254.000000,25721.000000,32666.000000
30598.000000,46247.000000,25690.000000,32632.000000
30587.000000,46231.000000,25644.000000,32587.000000
30595.000000,46234.000000,25615.000000,32563.000000
30604.000000,46250.000000,25596.000000,32538.000000
30597.000000,46246.000000,25557.000000,32473.000000
30584.000000,46224.000000,25507.000000,32390.000000
30576.000000,46209.000000,25473.000000,32346.000000
30554.000000,46193.000000,25440.000000,32339.000000
30512.000000,46155.000000,25378.000000,32320.000000
30477.000000,46116.000000,25309.000000,32289.000000
30458.000000,46106.000000,25266.000000,32278.000000
30438.000000,46105.000000,25236.000000,32254.000000
30398.000000,46080.000000,25185.000000,32180.000000
30351.000000,46039.000000,25118.000000,32094.000000
30308.000000,46006.000000,25061.000000,32045.000000
30258.000000,45969.000000,25001.000000,32005.000000
30195.000000,45908.000000,24914.000000,31935.000000
30139.000000,45848.000000,24825.000000,31853.000000
30094.000000,45811.000000,24759.000000,31787.000000
30036.000000,45772.000000,24686.000000,31712.000000
29961.000000,45712.000000,24584.000000,31599.000000
29893.000000,45649.000000,24479.000000,31493.000000
29837.000000,45602.000000,24394.000000,31430.000000
29780.000000,45556.000000,24306.000000,31370.000000
29722.000000,45497.000000,24200.000000,31286.000000
29681.000000,45453.000000,24108.000000,31207.000000
29656.000000,45441.000000,24045.000000,31156.000000
29623.000000,45429.000000,23983.000000,31098.000000
29581.000000,45399.000000,23903.000000,31016.000000
29548.000000,45376.000000,23831.000000,30952.000000
29517.000000,45370.000000,23774.000000,30917.000000
29470.000000,45353.000000,23707.000000,30859.000000
29420.000000,45315.000000,23620.000000,30763.000000
29381.000000,45279.000000,23546.000000,30677.000000
29344.000000,45252.000000,23488.000000,30607.000000
29287.000000,45205.000000,23413.000000,30508.000000
29214.000000,45132.000000,23313.000000,30381.000000
29144.000000,45064.000000,23220.000000,30284.000000
29069.000000,45005.000000,23136.000000,30225.000000
28977.000000,44928.000000,23029.000000,30157.000000
28884.000000,44839.000000,22910.000000,30071.000000
28814.000000,44771.000000,22813.000000,29999.000000
28756.000000,44724.000000,22737.000000,29923.000000
28689.000000,44668.000000,22647.000000,29812.000000
28626.000000,44609.000000,22551.000000,29698.000000
28584.000000,44574.000000,22480.000000,29633.000000
28546.000000,44550.000000,22421.000000,29597.000000
28499.000000,44511.000000,22341.000000,29527.000000
28462.000000,44470.000000,22260.000000,29432.000000
28440.000000,44453.000000,22206.000000,29365.000000
28408.000000,44438.000000,22157.000000,29318.000000
28349.000000,44397.000000,22083.000000,29251.000000
28289.000000,44344.000000,22002.000000,29188.000000
28244.000000,44311.000000,21944.000000,29163.000000
28202.000000,44288.000000,21895.000000,29133.000000
28148.000000,44246.000000,21822.000000,29059.000000
28093.000000,44195.000000,21739.000000,28966.000000
28048.000000,44164.000000,21675.000000,28891.000000
27993.000000,44131.000000,21602.000000,28814.000000
27921.000000,44069.000000,21496.000000,28708.000000
27854.000000,44004.000000,21389.000000,28614.000000
27802.000000,43960.000000,21303.000000,28563.000000
27747.000000,43916.000000,21217.000000,28503.000000
27689.000000,43859.000000,21115.000000,28401.000000
27640.000000,43811.000000,21022.000000,28308.000000
27593.000000,43785.000000,20952.000000,28250.000000
27535.000000,43752.000000,20874.000000,28191.000000
27473.000000,43699.000000,20776.000000,28113.000000
27430.000000,43657.000000,20695.000000,28047.000000
27402.000000,43635.000000,20642.000000,28002.000000
27367.000000,43607.000000,20583.000000,27937.000000
27325.000000,43562.000000,20509.000000,27849.000000
27292.000000,43528.000000,20452.000000,27788.000000
27266.000000,43509.000000,20423.000000,27767.000000
27239.000000,43483.000000,20395.000000,27748.000000
27223.000000,43452.000000,20366.000000,27725.000000
27230.000000,43444.000000,20375.000000,27739.000000
27251.000000,43465.000000,20430.000000,27791.000000
27277.000000,43490.000000,20501.000000,27848.000000
27322.000000,43518.000000,20588.000000,27924.000000
27404.000000,43576.000000,20725.000000,28069.000000
27516.000000,43665.000000,20909.000000,28275.000000
27643.000000,43762.000000,21112.000000,28485.000000
27797.000000,43876.000000,21341.000000,28695.000000
27987.000000,44028.000000,21623.000000,28941.000000
28193.000000,44205.000000,21937.000000,29207.000000
28393.000000,44371.000000,22240.000000,29450.000000
28601.000000,44535.000000,22536.000000,29693.000000
28833.000000,44724.000000,22853.000000,29973.000000
29067.000000,44924.000000,23173.000000,30258.000000
29281.000000,45096.000000,23459.000000,30497.000000
29482.000000,45250.000000,23721.000000,30707.000000
29676.000000,45411.000000,23982.000000,30931.000000
29840.000000,45554.000000,24214.000000,31151.000000
29964.000000,45648.000000,24388.000000,31327.000000
30071.000000,45717.000000,24532.000000,31474.000000
30173.000000,45795.000000,24682.000000,31630.000000
30252.000000,45864.000000,24820.000000,31765.000000
30303.000000,45900.000000,24917.000000,31844.000000
30341.000000,45919.000000,24991.000000,31914.000000
30373.000000,45946.000000,25067.000000,32009.000000
30393.000000,45966.000000,25125.000000,32088.000000
30405.000000,45965.000000,25145.000000,32128.000000
30430.000000,45972.000000,25158.000000,32161.000000
30466.000000,46006.000000,25190.000000,32202.000000
30488.000000,46035.000000,25213.000000,32220.000000
30491.000000,46038.000000,25208.000000,32203.000000
30500.000000,46043.000000,25209.000000,32202.000000
30515.000000,46064.000000,25228.000000,32232.000000
30515.000000,46073.000000,25236.000000,32244.000000
30513.000000,46064.000000,25223.000000,32222.000000
30524.000000,46061.000000,25217.000000,32211.000000
30536.000000,46072.000000,25224.000000,32221.000000
30529.000000,46067.000000,25215.000000,32214.000000
30515.000000,46041.000000,25182.000000,32188.000000
30511.000000,46021.000000,25158.000000,32184.000000
30508.000000,46013.000000,25144.000000,32201.000000
30488.000000,45991.000000,25110.000000,32191.000000
30457.000000,45949.000000,25051.000000,32143.000000
30426.000000,45913.000000,24996.000000,32094.000000
30388.000000,45882.000000,24944.000000,32047.000000
30330.000000,45832.000000,24864.000000,31971.000000
30263.000000,45769.000000,24763.000000,31882.000000
30209.000000,45723.000000,24682.000000,31824.000000
30159.000000,45691.000000,24620.000000,31779.000000
30104.000000,45650.000000,24543.000000,31694.000000
30059.000000,45605.000000,24460.000000,31580.000000
30027.000000,45581.000000,24400.000000,31487.000000
29984.000000,45564.000000,24348.000000,31417.000000
29926.000000,45527.000000,24274.000000,31340.000000
29875.000000,45488.000000,24193.000000,31271.000000
29844.000000,45475.000000,24135.000000,31238.000000
29814.000000,45467.000000,24088.000000,31202.000000
29775.000000,45434.000000,24025.000000,31128.000000
29739.000000,45390.000000,23963.000000,31055.000000
29713.000000,45362.000000,23927.000000,31020.000000
29678.000000,45337.000000,23895.000000,31006.000000
29634.000000,45292.000000,23840.000000,30980.000000
29606.000000,45255.000000,23793.000000,30964.000000
29598.000000,45250.000000,23779.000000,30983.000000
29589.000000,45256.000000,23769.000000,30992.000000
29578.000000,45250.000000,23742.000000,30954.000000
29577.000000,45246.000000,23716.000000,30912.000000
29581.000000,45259.000000,23708.000000,30895.000000
29571.000000,45263.000000,23688.000000,30869.000000
29548.000000,45241.000000,23640.000000,30820.000000
29534.000000,45222.000000,23598.000000,30783.000000
29523.000000,45220.000000,23578.000000,30770.000000
29497.000000,45203.000000,23549.000000,30734.000000
29463.000000,45160.000000,23503.000000,30661.000000
29434.000000,45118.000000,23460.000000,30599.000000
29400.000000,45086.000000,23422.000000,30565.000000
29349.000000,45043.000000,23360.000000,30519.000000
29290.000000,44983.000000,23275.000000,30451.000000
29242.000000,44933.000000,23201.000000,30399.000000
29201.000000,44900.000000,23145.000000,30362.000000
29147.000000,44857.000000,23074.000000,30293.000000
29088.000000,44802.000000,22985.000000,30197.000000
29040.000000,44763.000000,22906.000000,30126.000000
28995.000000,44739.000000,22838.000000,30082.000000
28939.000000,44701.000000,22750.000000,30021.000000
28883.000000,44652.000000,22652.000000,29950.000000
28841.000000,44623.000000,22582.000000,29910.000000
28805.000000,44611.000000,22532.000000,29878.000000
28755.000000,44584.000000,22464.000000,29800.000000
28701.000000,44545.000000,22383.000000,29696.000000
28655.000000,44516.000000,22317.000000,29633.000000
28603.000000,44484.000000,22255.000000,29596.000000
28532.000000,44425.000000,22169.000000,29526.000000
28464.000000,44359.000000,22073.000000,29434.000000
28415.000000,44316.000000,21998.000000,29363.000000
28366.000000,44281.000000,21929.000000,29291.000000
28300.000000,44223.000000,21832.000000,29185.000000
28235.000000,44157.000000,21724.000000,29085.000000
28188.000000,44115.000000,21639.000000,29026.000000
28142.000000,44084.000000,21562.000000,28976.000000
28085.000000,44033.000000,21464.000000,28899.000000
28034.000000,43983.000000,21367.000000,28811.000000
27997.000000,43959.000000,21300.000000,28740.000000
27951.000000,43934.000000,21235.000000,28668.000000
27888.000000,43878.000000,21142.000000,28572.000000
27831.000000,43819.000000,21050.000000,28487.000000
27783.000000,43779.000000,20980.000000,28438.000000
27724.000000,43735.000000,20904.000000,28374.000000
27659.000000,43673.000000,20807.000000,28274.000000
27597.000000,43613.000000,20721.000000,28183.000000
27533.000000,43567.000000,20657.000000,28115.000000
27454.000000,43509.000000,20578.000000,28039.000000
27366.000000,43430.000000,20473.000000,27947.000000
27297.000000,43365.000000,20383.000000,27878.000000
27244.000000,43326.000000,20323.000000,27838.000000
27187.000000,43284.000000,20259.000000,27784.000000
27135.000000,43229.000000,20179.000000,27708.000000
27097.000000,43191.000000,20109.000000,27645.000000
27059.000000,43173.000000,20054.000000,27599.000000
27003.000000,43144.000000,19982.000000,27535.000000
26945.000000,43100.000000,19888.000000,27458.000000
26901.000000,43067.000000,19805.000000,27410.000000
26861.000000,43041.000000,19737.000000,27382.000000
26809.000000,42996.000000,19655.000000,27320.000000
26750.000000,42934.000000,19558.000000,27226.000000
26696.000000,42881.000000,19476.000000,27145.000000
26638.000000,42835.000000,19409.000000,27078.000000
26564.000000,42768.000000,19319.000000,26988.000000
26485.000000,42687.000000,19207.000000,26894.000000
26417.000000,42622.000000,19118.000000,26837.000000
26350.000000,42574.000000,19046.000000,26793.000000
26277.000000,42518.000000,18959.000000,26714.000000
26217.000000,42469.000000,18875.000000,26618.000000
26185.000000,42458.000000,18830.000000,26558.000000
26163.000000,42469.000000,18806.000000,26523.000000
26140.000000,42472.000000,18775.000000,26480.000000
26136.000000,42478.000000,18758.000000,26461.000000
26166.000000,42515.000000,18790.000000,26503.000000
26218.000000,42574.000000,18861.000000,26567.000000
26283.000000,42630.000000,18943.000000,26620.000000
26373.000000,42693.000000,19051.000000,26692.000000
26487.000000,42786.000000,19212.000000,26816.000000
26610.000000,42892.000000,19404.000000,26980.000000
26737.000000,42986.000000,19604.000000,27154.000000
26889.000000,43092.000000,19831.000000,27355.000000
27068.000000,43230.000000,20098.000000,27608.000000
27256.000000,43379.000000,20382.000000,27872.000000
27450.000000,43522.000000,20666.000000,28119.000000
27659.000000,43676.000000,20967.000000,28376.000000
27874.000000,43850.000000,21289.000000,28655.000000
28072.000000,44014.000000,21588.000000,28918.000000
28253.000000,44153.000000,21845.000000,29155.000000
28433.000000,44291.000000,22095.000000,29401.000000
28608.000000,44441.000000,22348.000000,29664.000000
28761.000000,44574.000000,22569.000000,29889.000000
28900.000000,44683.000000,22749.000000,30058.000000
29035.000000,44788.000000,22919.000000,30215.000000
29157.000000,44892.000000,23085.000000,30375.000000
29250.000000,44966.000000,23217.000000,30503.000000
29321.000000,45008.000000,23312.000000,30594.000000
29389.000000,45050.000000,23400.000000,30687.000000
29449.000000,45098.000000,23487.000000,30786.000000
29488.000000,45127.000000,23549.000000,30858.000000
29516.000000,45141.000000,23589.000000,30897.000000
29546.000000,45164.000000,23639.000000,30937.000000
29569.000000,45192.000000,23694.000000,30977.000000
29571.000000,45193.000000,23719.000000,30982.000000
29562.000000,45174.000000,23719.000000,30976.000000
29562.000000,45166.000000,23730.000000,31008.000000
29560.000000,45168.000000,23746.000000,31053.000000
29549.000000,45152.000000,23737.000000,31056.000000
29543.000000,45128.000000,23720.000000,31030.000000
29550.000000,45123.000000,23726.000000,31023.000000
29551.000000,45126.000000,23738.000000,31016.000000
29531.000000,45101.000000,23719.000000,30972.000000
29503.000000,45060.000000,23680.000000,30930.000000
29478.000000,45033.000000,23653.000000,30936.000000
29444.000000,45011.000000,23622.000000,30950.000000
29392.000000,44967.000000,23558.000000,30925.000000
29341.000000,44917.000000,23482.000000,30876.000000
29300.000000,44886.000000,23425.000000,30843.000000
29250.000000,44853.000000,23369.000000,30803.000000
29183.000000,44800.000000,23292.000000,30725.000000
29119.000000,44742.000000,23210.000000,30651.000000
29064.000000,44697.000000,23142.000000,30611.000000
29010.000000,44651.000000,23067.000000,30567.000000
28953.000000,44588.000000,22972.000000,30499.000000
28903.000000,44529.000000,22885.000000,30440.000000
28860.000000,44487.000000,22823.000000,30398.000000
28804.000000,44441.000000,22756.000000,30336.000000
28737.000000,44377.000000,22667.000000,30240.000000
28683.000000,44323.000000,22584.000000,30156.000000
28639.000000,44288.000000,22522.000000,30104.000000
28588.000000,44248.000000,22460.000000,30046.000000
28538.000000,44194.000000,22388.000000,29971.000000
28502.000000,44150.000000,22333.000000,29916.000000
28471.000000,44124.000000,22304.000000,29888.000000
28426.000000,44087.000000,22265.000000,29845.000000
28377.000000,44036.000000,22209.000000,29780.000000
28340.000000,43996.000000,22165.000000,29737.000000
28305.000000,43972.000000,22139.000000,29724.000000
28263.000000,43939.000000,22099.000000,29705.000000
28222.000000,43900.000000,22045.000000,29674.000000
28194.000000,43877.000000,22009.000000,29660.000000
28167.000000,43869.000000,21989.000000,29653.000000
28131.000000,43849.000000,21954.000000,29618.000000
28094.000000,43817.000000,21906.000000,29572.000000
28067.000000,43799.000000,21870.000000,29563.000000
28037.000000,43788.000000,21839.000000,29576.000000
27994.000000,43758.000000,21782.000000,29563.000000
27956.000000,43723.000000,21719.000000,29527.000000
27934.000000,43710.000000,21682.000000,29502.000000
27907.000000,43704.000000,21652.000000,29473.000000
27853.000000,43665.000000,21591.000000,29406.000000
27786.000000,43604.000000,21511.000000,29331.000000
27722.000000,43552.000000,21445.000000,29286.000000
27651.000000,43503.000000,21381.000000,29245.000000
27567.000000,43428.000000,21293.000000,29174.000000
27490.000000,43345.000000,21200.000000,29086.000000
27424.000000,43279.000000,21128.000000,29009.000000
27347.000000,43213.000000,21053.000000,28928.000000
27247.000000,43122.000000,20946.000000,28814.000000
27146.000000,43025.000000,20827.000000,28706.000000
27051.000000,42945.000000,20721.000000,28641.000000
26952.000000,42869.000000,20614.000000,28580.000000
26849.000000,42780.000000,20492.000000,28503.000000
26761.000000,42703.000000,20384.000000,28440.000000
26688.000000,42655.000000,20307.000000,28402.000000
26612.000000,42608.000000,20227.000000,28350.000000
26532.000000,42546.000000,20128.000000,28267.000000
26465.000000,42491.000000,20039.000000,28193.000000
26401.000000,42455.000000,19970.000000,28145.000000
26326.000000,42415.000000,19893.000000,28083.000000
26254.000000,42360.000000,19795.000000,27994.000000
26205.000000,42314.000000,19707.000000,27916.000000
26168.000000,42287.000000,19641.000000,27855.000000
26120.000000,42250.000000,19562.000000,27775.000000
26062.000000,42196.000000,19461.000000,27672.000000
26010.000000,42151.000000,19370.000000,27589.000000
25956.000000,42120.000000,19296.000000,27532.000000
25888.000000,42076.000000,19209.000000,27461.000000
25817.000000,42016.000000,19105.000000,27378.000000
25759.000000,41966.000000,19015.000000,27320.000000
25702.000000,41925.000000,18947.000000,27279.000000
25629.000000,41869.000000,18866.000000,27208.000000
25552.000000,41796.000000,18775.000000,27105.000000
25484.000000,41733.000000,18703.000000,27018.000000
25410.000000,41678.000000,18640.000000,26953.000000
25320.000000,41602.000000,18550.000000,26875.000000
25235.000000,41519.000000,18441.000000,26800.000000
25175.000000,41466.000000,18355.000000,26759.000000
25125.000000,41440.000000,18290.000000,26729.000000
25065.000000,41405.000000,18210.000000,26661.000000
25014.000000,41370.000000,18130.000000,26564.000000
24983.000000,41360.000000,18075.000000,26485.000000
24948.000000,41352.000000,18024.000000,26419.000000
24896.000000,41315.000000,17944.000000,26331.000000
24845.000000,41264.000000,17851.000000,26253.000000
24806.000000,41229.000000,17777.000000,26220.000000
24765.000000,41195.000000,17709.000000,26198.000000
24709.000000,41135.000000,17620.000000,26145.000000
24648.000000,41067.000000,17533.000000,26075.000000
24588.000000,41017.000000,17472.000000,26020.000000
24512.000000,40963.000000,17407.000000,25964.000000
24421.000000,40885.000000,17317.000000,25883.000000
24340.000000,40808.000000,17232.000000,25820.000000
24275.000000,40758.000000,17173.000000,25804.000000
24216.000000,40719.000000,17122.000000,25792.000000
24168.000000,40680.000000,17071.000000,25766.000000
24157.000000,40670.000000,17059.000000,25768.000000
24183.000000,40706.000000,17104.000000,25813.000000
24220.000000,40757.000000,17175.000000,25859.000000
24268.000000,40804.000000,17257.000000,25891.000000
24347.000000,40871.000000,17375.000000,25958.000000
24449.000000,40964.000000,17537.000000,26082.000000
24555.000000,41058.000000,17707.000000,26218.000000
24669.000000,41141.000000,17872.000000,26354.000000
24807.000000,41241.000000,18069.000000,26532.000000
24960.000000,41366.000000,18305.000000,26758.000000
25105.000000,41484.000000,18545.000000,26986.000000
25245.000000,41584.000000,18776.000000,27205.000000
25401.000000,41697.000000,19024.000000,27456.000000
25566.000000,41826.000000,19286.000000,27739.000000
25723.000000,41945.000000,19523.000000,28001.000000
25877.000000,42052.000000,19738.000000,28236.000000
26041.000000,42176.000000,19965.000000,28476.000000
26202.000000,42311.000000,20199.000000,28701.000000
26338.000000,42422.000000,20399.000000,28871.000000
26453.000000,42506.000000,20569.000000,29006.000000
26556.000000,42587.000000,20734.000000,29157.000000
26636.000000,42659.000000,20880.000000,29307.000000
26686.000000,42700.000000,20979.000000,29402.000000
26731.000000,42726.000000,21051.000000,29458.000000
26786.000000,42768.000000,21133.000000,29524.000000
26831.000000,42811.000000,21207.000000,29578.000000
26846.000000,42821.000000,21237.000000,29582.000000
26845.000000,42812.000000,21237.000000,29574.000000
26848.000000,42814.000000,21246.000000,29597.000000
26842.000000,42811.000000,21248.000000,29629.000000
26819.000000,42776.000000,21215.000000,29629.000000
26802.000000,42736.000000,21173.000000,29612.000000
26798.000000,42719.000000,21151.000000,29613.000000
26784.000000,42707.000000,21130.000000,29603.000000
26751.000000,42679.000000,21088.000000,29557.000000
26717.000000,42647.000000,21047.000000,29525.000000
26683.000000,42628.000000,21026.000000,29538.000000
26638.000000,42600.000000,20996.000000,29548.000000
26589.000000,42548.000000,20938.000000,29529.000000
26553.000000,42501.000000,20887.000000,29510.000000
26523.000000,42477.000000,20862.000000,29502.000000
26476.000000,42443.000000,20825.000000,29460.000000
26417.000000,42386.000000,20761.000000,29371.000000
26365.000000,42331.000000,20701.000000,29292.000000
26316.000000,42290.000000,20655.000000,29249.000000
26248.000000,42236.000000,20591.000000,29198.000000
26170.000000,42164.000000,20498.000000,29122.000000
26105.000000,42105.000000,20411.000000,29059.000000
26051.000000,42069.000000,20345.000000,29012.000000
25984.000000,42021.000000,20267.000000,28936.000000
25910.000000,41955.000000,20165.000000,28830.000000
25847.000000,41898.000000,20074.000000,28747.000000
25786.000000,41853.000000,19999.000000,28701.000000
25716.000000,41792.000000,19911.000000,28653.000000
25647.000000,41722.000000,19811.000000,28600.000000
25595.000000,41676.000000,19738.000000,28579.000000
25555.000000,41654.000000,19689.000000,28575.000000
25508.000000,41621.000000,19629.000000,28534.000000
25461.000000,41576.000000,19562.000000,28465.000000
25425.000000,41545.000000,19519.000000,28422.000000
25386.000000,41521.000000,19487.000000,28401.000000
25335.000000,41482.000000,19435.000000,28357.000000
25293.000000,41437.000000,19377.000000,28306.000000
25278.000000,41414.000000,19350.000000,28285.000000
25271.000000,41409.000000,19342.000000,28266.000000
25253.000000,41391.000000,19317.000000,28213.000000
25233.000000,41370.000000,19286.000000,28161.000000
25224.000000,41376.000000,19280.000000,28149.000000
25210.000000,41387.000000,19277.000000,28159.000000
25183.000000,41376.000000,19249.000000,28148.000000
25167.000000,41358.000000,19217.000000,28131.000000
25168.000000,41358.000000,19206.000000,28139.000000
25165.000000,41357.000000,19195.000000,28136.000000
25147.000000,41332.000000,19155.000000,28089.000000
25125.000000,41298.000000,19106.000000,28037.000000
25103.000000,41275.000000,19072.000000,28009.000000
25066.000000,41243.000000,19027.000000,27978.000000
25011.000000,41188.000000,18954.000000,27930.000000
24963.000000,41139.000000,18887.000000,27900.000000
24926.000000,41115.000000,18850.000000,27908.000000
24882.000000,41088.000000,18810.000000,27904.000000
24837.000000,41046.000000,18751.000000,27857.000000
24808.000000,41018.000000,18699.000000,27806.000000
24786.000000,41013.000000,18663.000000,27775.000000
24748.000000,41000.000000,18615.000000,27732.000000
24699.000000,40966.000000,18543.000000,27661.000000
24663.000000,40939.000000,18479.000000,27594.000000
24637.000000,40925.000000,18432.000000,27541.000000
24594.000000,40895.000000,18370.000000,27465.000000
24535.000000,40838.000000,18282.000000,27355.000000
24477.000000,40785.000000,18201.000000,27256.000000
24412.000000,40742.000000,18133.000000,27177.000000
24326.000000,40683.000000,18048.000000,27082.000000
24229.000000,40603.000000,17942.000000,26980.000000
24143.000000,40535.000000,17847.000000,26918.000000
24062.000000,40484.000000,17766.000000,26888.000000
23970.000000,40420.000000,17672.000000,26837.000000
23879.000000,40346.000000,17572.000000,26763.000000
23810.000000,40292.000000,17494.000000,26707.000000
23752.000000,40252.000000,17429.000000,26664.000000
23686.000000,40197.000000,17343.000000,26595.000000
23628.000000,40138.000000,17247.000000,26520.000000
23594.000000,40110.000000,17178.000000,26486.000000
23570.000000,40104.000000,17127.000000,26470.000000
23537.000000,40085.000000,17058.000000,26420.000000
23512.000000,40060.000000,16984.000000,26346.000000
23504.000000,40053.000000,16934.000000,26293.000000
23489.000000,40047.000000,16886.000000,26247.000000
23454.000000,40017.000000,16811.000000,26166.000000
23418.000000,39979.000000,16725.000000,26080.000000
23395.000000,39959.000000,16661.000000,26032.000000
23367.000000,39944.000000,16606.000000,25992.000000
23323.000000,39910.000000,16532.000000,25921.000000
23280.000000,39874.000000,16458.000000,25845.000000
23251.000000,39862.000000,16412.000000,25793.000000
23219.000000,39852.000000,16370.000000,25729.000000
23177.000000,39823.000000,16308.000000,25629.000000
23141.000000,39799.000000,16250.000000,25545.000000
23115.000000,39796.000000,16212.000000,25507.000000
23090.000000,39791.000000,16172.000000,25472.000000
23071.000000,39772.000000,16119.000000,25422.000000
23076.000000,39768.000000,16087.000000,25394.000000
23102.000000,39795.000000,16098.000000,25401.000000
23127.000000,39825.000000,16121.000000,25406.000000
23152.000000,39844.000000,16147.000000,25402.000000
23197.000000,39876.000000,16210.000000,25443.000000
23262.000000,39929.000000,16315.000000,25546.000000
23337.000000,39982.000000,16433.000000,25663.000000
23428.000000,40034.000000,16561.000000,25782.000000
23552.000000,40114.000000,16727.000000,25945.000000
23701.000000,40227.000000,16938.000000,26156.000000
23853.000000,40343.000000,17159.000000,26366.000000
24008.000000,40453.000000,17385.000000,26569.000000
24177.000000,40580.000000,17643.000000,26814.000000
24354.000000,40726.000000,17926.000000,27095.000000
24522.000000,40862.000000,18196.000000,27359.000000
24687.000000,40987.000000,18452.000000,27605.000000
24864.000000,41130.000000,18725.000000,27870.000000
25042.000000,41286.000000,19003.000000,28130.000000
25199.000000,41419.000000,19242.000000,28336.000000
25343.000000,41531.000000,19450.000000,28499.000000
25484.000000,41648.000000,19657.000000,28665.000000
25606.000000,41757.000000,19846.000000,28833.000000
25699.000000,41832.000000,19986.000000,28963.000000
25783.000000,41886.000000,20095.000000,29064.000000
25871.000000,41950.000000,20209.000000,29176.000000
25946.000000,42012.000000,20315.000000,29273.000000
25997.000000,42048.000000,20384.000000,29319.000000
26036.000000,42067.000000,20427.000000,29354.000000
26076.000000,42094.000000,20475.000000,29422.000000
26102.000000,42117.000000,20512.000000,29492.000000
26109.000000,42113.000000,20516.000000,29523.000000
26118.000000,42101.000000,20511.000000,29535.000000
26137.000000,42106.000000,20523.000000,29565.000000
26144.000000,42108.000000,20529.000000,29584.000000
26136.000000,42091.000000,20510.000000,29555.000000
26127.000000,42076.000000,20487.000000,29525.000000
26118.000000,42076.000000,20476.000000,29523.000000
26101.000000,42070.000000,20454.000000,29513.000000
26079.000000,42042.000000,20405.000000,29480.000000
26072.000000,42023.000000,20366.000000,29460.000000
26076.000000,42029.000000,20357.000000,29465.000000
26067.000000,42028.000000,20344.000000,29451.000000
26046.000000,42006.000000,20306.000000,29398.000000
26034.000000,41984.000000,20269.000000,29353.000000
26021.000000,41972.000000,20241.000000,29335.000000
25987.000000,41946.000000,20189.000000,29299.000000
25944.000000,41901.000000,20107.000000,29232.000000
25914.000000,41865.000000,20035.000000,29171.000000
25888.000000,41848.000000,19984.000000,29127.000000
25844.000000,41816.000000,19920.000000,29058.000000
25787.000000,41761.000000,19839.000000,28964.000000
25734.000000,41714.000000,19773.000000,28892.000000
25683.000000,41680.000000,19720.000000,28845.000000
25622.000000,41633.000000,19646.000000,28783.000000
25561.000000,41576.000000,19557.000000,28714.000000
25522.000000,41540.000000,19492.000000,28678.000000
25495.000000,41527.000000,19449.000000,28659.000000
25465.000000,41508.000000,19401.000000,28607.000000
25442.000000,41489.000000,19354.000000,28532.000000
25440.000000,41491.000000,19336.000000,28487.000000
25440.000000,41504.000000,19331.000000,28466.000000
25426.000000,41498.000000,19309.000000,28432.000000
25413.000000,41483.000000,19279.000000,28400.000000
25422.000000,41492.000000,19274.000000,28406.000000
25438.000000,41513.000000,19282.000000,28424.000000
25443.000000,41513.000000,19274.000000,28409.000000
25448.000000,41503.000000,19262.000000,28375.000000
25458.000000,41505.000000,19270.000000,28361.000000
25452.000000,41502.000000,19275.000000,28347.000000
25422.000000,41473.000000,19249.000000,28299.000000
25387.000000,41435.000000,19210.000000,28256.000000
25360.000000,41411.000000,19184.000000,28253.000000
25332.000000,41387.000000,19152.000000,28254.000000
25297.000000,41345.000000,19094.000000,28229.000000
25273.000000,41309.000000,19041.000000,28200.000000
25264.000000,41302.000000,19017.000000,28183.000000
25251.000000,41300.000000,18991.000000,28145.000000
25237.000000,41289.000000,18946.000000,28076.000000
25235.000000,41292.000000,18909.000000,28024.000000
25238.000000,41316.000000,18892.000000,28007.000000
25227.000000,41330.000000,18863.000000,27987.000000
25212.000000,41323.000000,18811.000000,27950.000000
25209.000000,41320.000000,18767.000000,27926.000000
25213.000000,41331.000000,18745.000000,27918.000000
25202.000000,41332.000000,18713.000000,27888.000000
25180.000000,41315.000000,18661.000000,27830.000000
25162.000000,41300.000000,18618.000000,27782.000000
25140.000000,41292.000000,18588.000000,27752.000000
25104.000000,41265.000000,18542.000000,27702.000000
25069.000000,41224.000000,18474.000000,27634.000000
25053.000000,41200.000000,18418.000000,27586.000000
25052.000000,41201.000000,18384.000000,27551.000000
25051.000000,41207.000000,18345.000000,27481.000000
25058.000000,41220.000000,18298.000000,27377.000000
25086.000000,41260.000000,18269.000000,27279.000000
25125.000000,41319.000000,18253.000000,27187.000000
25156.000000,41362.000000,18214.000000,27079.000000
25180.000000,41389.000000,18154.000000,26975.000000
25212.000000,41423.000000,18111.000000,26912.000000
25236.000000,41457.000000,18079.000000,26873.000000
25241.000000,41467.000000,18029.000000,26812.000000
25240.000000,41460.000000,17973.000000,26734.000000
25243.000000,41463.000000,17943.000000,26678.000000
25232.000000,41464.000000,17920.000000,26636.000000
25198.000000,41434.000000,17868.000000,26572.000000
25156.000000,41389.000000,17800.000000,26511.000000
25125.000000,41363.000000,17750.000000,26488.000000
25097.000000,41348.000000,17708.000000,26469.000000
25068.000000,41324.000000,17644.000000,26410.000000
25055.000000,41306.000000,17577.000000,26326.000000
25061.000000,41320.000000,17538.000000,26251.000000
25066.000000,41344.000000,17506.000000,26177.000000
25066.000000,41354.000000,17457.000000,26083.000000
25077.000000,41370.000000,17412.000000,26005.000000
25097.000000,41407.000000,17388.000000,25962.000000
25117.000000,41443.000000,17362.000000,25918.000000
25135.000000,41463.000000,17323.000000,25854.000000
25164.000000,41487.000000,17303.000000,25808.000000
25201.000000,41527.000000,17319.000000,25792.000000
25226.000000,41555.000000,17340.000000,25773.000000
25247.000000,41562.000000,17356.000000,25745.000000
25289.000000,41580.000000,17398.000000,25759.000000
25346.000000,41621.000000,17481.000000,25845.000000
25402.000000,41661.000000,17581.000000,25955.000000
25468.000000,41694.000000,17692.000000,26072.000000
25572.000000,41754.000000,17847.000000,26234.000000
25711.000000,41851.000000,18059.000000,26447.000000
25862.000000,41960.000000,18295.000000,26661.000000
26028.000000,42073.000000,18550.000000,26867.000000
26223.000000,42213.000000,18846.000000,27114.000000
26438.000000,42380.000000,19182.000000,27411.000000
26652.000000,42543.000000,19515.000000,27716.000000
26866.000000,42696.000000,19839.000000,28023.000000
27093.000000,42866.000000,20180.000000,28366.000000
27324.000000,43049.000000,20529.000000,28731.000000
27540.000000,43214.000000,20854.000000,29053.000000
27747.000000,43363.000000,21158.000000,29330.000000
27954.000000,43516.000000,21463.000000,29608.000000
28140.000000,43659.000000,21754.000000,29876.000000
28287.000000,43762.000000,21997.000000,30091.000000
28415.000000,43837.000000,22197.000000,30280.000000
28538.000000,43915.000000,22386.000000,30491.000000
28641.000000,43990.000000,22554.000000,30702.000000
28712.000000,44035.000000,22674.000000,30868.000000
28770.000000,44069.000000,22768.000000,31001.000000
28825.000000,44116.000000,22868.000000,31136.000000
28865.000000,44156.000000,22961.000000,31247.000000
28883.000000,44163.000000,23019.000000,31295.000000
28898.000000,44152.000000,23057.000000,31324.000000
28918.000000,44154.000000,23105.000000,31379.000000
28929.000000,44158.000000,23147.000000,31435.000000
28930.000000,44144.000000,23159.000000,31462.000000
28939.000000,44134.000000,23171.000000,31481.000000
28963.000000,44147.000000,23209.000000,31520.000000
28982.000000,44163.000000,23246.000000,31543.000000
28990.000000,44161.000000,23259.000000,31526.000000
28999.000000,44159.000000,23270.000000,31519.000000
29007.000000,44169.000000,23293.000000,31546.000000
28998.000000,44167.000000,23299.000000,31572.000000
28978.000000,44142.000000,23277.000000,31586.000000
28968.000000,44122.000000,23263.000000,31616.000000
28962.000000,44118.000000,23268.000000,31663.000000
28940.000000,44106.000000,23260.000000,31682.000000
28909.000000,44074.000000,23228.000000,31656.000000
28888.000000,44047.000000,23198.000000,31625.000000
28865.000000,44035.000000,23178.000000,31601.000000
28822.000000,44008.000000,23138.000000,31555.000000
28768.000000,43959.000000,23070.000000,31492.000000
28725.000000,43919.000000,23008.000000,31453.000000
28686.000000,43895.000000,22956.000000,31438.000000
28633.000000,43857.000000,22886.000000,31402.000000
28576.000000,43804.000000,22800.000000,31335.000000
28528.000000,43760.000000,22731.000000,31275.000000
28478.000000,43723.000000,22677.000000,31226.000000
28412.000000,43667.000000,22604.000000,31148.000000
28343.000000,43597.000000,22516.000000,31058.000000
28287.000000,43542.000000,22446.000000,31009.000000
28230.000000,43500.000000,22388.000000,30984.000000
28169.000000,43449.000000,22314.000000,30933.000000
28120.000000,43400.000000,22239.000000,30867.000000
28097.000000,43379.000000,22195.000000,30826.000000
28079.000000,43374.000000,22172.000000,30789.000000
28045.000000,43350.000000,22137.000000,30719.000000
28011.000000,43315.000000,22097.000000,30651.000000
27992.000000,43299.000000,22080.000000,30634.000000
27973.000000,43287.000000,22069.000000,30643.000000
27940.000000,43253.000000,22032.000000,30635.000000
27915.000000,43220.000000,21993.000000,30620.000000
27905.000000,43211.000000,21983.000000,30628.000000
27886.000000,43209.000000,21979.000000,30629.000000
27849.000000,43185.000000,21949.000000,30584.000000
27813.000000,43154.000000,21907.000000,30535.000000
27791.000000,43139.000000,21881.000000,30519.000000
27771.000000,43128.000000,21853.000000,30513.000000
27744.000000,43102.000000,21802.000000,30488.000000
27724.000000,43080.000000,21758.000000,30469.000000
27708.000000,43077.000000,21737.000000,30467.000000
27679.000000,43069.000000,21707.000000,30441.000000
27638.000000,43039.000000,21652.000000,30369.000000
27606.000000,43009.000000,21601.000000,30300.000000
27574.000000,42991.000000,21564.000000,30259.000000
27520.000000,42958.000000,21509.000000,30210.000000
27452.000000,42896.000000,21425.000000,30140.000000
27397.000000,42839.000000,21347.000000,30086.000000
27349.000000,42800.000000,21286.000000,30048.000000
27288.000000,42752.000000,21209.000000,29983.000000
27221.000000,42689.000000,21114.000000,29884.000000
27167.000000,42640.000000,21033.000000,29795.000000
27121.000000,42615.000000,20974.000000,29726.000000
27066.000000,42585.000000,20903.000000,29637.000000
27012.000000,42546.000000,20814.000000,29528.000000
26978.000000,42524.000000,20737.000000,29450.000000
26957.000000,42522.000000,20677.000000,29406.000000
26927.000000,42511.000000,20605.000000,29343.000000
26896.000000,42485.000000,20523.000000,29259.000000
26876.000000,42471.000000,20463.000000,29194.000000
26852.000000,42464.000000,20415.000000,29138.000000
26801.000000,42429.000000,20344.000000,29055.000000
26739.000000,42372.000000,20258.000000,28975.000000
26689.000000,42330.000000,20193.000000,28941.000000
26646.000000,42305.000000,20140.000000,28924.000000
26599.000000,42271.000000,20067.000000,28873.000000
26570.000000,42241.000000,19991.000000,28796.000000
26563.000000,42242.000000,19943.000000,28735.000000
26554.000000,42253.000000,19902.000000,28675.000000
26531.000000,42246.000000,19837.000000,28583.000000
26509.000000,42232.000000,19762.000000,28497.000000
26496.000000,42234.000000,19707.000000,28453.000000
26477.000000,42236.000000,19654.000000,28418.000000
26446.000000,42213.000000,19577.000000,28356.000000
26420.000000,42188.000000,19503.000000,28291.000000
26405.000000,42183.000000,19457.000000,28251.000000
26378.000000,42174.000000,19414.000000,28197.000000
26333.000000,42140.000000,19351.000000,28100.000000
26284.000000,42098.000000,19287.000000,28011.000000
26235.000000,42068.000000,19241.000000,27962.000000
26182.000000,42036.000000,19193.000000,27918.000000
26136.000000,41994.000000,19133.000000,27861.000000
26125.000000,41974.000000,19097.000000,27831.000000
26146.000000,41992.000000,19107.000000,27847.000000
26179.000000,42024.000000,19141.000000,27869.000000
26233.000000,42059.000000,19194.000000,27881.000000
26323.000000,42122.000000,19295.000000,27922.000000
26441.000000,42225.000000,19453.000000,28020.000000
26572.000000,42341.000000,19640.000000,28151.000000
26725.000000,42460.000000,19844.000000,28309.000000
26913.000000,42608.000000,20095.000000,28527.000000
27123.000000,42788.000000,20396.000000,28812.000000
27340.000000,42966.000000,20714.000000,29117.000000
27568.000000,43136.000000,21037.000000,29425.000000
27815.000000,43319.000000,21393.000000,29757.000000
28066.000000,43516.000000,21778.000000,30108.000000
28299.000000,43697.000000,22153.000000,30434.000000
28518.000000,43856.000000,22505.000000,30739.000000
28735.000000,44019.000000,22856.000000,31072.000000
28938.000000,44184.000000,23197.000000,31423.000000
29118.000000,44324.000000,23494.000000,31738.000000
29291.000000,44446.000000,23758.000000,32024.000000
29469.000000,44583.000000,24025.000000,32314.000000
29640.000000,44728.000000,24286.000000,32583.000000
29790.000000,44843.000000,24504.000000,32780.000000
29935.000000,44941.000000,24690.000000,32922.000000
30080.000000,45051.000000,24878.000000,33065.000000
30205.000000,45161.000000,25052.000000,33205.000000
30298.000000,45237.000000,25181.000000,33304.000000
30377.000000,45290.000000,25280.000000,33390.000000
30459.000000,45349.000000,25383.000000,33509.000000
30527.000000,45405.000000,25476.000000,33626.000000
30567.000000,45434.000000,25538.000000,33699.000000
30596.000000,45452.000000,25591.000000,33751.000000
30627.000000,45484.000000,25664.000000,33812.000000
30643.000000,45510.000000,25731.000000,33862.000000
30639.000000,45508.000000,25766.000000,33878.000000
30634.000000,45496.000000,25790.000000,33896.000000
30630.000000,45495.000000,25823.000000,33948.000000
30618.000000,45489.000000,25849.000000,33995.000000
30604.000000,45468.000000,25853.000000,34013.000000
30608.000000,45456.000000,25860.000000,34038.000000
30625.000000,45468.000000,25884.000000,34085.000000
30631.000000,45474.000000,25898.000000,34108.000000
30628.000000,45462.000000,25891.000000,34087.000000
30628.000000,45452.000000,25891.000000,34065.000000
30619.000000,45451.000000,25902.000000,34064.000000
30588.000000,45436.000000,25894.000000,34053.000000
30548.000000,45403.000000,25857.000000,34020.000000
30514.000000,45375.000000,25820.000000,33992.000000
30480.000000,45356.000000,25788.000000,33974.000000
30434.000000,45323.000000,25735.000000,33931.000000
30383.000000,45273.000000,25657.000000,33856.000000
30338.000000,45231.000000,25586.000000,33786.000000
30286.000000,45198.000000,25522.000000,33728.000000
30217.000000,45147.000000,25437.000000,33655.000000
30146.000000,45079.000000,25336.000000,33575.000000
30086.000000,45023.000000,25250.000000,33521.000000
30029.000000,44977.000000,25177.000000,33486.000000
29964.000000,44917.000000,25087.000000,33423.000000
29905.000000,44855.000000,24990.000000,33333.000000
29858.000000,44817.000000,24914.000000,33257.000000
29807.000000,44790.000000,24852.000000,33185.000000
29741.000000,44745.000000,24771.000000,33085.000000
29681.000000,44692.000000,24684.000000,32988.000000
29648.000000,44666.000000,24632.000000,32938.000000
29628.000000,44662.000000,24603.000000,32907.000000
29608.000000,44656.000000,24567.000000,32855.000000
29604.000000,44659.000000,24536.000000,32795.000000
29618.000000,44689.000000,24535.000000,32765.000000
29627.000000,44719.000000,24539.000000,32744.000000
29612.000000,44715.000000,24514.000000,32694.000000
29589.000000,44694.000000,24473.000000,32653.000000
29569.000000,44681.000000,24447.000000,32660.000000
29541.000000,44665.000000,24417.000000,32679.000000
29499.000000,44622.000000,24359.000000,32671.000000
29464.000000,44576.000000,24301.000000,32652.000000
29439.000000,44551.000000,24266.000000,32640.000000
29404.000000,44525.000000,24226.000000,32607.000000
29361.000000,44484.000000,24164.000000,32544.000000
29324.000000,44447.000000,24103.000000,32496.000000
29289.000000,44429.000000,24059.000000,32486.000000
29244.000000,44405.000000,24008.000000,32464.000000
29195.000000,44365.000000,23936.000000,32401.000000
29158.000000,44336.000000,23873.000000,32333.000000
29128.000000,44325.000000,23829.000000,32278.000000
29086.000000,44300.000000,23770.000000,32203.000000
29031.000000,44250.000000,23688.000000,32098.000000
28983.000000,44201.000000,23611.000000,32012.000000
28930.000000,44161.000000,23545.000000,31960.000000
28862.000000,44107.000000,23459.000000,31892.000000
28789.000000,44036.000000,23352.000000,31798.000000
28726.000000,43975.000000,23257.000000,31716.000000
28659.000000,43928.000000,23179.000000,31650.000000
28575.000000,43867.000000,23085.000000,31554.000000
28483.000000,43792.000000,22976.000000,31433.000000
28400.000000,43729.000000,22881.000000,31339.000000
28321.000000,43681.000000,22797.000000,31280.000000
28240.000000,43627.000000,22701.000000,31214.000000
28174.000000,43574.000000,22599.000000,31143.000000
28135.000000,43549.000000,22525.000000,31095.000000
28107.000000,43544.000000,22471.000000,31051.000000
28073.000000,43528.000000,22401.000000,30974.000000
28043.000000,43503.000000,22321.000000,30885.000000
28026.000000,43495.000000,22261.000000,30832.000000
28005.000000,43488.000000,22208.000000,30801.000000
27963.000000,43451.000000,22128.000000,30743.000000
27918.000000,43400.000000,22036.000000,30669.000000
27881.000000,43364.000000,21965.000000,30614.000000
27838.000000,43329.000000,21900.000000,30554.000000
27771.000000,43268.000000,21809.000000,30455.000000
27693.000000,43192.000000,21707.000000,30347.000000
27618.000000,43128.000000,21624.000000,30264.000000
27527.000000,43058.000000,21539.000000,30192.000000
27416.000000,42961.000000,21424.000000,30098.000000
27308.000000,42862.000000,21306.000000,30009.000000
27213.000000,42788.000000,21213.000000,29953.000000
27120.000000,42726.000000,21123.000000,29889.000000
27027.000000,42658.000000,21019.000000,29787.000000
26949.000000,42599.000000,20925.000000,29684.000000
26887.000000,42565.000000,20857.000000,29605.000000
26823.000000,42528.000000,20780.000000,29521.000000
26755.000000,42473.000000,20679.000000,29417.000000
26704.000000,42430.000000,20587.000000,29335.000000
26671.000000,42412.000000,20521.000000,29292.000000
26633.000000,42384.000000,20453.000000,29248.000000
26598.000000,42339.000000,20378.000000,29188.000000
26588.000000,42312.000000,20332.000000,29151.000000
26593.000000,42318.000000,20328.000000,29147.000000
26589.000000,42325.000000,20335.000000,29140.000000
26585.000000,42324.000000,20347.000000,29128.000000
26604.000000,42343.000000,20398.000000,29162.000000
26644.000000,42388.000000,20495.000000,29259.000000
26695.000000,42439.000000,20611.000000,29377.000000
26771.000000,42495.000000,20748.000000,29516.000000
26894.000000,42586.000000,20938.000000,29723.000000
27055.000000,42716.000000,21184.000000,29987.000000
27237.000000,42862.000000,21463.000000,30256.000000
27448.000000,43029.000000,21779.000000,30536.000000
27697.000000,43239.000000,22152.000000,30862.000000
27965.000000,43476.000000,22561.000000,31214.000000
28230.000000,43705.000000,22961.000000,31544.000000
28497.000000,43922.000000,23350.000000,31874.000000
28775.000000,44152.000000,23754.000000,32242.000000
29042.000000,44380.000000,24156.000000,32617.000000
29286.000000,44575.000000,24516.000000,32946.000000
29521.000000,44748.000000,24847.000000,33245.000000
29755.000000,44927.000000,25174.000000,33548.000000
29965.000000,45097.000000,25478.000000,33830.000000
30136.000000,45228.000000,25727.000000,34054.000000
30283.000000,45331.000000,25935.000000,34236.000000
30415.000000,45435.000000,26137.000000,34413.000000
30521.000000,45528.000000,26316.000000,34569.000000
30595.000000,45586.000000,26446.000000,34672.000000
30658.000000,45628.000000,26550.000000,34759.000000
30724.000000,45680.000000,26660.000000,34868.000000
30783.000000,45733.000000,26758.000000,34969.000000
30832.000000,45771.000000,26825.000000,35045.000000
30891.000000,45815.000000,26888.000000,35125.000000
30960.000000,45879.000000,26972.000000,35228.000000
31018.000000,45942.000000,27054.000000,35306.000000
31069.000000,45987.000000,27121.000000,35332.000000
31127.000000,46037.000000,27193.000000,35351.000000
31187.000000,46101.000000,27280.000000,35390.000000
31227.000000,46152.000000,27350.000000,35421.000000
31254.000000,46175.000000,27390.000000,35436.000000
31287.000000,46198.000000,27429.000000,35471.000000
31317.000000,46228.000000,27481.000000,35537.000000
31327.000000,46245.000000,27516.000000,35591.000000
31329.000000,46244.000000,27529.000000,35619.000000
31348.000000,46254.000000,27552.000000,35650.000000
31376.000000,46278.000000,27588.000000,35689.000000
31390.000000,46288.000000,27602.000000,35694.000000
31394.000000,46279.000000,27587.000000,35660.000000
31400.000000,46274.000000,27575.000000,35633.000000
31397.000000,46274.000000,27567.000000,35616.000000
31366.000000,46250.000000,27530.000000,35571.000000
31317.000000,46203.000000,27466.000000,35498.000000
31268.000000,46159.000000,27405.000000,35446.000000
31211.000000,46119.000000,27344.000000,35410.000000
31136.000000,46058.000000,27255.000000,35345.000000
31054.000000,45983.000000,27148.000000,35266.000000
30982.000000,45925.000000,27058.000000,35209.000000
30910.000000,45876.000000,26977.000000,35148.000000
30821.000000,45807.000000,26875.000000,35038.000000
30728.000000,45727.000000,26763.000000,34902.000000
30648.000000,45663.000000,26670.000000,34793.000000
30569.000000,45605.000000,26585.000000,34703.000000
30484.000000,45529.000000,26475.000000,34598.000000
30407.000000,45451.000000,26360.000000,34504.000000
30348.000000,45399.000000,26273.000000,34457.000000
30293.000000,45362.000000,26201.000000,34423.000000
30238.000000,45316.000000,26115.000000,34362.000000
30199.000000,45277.000000,26038.000000,34293.000000
30179.000000,45265.000000,25999.000000,34247.000000
30158.000000,45258.000000,25969.000000,34198.000000
30129.000000,45231.000000,25920.000000,34114.000000
30103.000000,45202.000000,25870.000000,34040.000000
30078.000000,45189.000000,25840.000000,34007.000000
30041.000000,45172.000000,25803.000000,33981.000000
29996.000000,45133.000000,25739.000000,33942.000000
29964.000000,45095.000000,25681.000000,33918.000000
29940.000000,45076.000000,25646.000000,33920.000000
29901.000000,45048.000000,25605.000000,33900.000000
29851.000000,45006.000000,25543.000000,33840.000000
29811.000000,44975.000000,25492.000000,33782.000000
29773.000000,44955.000000,25459.000000,33745.000000
29719.000000,44917.000000,25411.000000,33691.000000
29659.000000,44858.000000,25335.000000,33603.000000
29614.000000,44810.000000,25260.000000,33530.000000
29573.000000,44776.000000,25193.000000,33490.000000
29519.000000,44731.000000,25107.000000,33439.000000
29461.000000,44673.000000,25004.000000,33369.000000
29416.000000,44630.000000,24918.000000,33317.000000
29374.000000,44603.000000,24846.000000,33280.000000
29317.000000,44563.000000,24760.000000,33210.000000
29252.000000,44507.000000,24661.000000,33106.000000
29185.000000,44456.000000,24574.000000,33014.000000
29104.000000,44403.000000,24489.000000,32936.000000
29001.000000,44327.000000,24377.000000,32839.000000
28897.000000,44234.000000,24246.000000,32736.000000
28806.000000,44158.000000,24134.000000,32664.000000
28716.000000,44092.000000,24034.000000,32599.000000
28619.000000,44013.000000,23921.000000,32497.000000
28533.000000,43936.000000,23808.000000,32375.000000
28467.000000,43887.000000,23723.000000,32277.000000
28405.000000,43854.000000,23647.000000,32182.000000
28333.000000,43804.000000,23544.000000,32052.000000
28260.000000,43743.000000,23426.000000,31923.000000
28194.000000,43696.000000,23327.000000,31838.000000
28124.000000,43651.000000,23230.000000,31775.000000
28046.000000,43584.000000,23106.000000,31691.000000
27976.000000,43513.000000,22983.000000,31596.000000
27920.000000,43463.000000,22890.000000,31526.000000
27857.000000,43416.000000,22805.000000,31453.000000
27779.000000,43350.000000,22700.000000,31342.000000
27704.000000,43280.000000,22595.000000,31230.000000
27638.000000,43232.000000,22514.000000,31143.000000
27564.000000,43183.000000,22433.000000,31049.000000
27481.000000,43113.000000,22328.000000,30938.000000
27409.000000,43046.000000,22225.000000,30857.000000
27347.000000,42997.000000,22142.000000,30823.000000
27281.000000,42946.000000,22054.000000,30784.000000
27219.000000,42888.000000,21953.000000,30713.000000
27176.000000,42850.000000,21872.000000,30642.000000
27141.000000,42838.000000,21815.000000,30581.000000
27090.000000,42819.000000,21747.000000,30492.000000
27032.000000,42783.000000,21663.000000,30373.000000
26989.000000,42754.000000,21589.000000,30276.000000
26951.000000,42737.000000,21528.000000,30208.000000
26895.000000,42701.000000,21451.000000,30127.000000
26830.000000,42643.000000,21354.000000,30033.000000
26773.000000,42588.000000,21266.000000,29965.000000
26715.000000,42541.000000,21191.000000,29926.000000
26638.000000,42475.000000,21097.000000,29874.000000
26555.000000,42391.000000,20985.000000,29807.000000
26484.000000,42322.000000,20892.000000,29759.000000
26421.000000,42275.000000,20822.000000,29725.000000
26352.000000,42224.000000,20741.000000,29655.000000
26289.000000,42169.000000,20654.000000,29552.000000
26247.000000,42139.000000,20594.000000,29468.000000
26210.000000,42122.000000,20549.000000,29407.000000
26163.000000,42089.000000,20484.000000,29330.000000
26122.000000,42053.000000,20408.000000,29256.000000
26104.000000,42046.000000,20363.000000,29230.000000
26100.000000,42062.000000,20347.000000,29242.000000
26101.000000,42075.000000,20339.000000,29253.000000
26133.000000,42095.000000,20365.000000,29281.000000
26204.000000,42153.000000,20456.000000,29365.000000
26298.000000,42235.000000,20597.000000,29480.000000
26405.000000,42316.000000,20758.000000,29600.000000
26538.000000,42410.000000,20954.000000,29753.000000
26705.000000,42543.000000,21211.000000,29970.000000
26886.000000,42699.000000,21508.000000,30229.000000
27072.000000,42851.000000,21815.000000,30502.000000
27287.000000,43019.000000,22153.000000,30811.000000
27532.000000,43222.000000,22541.000000,31181.000000
27789.000000,43439.000000,22952.000000,31566.000000
28053.000000,43648.000000,23358.000000,31933.000000
28335.000000,43867.000000,23777.000000,32307.000000
28633.000000,44114.000000,24217.000000,32698.000000
28918.000000,44358.000000,24634.000000,33054.000000
29187.000000,44583.000000,25009.000000,33349.000000
29454.000000,44801.000000,25367.000000,33628.000000
29705.000000,45015.000000,25717.000000,33910.000000
29915.000000,45197.000000,26024.000000,34160.000000
30092.000000,45339.000000,26273.000000,34374.000000
30257.000000,45470.000000,26496.000000,34596.000000
30409.000000,45598.000000,26712.000000,34827.000000
30534.000000,45699.000000,26892.000000,35014.000000
30640.000000,45766.000000,27031.000000,35145.000000
30736.000000,45824.000000,27159.000000,35265.000000
30814.000000,45880.000000,27284.000000,35381.000000
30861.000000,45911.000000,27377.000000,35456.000000
30887.000000,45920.000000,27441.000000,35499.000000
30914.000000,45937.000000,27509.000000,35555.000000
30938.000000,45968.000000,27585.000000,35627.000000
30954.000000,45989.000000,27637.000000,35676.000000
30974.000000,45997.000000,27667.000000,35710.000000
31011.000000,46022.000000,27711.000000,35767.000000
31052.000000,46062.000000,27768.000000,35833.000000
31085.000000,46088.000000,27807.000000,35864.000000
31123.000000,46110.000000,27836.000000,35869.000000
31170.000000,46152.000000,27886.000000,35893.000000
31202.000000,46196.000000,27937.000000,35932.000000
31206.000000,46210.000000,27954.000000,35947.000000
31197.000000,46201.000000,27947.000000,35958.000000
31189.000000,46195.000000,27950.000000,36004.000000
31166.000000,46182.000000,27946.000000,36057.000000
31116.000000,46133.000000,27902.000000,36067.000000
31055.000000,46067.000000,27842.000000,36046.000000
30993.000000,46010.000000,27795.000000,36033.000000
30910.000000,45944.000000,27739.000000,36003.000000
30797.000000,45845.000000,27647.000000,35921.000000
30671.000000,45729.000000,27536.000000,35827.000000
30543.000000,45624.000000,27430.000000,35755.000000
30398.000000,45507.000000,27306.000000,35673.000000
30232.000000,45361.000000,27144.000000,35557.000000
30070.000000,45217.000000,26975.000000,35447.000000
29922.000000,45100.000000,26823.000000,35377.000000
29783.000000,44995.000000,26671.000000,35307.000000
29664.000000,44891.000000,26513.000000,35209.000000
29583.000000,44816.000000,26381.000000,35109.000000
29537.000000,44785.000000,26289.000000,35015.000000
29502.000000,44768.000000,26208.000000,34898.000000
29480.000000,44752.000000,26127.000000,34756.000000
29487.000000,44755.000000,26068.000000,34640.000000
29507.000000,44784.000000,26035.000000,34571.000000
29516.000000,44809.000000,25999.000000,34509.000000
29523.000000,44825.000000,25953.000000,34442.000000
29549.000000,44855.000000,25927.000000,34406.000000
29583.000000,44902.000000,25926.000000,34397.000000
29605.000000,44931.000000,25916.000000,34370.000000
29619.000000,44938.000000,25888.000000,34319.000000
29636.000000,44952.000000,25874.000000,34281.000000
29647.000000,44979.000000,25878.000000,34252.000000
29639.000000,44989.000000,25863.000000,34194.000000
29624.000000,44980.000000,25828.000000,34116.000000
29621.000000,44981.000000,25809.000000,34070.000000
29619.000000,44988.000000,25798.000000,34058.000000
29602.000000,44972.000000,25760.000000,34036.000000
29583.000000,44942.000000,25705.000000,34004.000000
29576.000000,44932.000000,25673.000000,33994.000000
29566.000000,44937.000000,25653.000000,33990.000000
29544.000000,44926.000000,25612.000000,33949.000000
29525.000000,44905.000000,25561.000000,33880.000000
29516.000000,44898.000000,25529.000000,33826.000000
29492.000000,44889.000000,25495.000000,33777.000000
29440.000000,44853.000000,25428.000000,33695.000000
29381.000000,44808.000000,25342.000000,33612.000000
29332.000000,44783.000000,25266.000000,33565.000000
29284.000000,44760.000000,25187.000000,33523.000000
29232.000000,44717.000000,25084.000000,33453.000000
29192.000000,44677.000000,24986.000000,33371.000000
29168.000000,44666.000000,24919.000000,33305.000000
29144.000000,44664.000000,24858.000000,33225.000000
29119.000000,44649.000000,24781.000000,33097.000000
29103.000000,44640.000000,24709.000000,32968.000000
29096.000000,44654.000000,24656.000000,32877.000000
29086.000000,44671.000000,24597.000000,32796.000000
29077.000000,44670.000000,24517.000000,32709.000000
29082.000000,44670.000000,24444.000000,32641.000000
29091.000000,44683.000000,24393.000000,32604.000000
29078.000000,44681.000000,24338.000000,32554.000000
29049.000000,44654.000000,24262.000000,32469.000000
29021.000000,44623.000000,24194.000000,32395.000000
28985.000000,44600.000000,24146.000000,32343.000000
28923.000000,44558.000000,24081.000000,32273.000000
28843.000000,44488.000000,23988.000000,32179.000000
28772.000000,44418.000000,23899.000000,32104.000000
28711.000000,44364.000000,23821.000000,32061.000000
28643.000000,44304.000000,23725.000000,32003.000000
28574.000000,44236.000000,23612.000000,31912.000000
28523.000000,44187.000000,23518.000000,31831.000000
28485.000000,44159.000000,23446.000000,31770.000000
28440.000000,44127.000000,23366.000000,31683.000000
28393.000000,44087.000000,23276.000000,31568.000000
28355.000000,44063.000000,23208.000000,31481.000000
28314.000000,44048.000000,23156.000000,31417.000000
28257.000000,44014.000000,23085.000000,31336.000000
28202.000000,43968.000000,22999.000000,31254.000000
28166.000000,43944.000000,22933.000000,31208.000000
28138.000000,43931.000000,22884.000000,31176.000000
28103.000000,43901.000000,22820.000000,31114.000000
28075.000000,43870.000000,22751.000000,31029.000000
28062.000000,43864.000000,22702.000000,30961.000000
28042.000000,43861.000000,22658.000000,30901.000000
27997.000000,43830.000000,22586.000000,30818.000000
27941.000000,43784.000000,22500.000000,30739.000000
27891.000000,43752.000000,22434.000000,30698.000000
27842.000000,43727.000000,22372.000000,30663.000000
27789.000000,43687.000000,22286.000000,30597.000000
27752.000000,43650.000000,22199.000000,30516.000000
27734.000000,43638.000000,22142.000000,30454.000000
27708.000000,43628.000000,22093.000000,30385.000000
27668.000000,43596.000000,22023.000000,30281.000000
27629.000000,43559.000000,21949.000000,30176.000000
27596.000000,43540.000000,21895.000000,30098.000000
27551.000000,43515.000000,21831.000000,30018.000000
27496.000000,43465.000000,21736.000000,29925.000000
27452.000000,43418.000000,21648.000000,29857.000000
27415.000000,43391.000000,21583.000000,29829.000000
27365.000000,43356.000000,21511.000000,29788.000000
27308.000000,43298.000000,21417.000000,29710.000000
27264.000000,43250.000000,21335.000000,29643.000000
27230.000000,43228.000000,21281.000000,29603.000000
27185.000000,43205.000000,21224.000000,29553.000000
27136.000000,43171.000000,21154.000000,29477.000000
27103.000000,43148.000000,21104.000000,29418.000000
27084.000000,43145.000000,21085.000000,29398.000000
27069.000000,43143.000000,21076.000000,29387.000000
27072.000000,43142.000000,21075.000000,29385.000000
27114.000000,43173.000000,21118.000000,29436.000000
27188.000000,43239.000000,21213.000000,29544.000000
27278.000000,43317.000000,21339.000000,29669.000000
27397.000000,43407.000000,21500.000000,29812.000000
27560.000000,43538.000000,21730.000000,30010.000000
27757.000000,43708.000000,22023.000000,30254.000000
27971.000000,43885.000000,22342.000000,30503.000000
28207.000000,44068.000000,22686.000000,30769.000000
28473.000000,44280.000000,23086.000000,31100.000000
28753.000000,44514.000000,23523.000000,31488.000000
29029.000000,44735.000000,23946.000000,31883.000000
29314.000000,44947.000000,24364.000000,32293.000000
29618.000000,45181.000000,24809.000000,32748.000000
29923.000000,45424.000000,25262.000000,33205.000000
30210.000000,45645.000000,25682.000000,33597.000000
30489.000000,45854.000000,26076.000000,33936.000000
30766.000000,46073.000000,26465.000000,34271.000000
31019.000000,46285.000000,26833.000000,34581.000000
31233.000000,46462.000000,27150.000000,34827.000000
31427.000000,46613.000000,27430.000000,35044.000000
31607.000000,46762.000000,27700.000000,35273.000000
31756.000000,46895.000000,27938.000000,35489.000000
31870.000000,46990.000000,28122.000000,35661.000000
31973.000000,47067.000000,28278.000000,35816.000000
32068.000000,47145.000000,28426.000000,35981.000000
32144.000000,47207.000000,28546.000000,36126.000000
32201.000000,47241.000000,28624.000000,36231.000000
32256.000000,47273.000000,28696.000000,36322.000000
32310.000000,47320.000000,28787.000000,36417.000000
32348.000000,47356.000000,28866.000000,36477.000000
32380.000000,47372.000000,28920.000000,36486.000000
32426.000000,47399.000000,28980.000000,36501.000000
32478.000000,47447.000000,29056.000000,36542.000000
32510.000000,47487.000000,29113.000000,36576.000000
32529.000000,47509.000000,29142.000000,36594.000000
32562.000000,47542.000000,29181.000000,36634.000000
32604.000000,47592.000000,29236.000000,36701.000000
32636.000000,47630.000000,29274.000000,36744.000000
32663.000000,47647.000000,29292.000000,36752.000000
32697.000000,47673.000000,29321.000000,36769.000000
32723.000000,47707.000000,29361.000000,36795.000000
32727.000000,47719.000000,29378.000000,36786.000000
32721.000000,47708.000000,29374.000000,36741.000000
32717.000000,47701.000000,29371.000000,36707.000000
32699.000000,47694.000000,29364.000000,36688.000000
32654.000000,47661.000000,29320.000000,36643.000000
32597.000000,47607.000000,29246.000000,36583.000000
32545.000000,47563.000000,29176.000000,36553.000000
32490.000000,47524.000000,29107.000000,36537.000000
32420.000000,47462.000000,29009.000000,36489.000000
32357.000000,47393.000000,28896.000000,36416.000000
32318.000000,47353.000000,28809.000000,36355.000000
32284.000000,47329.000000,28738.000000,36289.000000
32238.000000,47289.000000,28649.000000,36184.000000
32194.000000,47246.000000,28556.000000,36068.000000
32162.000000,47226.000000,28490.000000,35990.000000
32125.000000,47211.000000,28433.000000,35928.000000
32075.000000,47171.000000,28356.000000,35839.000000
32032.000000,47126.000000,28275.000000,35757.000000
32006.000000,47107.000000,28220.000000,35722.000000
31981.000000,47097.000000,28175.000000,35696.000000
31950.000000,47071.000000,28112.000000,35637.000000
31926.000000,47047.000000,28055.000000,35567.000000
31912.000000,47045.000000,28025.000000,35522.000000
31889.000000,47041.000000,27994.000000,35473.000000
31855.000000,47015.000000,27944.000000,35395.000000
31821.000000,46989.000000,27902.000000,35328.000000
31791.000000,46981.000000,27886.000000,35297.000000
31750.000000,46968.000000,27864.000000,35262.000000
31705.000000,46939.000000,27818.000000,35206.000000
31680.000000,46920.000000,27779.000000,35169.000000
31667.000000,46919.000000,27759.000000,35170.000000
31643.000000,46906.000000,27726.000000,35156.000000
31615.000000,46876.000000,27671.000000,35109.000000
31606.000000,46860.000000,27628.000000,35073.000000
31603.000000,46866.000000,27610.000000,35060.000000
31582.000000,46862.000000,27580.000000,35025.000000
31548.000000,46834.000000,27527.000000,34960.000000
31520.000000,46811.000000,27480.000000,34907.000000
31492.000000,46798.000000,27442.000000,34875.000000
31446.000000,46766.000000,27378.000000,34820.000000
31389.000000,46710.000000,27283.000000,34740.000000
31346.000000,46670.000000,27200.000000,34678.000000
31311.000000,46650.000000,27134.000000,34635.000000
31267.000000,46618.000000,27052.000000,34561.000000
31218.000000,46574.000000,26958.000000,34453.000000
31178.000000,46545.000000,26882.000000,34367.000000
31132.000000,46520.000000,26814.000000,34300.000000
31065.000000,46466.000000,26718.000000,34210.000000
30991.000000,46394.000000,26604.000000,34119.000000
30926.000000,46339.000000,26504.000000,34073.000000
30859.000000,46292.000000,26410.000000,34040.000000
30779.000000,46225.000000,26294.000000,33962.000000
30709.000000,46155.000000,26175.000000,33851.000000
30662.000000,46111.000000,26085.000000,33758.000000
30615.000000,46077.000000,26009.000000,33668.000000
30553.000000,46022.000000,25913.000000,33544.000000
30487.000000,45960.000000,25813.000000,33423.000000
30425.000000,45921.000000,25735.000000,33348.000000
30359.000000,45888.000000,25658.000000,33288.000000
30289.000000,45835.000000,25552.000000,33198.000000
30235.000000,45787.000000,25447.000000,33099.000000
30201.000000,45769.000000,25372.000000,33027.000000
30168.000000,45758.000000,25303.000000,32950.000000
30130.000000,45733.000000,25215.000000,32836.000000
30096.000000,45707.000000,25134.000000,32725.000000
30065.000000,45695.000000,25075.000000,32642.000000
30018.000000,45671.000000,25005.000000,32553.000000
29959.000000,45621.000000,24907.000000,32444.000000
29910.000000,45572.000000,24813.000000,32353.000000
29863.000000,45536.000000,24739.000000,32297.000000
29798.000000,45490.000000,24655.000000,32226.000000
29728.000000,45425.000000,24552.000000,32134.000000
29674.000000,45372.000000,24463.000000,32069.000000
29630.000000,45340.000000,24399.000000,32036.000000
29574.000000,45301.000000,24325.000000,31982.000000
29516.000000,45252.000000,24234.000000,31896.000000
29471.000000,45216.000000,24154.000000,31821.000000
29429.000000,45195.000000,24090.000000,31757.000000
29372.000000,45162.000000,24011.000000,31659.000000
29311.000000,45117.000000,23914.000000,31534.000000
29259.000000,45085.000000,23832.000000,31434.000000
29211.000000,45066.000000,23769.000000,31365.000000
29154.000000,45033.000000,23693.000000,31287.000000
29100.000000,44990.000000,23605.000000,31207.000000
29065.000000,44966.000000,23533.000000,31163.000000
29037.000000,44959.000000,23474.000000,31133.000000
29003.000000,44937.000000,23399.000000,31063.000000
28974.000000,44908.000000,23319.000000,30969.000000
28962.000000,44904.000000,23269.000000,30896.000000
28951.000000,44911.000000,23232.000000,30825.000000
28922.000000,44897.000000,23169.000000,30715.000000
28893.000000,44874.000000,23095.000000,30594.000000
28877.000000,44866.000000,23040.000000,30507.000000
28853.000000,44859.000000,22985.000000,30439.000000
28811.000000,44831.000000,22903.000000,30351.000000
28774.000000,44798.000000,22814.000000,30265.000000
28755.000000,44787.000000,22748.000000,30217.000000
28738.000000,44786.000000,22690.000000,30169.000000
28718.000000,44769.000000,22610.000000,30081.000000
28705.000000,44750.000000,22530.000000,29980.000000
28700.000000,44748.000000,22476.000000,29899.000000
28687.000000,44745.000000,22425.000000,29809.000000
28661.000000,44720.000000,22353.000000,29686.000000
28639.000000,44693.000000,22287.000000,29576.000000
28624.000000,44683.000000,22250.000000,29501.000000
28602.000000,44672.000000,22218.000000,29440.000000
28576.000000,44648.000000,22182.000000,29391.000000
28581.000000,44644.000000,22181.000000,29397.000000
28619.000000,44678.000000,22237.000000,29477.000000
28673.000000,44725.000000,22325.000000,29584.000000
28755.000000,44782.000000,22438.000000,29699.000000
28889.000000,44879.000000,22615.000000,29860.000000
29070.000000,45028.000000,22866.000000,30080.000000
29271.000000,45197.000000,23160.000000,30317.000000
29496.000000,45373.000000,23486.000000,30567.000000
29758.000000,45579.000000,23863.000000,30872.000000
30045.000000,45817.000000,24283.000000,31234.000000
30334.000000,46056.000000,24709.000000,31603.000000
30628.000000,46290.000000,25132.000000,31968.000000
30932.000000,46533.000000,25570.000000,32365.000000
31227.000000,46777.000000,26011.000000,32785.000000
31496.000000,46992.000000,26423.000000,33178.000000
31753.000000,47179.000000,26803.000000,33542.000000
32010.000000,47368.000000,27175.000000,33914.000000
32251.000000,47555.000000,27537.000000,34268.000000
32453.000000,47705.000000,27853.000000,34547.000000
32623.000000,47822.000000,28123.000000,34762.000000
32778.000000,47935.000000,28379.000000,34977.000000
32911.000000,48036.000000,28609.000000,35188.000000
33011.000000,48097.000000,28781.000000,35352.000000
33095.000000,48133.000000,28911.000000,35496.000000
33180.000000,48179.000000,29040.000000,35659.000000
33252.000000,48229.000000,29155.000000,35814.000000
33300.000000,48251.000000,29225.000000,35912.000000
33341.000000,48259.000000,29271.000000,35969.000000
33385.000000,48280.000000,29324.000000,36033.000000
33412.000000,48296.000000,29370.000000,36082.000000
33415.000000,48284.000000,29388.000000,36080.000000
33409.000000,48260.000000,29393.000000,36064.000000
33401.000000,48247.000000,29415.000000,36074.000000
33381.000000,48229.000000,29433.000000,36090.000000
33347.000000,48187.000000,29419.000000,36085.000000
33319.000000,48149.000000,29404.000000,36088.000000
33299.000000,48139.000000,29413.000000,36124.000000
33274.000000,48136.000000,29420.000000,36158.000000
33244.000000,48120.000000,29403.000000,36170.000000
33233.000000,48116.000000,29392.000000,36190.000000
33242.000000,48139.000000,29406.000000,36228.000000
33246.000000,48159.000000,29409.000000,36231.000000
33247.000000,48165.000000,29389.000000,36181.000000
33265.000000,48183.000000,29377.000000,36130.000000
33290.000000,48222.000000,29377.000000,36096.000000
33292.000000,48243.000000,29354.000000,36033.000000
33273.000000,48235.000000,29301.000000,35936.000000
33258.000000,48231.000000,29251.000000,35864.000000
33242.000000,48239.000000,29207.000000,35827.000000
33212.000000,48232.000000,29138.000000,35777.000000
33175.000000,48205.000000,29047.000000,35704.000000
33149.000000,48183.000000,28967.000000,35648.000000
33123.000000,48174.000000,28900.000000,35604.000000
33081.000000,48146.000000,28814.000000,35530.000000
33030.000000,48096.000000,28713.000000,35431.000000
32988.000000,48056.000000,28636.000000,35347.000000
32947.000000,48028.000000,28584.000000,35273.000000
32893.000000,47988.000000,28518.000000,35165.000000
32839.000000,47942.000000,28441.000000,35035.000000
32802.000000,47922.000000,28388.000000,34944.000000
32773.000000,47919.000000,28348.000000,34890.000000
32741.000000,47903.000000,28286.000000,34816.000000
32718.000000,47882.000000,28213.000000,34735.000000
32721.000000,47890.000000,28167.000000,34691.000000
32735.000000,47918.000000,28139.000000,34657.000000
32741.000000,47937.000000,28094.000000,34581.000000
32758.000000,47959.000000,28046.000000,34481.000000
32796.000000,48008.000000,28023.000000,34397.000000
32830.000000,48063.000000,28003.000000,34312.000000
32847.000000,48093.000000,27953.000000,34186.000000
32863.000000,48112.000000,27886.000000,34057.000000
32881.000000,48146.000000,27831.000000,33969.000000
32886.000000,48176.000000,27772.000000,33892.000000
32874.000000,48171.000000,27686.000000,33792.000000
32863.000000,48149.000000,27602.000000,33691.000000
32852.000000,48134.000000,27540.000000,33616.000000
32818.000000,48105.000000,27474.000000,33528.000000
32766.000000,48044.000000,27387.000000,33401.000000
32711.000000,47974.000000,27303.000000,33286.000000
32649.000000,47912.000000,27234.000000,33212.000000
32569.000000,47836.000000,27149.000000,33143.000000
32480.000000,47740.000000,27033.000000,33060.000000
32404.000000,47656.000000,26925.000000,33003.000000
32338.000000,47597.000000,26838.000000,32976.000000
32263.000000,47534.000000,26741.000000,32920.000000
32188.000000,47459.000000,26626.000000,32820.000000
32127.000000,47398.000000,26530.000000,32730.000000
32066.000000,47358.000000,26460.000000,32664.000000
31989.000000,47308.000000,26376.000000,32576.000000
31904.000000,47235.000000,26269.000000,32462.000000
31832.000000,47170.000000,26175.000000,32369.000000
31763.000000,47119.000000,26099.000000,32300.000000
31681.000000,47052.000000,26002.000000,32216.000000
31592.000000,46960.000000,25881.000000,32119.000000
31513.000000,46874.000000,25774.000000,32059.000000
31436.000000,46804.000000,25681.000000,32026.000000
31344.000000,46723.000000,25569.000000,31960.000000
31252.000000,46633.000000,25446.000000,31866.000000
31174.000000,46563.000000,25347.000000,31789.000000
31095.000000,46503.000000,25256.000000,31707.000000
31001.000000,46422.000000,25141.000000,31583.000000
30909.000000,46336.000000,25014.000000,31449.000000
30835.000000,46277.000000,24910.000000,31352.000000
30766.000000,46236.000000,24814.000000,31275.000000
30694.000000,46184.000000,24697.000000,31170.000000
30643.000000,46138.000000,24578.000000,31055.000000
30618.000000,46122.000000,24491.000000,30970.000000
30593.000000,46118.000000,24423.000000,30885.000000
30553.000000,46094.000000,24340.000000,30761.000000
30511.000000,46059.000000,24254.000000,30634.000000
30471.000000,46036.000000,24189.000000,30545.000000
30409.000000,46005.000000,24123.000000,30476.000000
30324.000000,45939.000000,24030.000000,30392.000000
30245.000000,45870.000000,23934.000000,30315.000000
30183.000000,45827.000000,23860.000000,30274.000000
30120.000000,45790.000000,23790.000000,30227.000000
30059.000000,45740.000000,23703.000000,30144.000000
30010.000000,45693.000000,23621.000000,30054.000000
29970.000000,45665.000000,23561.000000,29973.000000
29915.000000,45630.000000,23491.000000,29876.000000
29851.000000,45575.000000,23396.000000,29759.000000
29803.000000,45530.000000,23309.000000,29670.000000
29767.000000,45508.000000,23244.000000,29629.000000
29724.000000,45477.000000,23165.000000,29577.000000
29682.000000,45428.000000,23064.000000,29488.000000
29657.000000,45392.000000,22977.000000,29402.000000
29633.000000,45375.000000,22916.000000,29337.000000
29582.000000,45341.000000,22842.000000,29247.000000
29509.000000,45277.000000,22740.000000,29128.000000
29435.000000,45215.000000,22644.000000,29039.000000
29355.000000,45163.000000,22566.000000,28989.000000
29254.000000,45091.000000,22469.000000,28930.000000
29148.000000,44995.000000,22349.000000,28849.000000
29060.000000,44910.000000,22245.000000,28784.000000
28983.000000,44840.000000,22161.000000,28735.000000
28895.000000,44759.000000,22063.000000,28654.000000
28811.000000,44675.000000,21959.000000,28545.000000
28751.000000,44625.000000,21886.000000,28464.000000
28704.000000,44600.000000,21834.000000,28410.000000
28652.000000,44566.000000,21764.000000,28336.000000
28607.000000,44529.000000,21686.000000,28257.000000
28590.000000,44523.000000,21639.000000,28227.000000
28590.000000,44542.000000,21617.000000,28233.000000
28598.000000,44559.000000,21593.000000,28226.000000
28635.000000,44590.000000,21597.000000,28218.000000
28714.000000,44662.000000,21667.000000,28260.000000
28814.000000,44759.000000,21785.000000,28337.000000
28923.000000,44852.000000,21922.000000,28413.000000
29056.000000,44950.000000,22093.000000,28526.000000
29221.000000,45083.000000,22328.000000,28722.000000
29403.000000,45240.000000,22609.000000,28976.000000
29598.000000,45393.000000,22903.000000,29243.000000
