660nm,730nm,850nm,940nm
20722.000000,42357.000000,45794.000000,24098.000000
20765.000000,42406.000000,45812.000000,24120.000000
20795.000000,42480.000000,45827.000000,24102.000000
20819.000000,42450.000000,45850.000000,24116.000000
20876.000000,42490.000000,45853.000000,24132.000000
20853.000000,42538.000000,45890.000000,24136.000000
20953.000000,42579.000000,45898.000000,24156.000000
20965.000000,42645.000000,45900.000000,24177.000000
20996.000000,42669.000000,45933.000000,24171.000000
21026.000000,42733.000000,45963.000000,24178.000000
21062.000000,42727.000000,46003.000000,24192.000000
21093.000000,42795.000000,46004.000000,24177.000000
21102.000000,42766.000000,46042.000000,24190.000000
21153.000000,42791.000000,46064.000000,24193.000000
21174.000000,42866.000000,46070.000000,24225.000000
21184.000000,42900.000000,46085.000000,24223.000000
21262.000000,42939.000000,46121.000000,24248.000000
21292.000000,42955.000000,46127.000000,24263.000000
21300.000000,42994.000000,46158.000000,24286.000000
21326.000000,43052.000000,46181.000000,24308.000000
21384.000000,43068.000000,46200.000000,24288.000000
21406.000000,43146.000000,46236.000000,24282.000000
21443.000000,43157.000000,46264.000000,24304.000000
21491.000000,43189.000000,46245.000000,24330.000000
21496.000000,43235.000000,46267.000000,24326.000000
21554.000000,43244.000000,46303.000000,24358.000000
21549.000000,43278.000000,46305.000000,24346.000000
21547.000000,43287.000000,46322.000000,24341.000000
21588.000000,43290.000000,46293.000000,24357.000000
21565.000000,43299.000000,46325.000000,24369.000000
21562.000000,43315.000000,46328.000000,24369.000000
21573.000000,43311.000000,46336.000000,24348.000000
21570.000000,43307.000000,46329.000000,24350.000000
21596.000000,43296.000000,46323.000000,24388.000000
21546.000000,43293.000000,46352.000000,24337.000000
21567.000000,43308.000000,46327.000000,24353.000000
21562.000000,43300.000000,46316.000000,24343.000000
21574.000000,43297.000000,46332.000000,24364.000000
21567.000000,43299.000000,46334.000000,24368.000000
21552.000000,43296.000000,46327.000000,24363.000000
21549.000000,43259.000000,46301.000000,24359.000000
21554.000000,43254.000000,46321.000000,24372.000000
21525.000000,43268.000000,46348.000000,24344.000000
21541.000000,43271.000000,46321.000000,24344.000000
21545.000000,43273.000000,46348.000000,24338.000000
21550.000000,43265.000000,46290.000000,24366.000000
21563.000000,43267.000000,46326.000000,24364.000000
21527.000000,43272.000000,46291.000000,24335.000000
21546.000000,43269.000000,46281.000000,24323.000000
21489.000000,43255.000000,46307.000000,24347.000000
21546.000000,43221.000000,46306.000000,24359.000000
21501.000000,43244.000000,46293.000000,24344.000000
21502.000000,43215.000000,46296.000000,24352.000000
21511.000000,43240.000000,46324.000000,24332.000000
21509.000000,43256.000000,46311.000000,24329.000000
21544.000000,43217.000000,46295.000000,24337.000000
21512.000000,43244.000000,46285.000000,24340.000000
21522.000000,43220.000000,46303.000000,24336.000000
21523.000000,43250.000000,46303.000000,24319.000000
21508.000000,43225.000000,46315.000000,24347.000000
21502.000000,43200.000000,46291.000000,24325.000000
21500.000000,43219.000000,46277.000000,24333.000000
21491.000000,43209.000000,46322.000000,24345.000000
21516.000000,43197.000000,46306.000000,24325.000000
21519.000000,43215.000000,46296.000000,24332.000000
21478.000000,43198.000000,46301.000000,24343.000000
21511.000000,43208.000000,46323.000000,24321.000000
21496.000000,43208.000000,46293.000000,24351.000000
21498.000000,43201.000000,46297.000000,24348.000000
21509.000000,43188.000000,46305.000000,24326.000000
21499.000000,43196.000000,46283.000000,24331.000000
21512.000000,43225.000000,46328.000000,24323.000000
21508.000000,43184.000000,46286.000000,24332.000000
21541.000000,43233.000000,46292.000000,24320.000000
21491.000000,43183.000000,46300.000000,24328.000000
21512.000000,43199.000000,46286.000000,24311.000000
21535.000000,43176.000000,46301.000000,24317.000000
21522.000000,43168.000000,46292.000000,24323.000000
21486.000000,43201.000000,46277.000000,24305.000000
21498.000000,43190.000000,46302.000000,24317.000000
21498.000000,43158.000000,46297.000000,24315.000000
21503.000000,43135.000000,46303.000000,24329.000000
21498.000000,43151.000000,46305.000000,24306.000000
21488.000000,43183.000000,46295.000000,24316.000000
21484.000000,43171.000000,46294.000000,24322.000000
21502.000000,43162.000000,46293.000000,24305.000000
21464.000000,43137.000000,46293.000000,24308.000000
21501.000000,43165.000000,46283.000000,24293.000000
21486.000000,43205.000000,46255.000000,24314.000000
21470.000000,43139.000000,46284.000000,24312.000000
21470.000000,43116.000000,46266.000000,24292.000000
21449.000000,43139.000000,46264.000000,24286.000000
21465.000000,43118.000000,46270.000000,24298.000000
21450.000000,43130.000000,46256.000000,24299.000000
21463.000000,43131.000000,46292.000000,24312.000000
21460.000000,43098.000000,46240.000000,24293.000000
21419.000000,43125.000000,46239.000000,24277.000000
21417.000000,43071.000000,46239.000000,24304.000000
21428.000000,43076.000000,46259.000000,24296.000000
21414.000000,43082.000000,46232.000000,24283.000000
21424.000000,43046.000000,46252.000000,24314.000000
21415.000000,43082.000000,46240.000000,24275.000000
21389.000000,43049.000000,46253.000000,24272.000000
21433.000000,43023.000000,46235.000000,24274.000000
21403.000000,43040.000000,46223.000000,24304.000000
21345.000000,42997.000000,46224.000000,24248.000000
21363.000000,42988.000000,46238.000000,24263.000000
21331.000000,43040.000000,46222.000000,24256.000000
21338.000000,42978.000000,46196.000000,24261.000000
21337.000000,42962.000000,46201.000000,24260.000000
21311.000000,42997.000000,46201.000000,24252.000000
21347.000000,42947.000000,46217.000000,24257.000000
21332.000000,42945.000000,46157.000000,24272.000000
21301.000000,42986.000000,46176.000000,24255.000000
21294.000000,42915.000000,46182.000000,24262.000000
21274.000000,42956.000000,46160.000000,24259.000000
21274.000000,42908.000000,46173.000000,24234.000000
21246.000000,42897.000000,46161.000000,24245.000000
21247.000000,42892.000000,46150.000000,24256.000000
21217.000000,42869.000000,46152.000000,24252.000000
21273.000000,42873.000000,46128.000000,24242.000000
21237.000000,42892.000000,46131.000000,24251.000000
21215.000000,42822.000000,46124.000000,24256.000000
21231.000000,42856.000000,46140.000000,24246.000000
21179.000000,42840.000000,46119.000000,24242.000000
21227.000000,42813.000000,46112.000000,24225.000000
21170.000000,42830.000000,46101.000000,24231.000000
21158.000000,42802.000000,46099.000000,24241.000000
21174.000000,42773.000000,46073.000000,24195.000000
21135.000000,42796.000000,46107.000000,24213.000000
21174.000000,42783.000000,46074.000000,24217.000000
21094.000000,42774.000000,46078.000000,24206.000000
21114.000000,42725.000000,46072.000000,24212.000000
21119.000000,42733.000000,46084.000000,24223.000000
21119.000000,42718.000000,46034.000000,24186.000000
21071.000000,42703.000000,46057.000000,24183.000000
21070.000000,42702.000000,46026.000000,24189.000000
21067.000000,42723.000000,46022.000000,24173.000000
21062.000000,42688.000000,45991.000000,24199.000000
21067.000000,42649.000000,45988.000000,24201.000000
21020.000000,42682.000000,46004.000000,24201.000000
21024.000000,42636.000000,45995.000000,24166.000000
21021.000000,42642.000000,46014.000000,24184.000000
20981.000000,42616.000000,45981.000000,24167.000000
20998.000000,42601.000000,45979.000000,24191.000000
20985.000000,42617.000000,45975.000000,24152.000000
20955.000000,42573.000000,45977.000000,24158.000000
20952.000000,42573.000000,45975.000000,24165.000000
20940.000000,42626.000000,45948.000000,24159.000000
20921.000000,42525.000000,45942.000000,24151.000000
20928.000000,42557.000000,45923.000000,24157.000000
20930.000000,42537.000000,45952.000000,24158.000000
20944.000000,42520.000000,45922.000000,24158.000000
20885.000000,42545.000000,45904.000000,24140.000000
20883.000000,42524.000000,45938.000000,24132.000000
20895.000000,42493.000000,45898.000000,24139.000000
20890.000000,42477.000000,45945.000000,24130.000000
20842.000000,42455.000000,45907.000000,24110.000000
20846.000000,42472.000000,45912.000000,24092.000000
20834.000000,42453.000000,45882.000000,24126.000000
20846.000000,42435.000000,45881.000000,24119.000000
20829.000000,42447.000000,45881.000000,24133.000000
20795.000000,42424.000000,45889.000000,24132.000000
20832.000000,42429.000000,45867.000000,24111.000000
20793.000000,42400.000000,45876.000000,24123.000000
20805.000000,42397.000000,45849.000000,24118.000000
20810.000000,42410.000000,45822.000000,24131.000000
20817.000000,42383.000000,45853.000000,24109.000000
20780.000000,42388.000000,45843.000000,24098.000000
20773.000000,42373.000000,45853.000000,24116.000000
20752.000000,42351.000000,45839.000000,24125.000000
20760.000000,42325.000000,45850.000000,24100.000000
20773.000000,42378.000000,45850.000000,24075.000000
20727.000000,42313.000000,45833.000000,24074.000000
20718.000000,42356.000000,45821.000000,24107.000000
20704.000000,42317.000000,45825.000000,24106.000000
20720.000000,42297.000000,45805.000000,24088.000000
20703.000000,42350.000000,45801.000000,24080.000000
20715.000000,42304.000000,45806.000000,24080.000000
20728.000000,42314.000000,45837.000000,24104.000000
20705.000000,42296.000000,45819.000000,24076.000000
20716.000000,42296.000000,45791.000000,24103.000000
20701.000000,42305.000000,45772.000000,24055.000000
20709.000000,42280.000000,45798.000000,24072.000000
20677.000000,42308.000000,45792.000000,24064.000000
20642.000000,42268.000000,45788.000000,24086.000000
20677.000000,42241.000000,45779.000000,24066.000000
20673.000000,42275.000000,45794.000000,24062.000000
20678.000000,42241.000000,45781.000000,24076.000000
20649.000000,42254.000000,45758.000000,24058.000000
20619.000000,42251.000000,45761.000000,24081.000000
20634.000000,42202.000000,45732.000000,24058.000000
20608.000000,42207.000000,45759.000000,24048.000000
20589.000000,42166.000000,45739.000000,24055.000000
20590.000000,42182.000000,45731.000000,24029.000000
20595.000000,42179.000000,45731.000000,24060.000000
20586.000000,42144.000000,45728.000000,24051.000000
20616.000000,42170.000000,45715.000000,24061.000000
20585.000000,42134.000000,45739.000000,24040.000000
20579.000000,42183.000000,45704.000000,24054.000000
20552.000000,42156.000000,45707.000000,24030.000000
20594.000000,42170.000000,45752.000000,24046.000000
20578.000000,42128.000000,45719.000000,24038.000000
20588.000000,42185.000000,45716.000000,24041.000000
20579.000000,42126.000000,45696.000000,24041.000000
20591.000000,42195.000000,45721.000000,24035.000000
20594.000000,42202.000000,45751.000000,24047.000000
20591.000000,42202.000000,45735.000000,24044.000000
20608.000000,42225.000000,45730.000000,24045.000000
20653.000000,42248.000000,45766.000000,24079.000000
20654.000000,42258.000000,45765.000000,24067.000000
20671.000000,42262.000000,45773.000000,24093.000000
20723.000000,42293.000000,45816.000000,24068.000000
20704.000000,42344.000000,45834.000000,24062.000000
20747.000000,42329.000000,45838.000000,24083.000000
20762.000000,42371.000000,45834.000000,24065.000000
20793.000000,42396.000000,45847.000000,24116.000000
20814.000000,42439.000000,45847.000000,24092.000000
20832.000000,42402.000000,45897.000000,24115.000000
20887.000000,42469.000000,45867.000000,24114.000000
20899.000000,42513.000000,45906.000000,24107.000000
20937.000000,42516.000000,45943.000000,24106.000000
20976.000000,42565.000000,45965.000000,24140.000000
21021.000000,42618.000000,45989.000000,24136.000000
21016.000000,42632.000000,46001.000000,24129.000000
21028.000000,42649.000000,46015.000000,24147.000000
21105.000000,42667.000000,46001.000000,24168.000000
21098.000000,42745.000000,46059.000000,24180.000000
21156.000000,42755.000000,46048.000000,24186.000000
21174.000000,42785.000000,46078.000000,24175.000000
21178.000000,42770.000000,46133.000000,24216.000000
21244.000000,42861.000000,46138.000000,24187.000000
21251.000000,42872.000000,46182.000000,24207.000000
21305.000000,42949.000000,46178.000000,24250.000000
21338.000000,42972.000000,46173.000000,24231.000000
21367.000000,42989.000000,46213.000000,24254.000000
21417.000000,43054.000000,46237.000000,24251.000000
21444.000000,43062.000000,46234.000000,24263.000000
21503.000000,43102.000000,46267.000000,24263.000000
21496.000000,43157.000000,46287.000000,24306.000000
21530.000000,43173.000000,46324.000000,24301.000000
21579.000000,43217.000000,46350.000000,24301.000000
21621.000000,43256.000000,46360.000000,24334.000000
21671.000000,43297.000000,46364.000000,24334.000000
21659.000000,43335.000000,46388.000000,24365.000000
21707.000000,43386.000000,46408.000000,24375.000000
21713.000000,43378.000000,46445.000000,24360.000000
21782.000000,43445.000000,46449.000000,24372.000000
21782.000000,43476.000000,46480.000000,24392.000000
21815.000000,43482.000000,46512.000000,24393.000000
21823.000000,43501.000000,46507.000000,24384.000000
21816.000000,43509.000000,46516.000000,24425.000000
21866.000000,43546.000000,46491.000000,24410.000000
21827.000000,43541.000000,46516.000000,24439.000000
21860.000000,43531.000000,46502.000000,24408.000000
21828.000000,43553.000000,46528.000000,24410.000000
21837.000000,43524.000000,46531.000000,24415.000000
21841.000000,43580.000000,46531.000000,24423.000000
21819.000000,43510.000000,46513.000000,24421.000000
21819.000000,43516.000000,46496.000000,24377.000000
21823.000000,43505.000000,46531.000000,24388.000000
21795.000000,43496.000000,46509.000000,24400.000000
21778.000000,43486.000000,46502.000000,24392.000000
21796.000000,43498.000000,46494.000000,24385.000000
21752.000000,43495.000000,46492.000000,24411.000000
21779.000000,43477.000000,46478.000000,24399.000000
21788.000000,43504.000000,46478.000000,24399.000000
21783.000000,43474.000000,46505.000000,24407.000000
21780.000000,43480.000000,46476.000000,24390.000000
21776.000000,43467.000000,46486.000000,24367.000000
21764.000000,43462.000000,46482.000000,24389.000000
21756.000000,43452.000000,46476.000000,24408.000000
21769.000000,43421.000000,46431.000000,24371.000000
21762.000000,43423.000000,46454.000000,24368.000000
21743.000000,43424.000000,46440.000000,24363.000000
21765.000000,43410.000000,46441.000000,24383.000000
21735.000000,43379.000000,46463.000000,24383.000000
21754.000000,43427.000000,46460.000000,24368.000000
21695.000000,43411.000000,46426.000000,24373.000000
21692.000000,43374.000000,46452.000000,24387.000000
21704.000000,43397.000000,46426.000000,24368.000000
21686.000000,43343.000000,46447.000000,24374.000000
21698.000000,43367.000000,46425.000000,24376.000000
21691.000000,43348.000000,46429.000000,24367.000000
21660.000000,43325.000000,46417.000000,24357.000000
21656.000000,43362.000000,46414.000000,24382.000000
21666.000000,43319.000000,46405.000000,24355.000000
21645.000000,43373.000000,46395.000000,24345.000000
21667.000000,43299.000000,46408.000000,24344.000000
21638.000000,43321.000000,46405.000000,24327.000000
21625.000000,43282.000000,46398.000000,24358.000000
21628.000000,43278.000000,46375.000000,24353.000000
21591.000000,43296.000000,46390.000000,24334.000000
21609.000000,43304.000000,46378.000000,24319.000000
21596.000000,43302.000000,46355.000000,24328.000000
21585.000000,43246.000000,46348.000000,24339.000000
21586.000000,43254.000000,46340.000000,24337.000000
21569.000000,43261.000000,46359.000000,24337.000000
21586.000000,43208.000000,46341.000000,24336.000000
21524.000000,43217.000000,46320.000000,24314.000000
21514.000000,43218.000000,46318.000000,24325.000000
21518.000000,43177.000000,46304.000000,24284.000000
21480.000000,43170.000000,46320.000000,24300.000000
21508.000000,43155.000000,46318.000000,24327.000000
21480.000000,43185.000000,46292.000000,24306.000000
21481.000000,43137.000000,46301.000000,24302.000000
21486.000000,43157.000000,46297.000000,24309.000000
21454.000000,43131.000000,46295.000000,24285.000000
21481.000000,43134.000000,46282.000000,24297.000000
21442.000000,43157.000000,46277.000000,24279.000000
21442.000000,43120.000000,46271.000000,24295.000000
21454.000000,43120.000000,46264.000000,24308.000000
21427.000000,43071.000000,46277.000000,24284.000000
21441.000000,43089.000000,46268.000000,24298.000000
21422.000000,43081.000000,46258.000000,24276.000000
21409.000000,43079.000000,46232.000000,24285.000000
21392.000000,43066.000000,46240.000000,24295.000000
21365.000000,43025.000000,46254.000000,24296.000000
21387.000000,43011.000000,46211.000000,24271.000000
21341.000000,43038.000000,46206.000000,24286.000000
21355.000000,43016.000000,46205.000000,24274.000000
21318.000000,43041.000000,46210.000000,24280.000000
21326.000000,42996.000000,46213.000000,24290.000000
21327.000000,42980.000000,46200.000000,24280.000000
21308.000000,42993.000000,46190.000000,24263.000000
21322.000000,42977.000000,46189.000000,24260.000000
21280.000000,42959.000000,46169.000000,24254.000000
21304.000000,42967.000000,46193.000000,24268.000000
21295.000000,42952.000000,46162.000000,24254.000000
21281.000000,42900.000000,46172.000000,24240.000000
21287.000000,42906.000000,46130.000000,24271.000000
21257.000000,42933.000000,46154.000000,24251.000000
21251.000000,42900.000000,46158.000000,24249.000000
21232.000000,42890.000000,46126.000000,24243.000000
21229.000000,42883.000000,46160.000000,24242.000000
21226.000000,42856.000000,46125.000000,24259.000000
21202.000000,42847.000000,46127.000000,24220.000000
21212.000000,42856.000000,46121.000000,24244.000000
21219.000000,42840.000000,46117.000000,24214.000000
21181.000000,42841.000000,46133.000000,24244.000000
21182.000000,42844.000000,46100.000000,24230.000000
21139.000000,42815.000000,46120.000000,24233.000000
21168.000000,42808.000000,46068.000000,24218.000000
21117.000000,42818.000000,46068.000000,24212.000000
21122.000000,42780.000000,46076.000000,24229.000000
21142.000000,42778.000000,46091.000000,24198.000000
21120.000000,42771.000000,46087.000000,24233.000000
21113.000000,42750.000000,46038.000000,24211.000000
21080.000000,42722.000000,46067.000000,24209.000000
21105.000000,42698.000000,46042.000000,24199.000000
21067.000000,42711.000000,46046.000000,24186.000000
21093.000000,42732.000000,46024.000000,24215.000000
21048.000000,42697.000000,46025.000000,24198.000000
21035.000000,42671.000000,46068.000000,24160.000000
21047.000000,42655.000000,45994.000000,24184.000000
21030.000000,42678.000000,46020.000000,24189.000000
21010.000000,42659.000000,46002.000000,24186.000000
21000.000000,42664.000000,45979.000000,24151.000000
20964.000000,42636.000000,45995.000000,24165.000000
21010.000000,42627.000000,45978.000000,24172.000000
20969.000000,42614.000000,45982.000000,24162.000000
20942.000000,42600.000000,45970.000000,24146.000000
20957.000000,42598.000000,45953.000000,24144.000000
20930.000000,42573.000000,45965.000000,24177.000000
20956.000000,42577.000000,45940.000000,24142.000000
20907.000000,42574.000000,45981.000000,24154.000000
20920.000000,42535.000000,45935.000000,24159.000000
20858.000000,42529.000000,45921.000000,24129.000000
20866.000000,42494.000000,45917.000000,24155.000000
20901.000000,42505.000000,45917.000000,24134.000000
20834.000000,42479.000000,45897.000000,24136.000000
20847.000000,42483.000000,45883.000000,24123.000000
20831.000000,42476.000000,45874.000000,24135.000000
20783.000000,42409.000000,45880.000000,24117.000000
20758.000000,42396.000000,45844.000000,24123.000000
20764.000000,42386.000000,45852.000000,24094.000000
20772.000000,42367.000000,45816.000000,24100.000000
20738.000000,42332.000000,45817.000000,24119.000000
20701.000000,42352.000000,45821.000000,24114.000000
20705.000000,42328.000000,45823.000000,24095.000000
20689.000000,42337.000000,45815.000000,24113.000000
20698.000000,42296.000000,45803.000000,24106.000000
20674.000000,42334.000000,45793.000000,24082.000000
20639.000000,42309.000000,45809.000000,24090.000000
20695.000000,42307.000000,45776.000000,24081.000000
20679.000000,42274.000000,45805.000000,24087.000000
20696.000000,42262.000000,45766.000000,24081.000000
20664.000000,42266.000000,45775.000000,24083.000000
20666.000000,42250.000000,45757.000000,24099.000000
20652.000000,42255.000000,45771.000000,24094.000000
20612.000000,42253.000000,45753.000000,24091.000000
20647.000000,42217.000000,45778.000000,24099.000000
20627.000000,42221.000000,45761.000000,24073.000000
20662.000000,42217.000000,45749.000000,24070.000000
20608.000000,42232.000000,45756.000000,24084.000000
20612.000000,42204.000000,45755.000000,24091.000000
20625.000000,42214.000000,45717.000000,24067.000000
20616.000000,42206.000000,45735.000000,24078.000000
20615.000000,42240.000000,45725.000000,24108.000000
20597.000000,42163.000000,45734.000000,24049.000000
20609.000000,42154.000000,45697.000000,24082.000000
20552.000000,42199.000000,45690.000000,24065.000000
20537.000000,42161.000000,45719.000000,24079.000000
20558.000000,42145.000000,45702.000000,24061.000000
20506.000000,42148.000000,45699.000000,24031.000000
20554.000000,42112.000000,45665.000000,24044.000000
20532.000000,42120.000000,45698.000000,24033.000000
20528.000000,42100.000000,45661.000000,24083.000000
20516.000000,42115.000000,45685.000000,24060.000000
20476.000000,42126.000000,45686.000000,24043.000000
20498.000000,42068.000000,45674.000000,24046.000000
20460.000000,42113.000000,45656.000000,24041.000000
20473.000000,42047.000000,45647.000000,23997.000000
20504.000000,42079.000000,45647.000000,24044.000000
20456.000000,42090.000000,45644.000000,24036.000000
20487.000000,42094.000000,45673.000000,24040.000000
20448.000000,42044.000000,45642.000000,24039.000000
20488.000000,42053.000000,45664.000000,24048.000000
20501.000000,42122.000000,45691.000000,24032.000000
20498.000000,42135.000000,45680.000000,24048.000000
20550.000000,42108.000000,45707.000000,24048.000000
20504.000000,42147.000000,45688.000000,24051.000000
20567.000000,42170.000000,45680.000000,24060.000000
20596.000000,42169.000000,45693.000000,24057.000000
20574.000000,42177.000000,45727.000000,24055.000000
20601.000000,42193.000000,45750.000000,24058.000000
20624.000000,42236.000000,45739.000000,24058.000000
20652.000000,42236.000000,45755.000000,24094.000000
20643.000000,42273.000000,45794.000000,24065.000000
20653.000000,42276.000000,45816.000000,24092.000000
20738.000000,42303.000000,45811.000000,24073.000000
20702.000000,42360.000000,45818.000000,24089.000000
20771.000000,42370.000000,45818.000000,24080.000000
20777.000000,42400.000000,45851.000000,24097.000000
20817.000000,42410.000000,45858.000000,24093.000000
20854.000000,42454.000000,45901.000000,24127.000000
20871.000000,42476.000000,45911.000000,24119.000000
20901.000000,42503.000000,45901.000000,24131.000000
20926.000000,42552.000000,45944.000000,24143.000000
20985.000000,42576.000000,45933.000000,24157.000000
20994.000000,42617.000000,45974.000000,24154.000000
21020.000000,42648.000000,46008.000000,24158.000000
21075.000000,42678.000000,46026.000000,24182.000000
21113.000000,42734.000000,46038.000000,24177.000000
21105.000000,42711.000000,46049.000000,24191.000000
21200.000000,42791.000000,46070.000000,24197.000000
21231.000000,42856.000000,46114.000000,24219.000000
21233.000000,42882.000000,46122.000000,24236.000000
21272.000000,42910.000000,46135.000000,24247.000000
21362.000000,43029.000000,46215.000000,24262.000000
21435.000000,43038.000000,46233.000000,24294.000000
21422.000000,43114.000000,46251.000000,24289.000000
21440.000000,43119.000000,46306.000000,24314.000000
21542.000000,43165.000000,46281.000000,24301.000000
21520.000000,43197.000000,46310.000000,24335.000000
21592.000000,43211.000000,46325.000000,24360.000000
21589.000000,43287.000000,46338.000000,24361.000000
21606.000000,43270.000000,46353.000000,24392.000000
21601.000000,43287.000000,46352.000000,24363.000000
21616.000000,43295.000000,46435.000000,24358.000000
21647.000000,43291.000000,46385.000000,24396.000000
21618.000000,43328.000000,46373.000000,24358.000000
21613.000000,43288.000000,46415.000000,24368.000000
21638.000000,43325.000000,46359.000000,24356.000000
21622.000000,43269.000000,46384.000000,24365.000000
21653.000000,43297.000000,46368.000000,24361.000000
21619.000000,43286.000000,46368.000000,24358.000000
21566.000000,43294.000000,46375.000000,24366.000000
21639.000000,43286.000000,46374.000000,24365.000000
21606.000000,43285.000000,46375.000000,24356.000000
21596.000000,43241.000000,46363.000000,24354.000000
21591.000000,43259.000000,46325.000000,24340.000000
21586.000000,43248.000000,46345.000000,24379.000000
21563.000000,43265.000000,46331.000000,24348.000000
21564.000000,43226.000000,46341.000000,24351.000000
21582.000000,43233.000000,46356.000000,24324.000000
21556.000000,43283.000000,46319.000000,24345.000000
21585.000000,43230.000000,46327.000000,24358.000000
21505.000000,43254.000000,46328.000000,24356.000000
21555.000000,43222.000000,46317.000000,24368.000000
21569.000000,43253.000000,46297.000000,24354.000000
21540.000000,43189.000000,46331.000000,24340.000000
21540.000000,43197.000000,46296.000000,24345.000000
21520.000000,43202.000000,46317.000000,24352.000000
21518.000000,43172.000000,46293.000000,24361.000000
21529.000000,43182.000000,46286.000000,24333.000000
21493.000000,43191.000000,46292.000000,24318.000000
21518.000000,43153.000000,46273.000000,24321.000000
21471.000000,43178.000000,46285.000000,24336.000000
21466.000000,43146.000000,46276.000000,24318.000000
21488.000000,43150.000000,46273.000000,24360.000000
21480.000000,43097.000000,46293.000000,24338.000000
21496.000000,43137.000000,46259.000000,24304.000000
21467.000000,43115.000000,46297.000000,24322.000000
21450.000000,43098.000000,46249.000000,24321.000000
21458.000000,43113.000000,46254.000000,24310.000000
21408.000000,43097.000000,46259.000000,24312.000000
21449.000000,43085.000000,46231.000000,24310.000000
21421.000000,43062.000000,46271.000000,24304.000000
21436.000000,43066.000000,46243.000000,24308.000000
21406.000000,43109.000000,46236.000000,24303.000000
21390.000000,43051.000000,46247.000000,24303.000000
21374.000000,43064.000000,46220.000000,24297.000000
21384.000000,43047.000000,46232.000000,24275.000000
21400.000000,43046.000000,46213.000000,24319.000000
21378.000000,43061.000000,46228.000000,24289.000000
21365.000000,43008.000000,46222.000000,24296.000000
21375.000000,43028.000000,46211.000000,24290.000000
21364.000000,43029.000000,46199.000000,24289.000000
21374.000000,42992.000000,46207.000000,24288.000000
21379.000000,43007.000000,46201.000000,24289.000000
21325.000000,42998.000000,46180.000000,24276.000000
21345.000000,42989.000000,46182.000000,24292.000000
21328.000000,43008.000000,46169.000000,24281.000000
21295.000000,42973.000000,46169.000000,24264.000000
21328.000000,43001.000000,46192.000000,24268.000000
21301.000000,42931.000000,46173.000000,24295.000000
21303.000000,42946.000000,46150.000000,24267.000000
21289.000000,42904.000000,46169.000000,24284.000000
21297.000000,42897.000000,46146.000000,24279.000000
21276.000000,42931.000000,46143.000000,24266.000000
21241.000000,42883.000000,46155.000000,24263.000000
21266.000000,42945.000000,46103.000000,24261.000000
21190.000000,42871.000000,46123.000000,24256.000000
21233.000000,42833.000000,46114.000000,24245.000000
21229.000000,42847.000000,46134.000000,24260.000000
21244.000000,42889.000000,46120.000000,24240.000000
21200.000000,42844.000000,46113.000000,24234.000000
21214.000000,42826.000000,46099.000000,24237.000000
21175.000000,42845.000000,46084.000000,24236.000000
21144.000000,42805.000000,46090.000000,24244.000000
21204.000000,42808.000000,46076.000000,24248.000000
21153.000000,42797.000000,46113.000000,24229.000000
21142.000000,42780.000000,46084.000000,24233.000000
21121.000000,42829.000000,46072.000000,24230.000000
21149.000000,42755.000000,46040.000000,24238.000000
21110.000000,42776.000000,46064.000000,24234.000000
21126.000000,42752.000000,46068.000000,24217.000000
21122.000000,42750.000000,46048.000000,24232.000000
21114.000000,42750.000000,46037.000000,24200.000000
21083.000000,42744.000000,46058.000000,24202.000000
21086.000000,42722.000000,46035.000000,24199.000000
21074.000000,42716.000000,46022.000000,24216.000000
21113.000000,42678.000000,46017.000000,24205.000000
21069.000000,42705.000000,46000.000000,24218.000000
21057.000000,42641.000000,46026.000000,24211.000000
21062.000000,42674.000000,46037.000000,24216.000000
21025.000000,42680.000000,46015.000000,24217.000000
21044.000000,42633.000000,45981.000000,24225.000000
21041.000000,42638.000000,45995.000000,24175.000000
20988.000000,42634.000000,45993.000000,24198.000000
20997.000000,42605.000000,45952.000000,24188.000000
20988.000000,42610.000000,45964.000000,24165.000000
20951.000000,42583.000000,46004.000000,24214.000000
20987.000000,42599.000000,45963.000000,24195.000000
20943.000000,42601.000000,45971.000000,24183.000000
20967.000000,42552.000000,45944.000000,24173.000000
20956.000000,42563.000000,45968.000000,24184.000000
20906.000000,42556.000000,45973.000000,24159.000000
20892.000000,42558.000000,45923.000000,24179.000000
20918.000000,42546.000000,45887.000000,24168.000000
20888.000000,42528.000000,45933.000000,24162.000000
20890.000000,42482.000000,45919.000000,24146.000000
20897.000000,42523.000000,45926.000000,24155.000000
20879.000000,42477.000000,45903.000000,24169.000000
20864.000000,42500.000000,45901.000000,24148.000000
20846.000000,42433.000000,45909.000000,24153.000000
20854.000000,42441.000000,45902.000000,24149.000000
20829.000000,42483.000000,45878.000000,24131.000000
20826.000000,42433.000000,45888.000000,24150.000000
20829.000000,42473.000000,45881.000000,24142.000000
20793.000000,42416.000000,45899.000000,24155.000000
20800.000000,42441.000000,45853.000000,24140.000000
20796.000000,42435.000000,45831.000000,24126.000000
20758.000000,42388.000000,45853.000000,24122.000000
20767.000000,42356.000000,45817.000000,24144.000000
20792.000000,42357.000000,45834.000000,24107.000000
20770.000000,42359.000000,45798.000000,24108.000000
20755.000000,42343.000000,45821.000000,24129.000000
20744.000000,42350.000000,45825.000000,24081.000000
20768.000000,42292.000000,45786.000000,24105.000000
20713.000000,42326.000000,45796.000000,24105.000000
20697.000000,42303.000000,45796.000000,24124.000000
20721.000000,42322.000000,45791.000000,24111.000000
20703.000000,42308.000000,45812.000000,24103.000000
20704.000000,42284.000000,45785.000000,24126.000000
20687.000000,42330.000000,45793.000000,24083.000000
20654.000000,42273.000000,45785.000000,24091.000000
20706.000000,42247.000000,45749.000000,24108.000000
20679.000000,42260.000000,45762.000000,24070.000000
20632.000000,42233.000000,45776.000000,24091.000000
20661.000000,42232.000000,45762.000000,24080.000000
20618.000000,42243.000000,45733.000000,24087.000000
20636.000000,42221.000000,45768.000000,24113.000000
20623.000000,42177.000000,45727.000000,24068.000000
20605.000000,42230.000000,45750.000000,24087.000000
20630.000000,42203.000000,45717.000000,24067.000000
20620.000000,42177.000000,45717.000000,24070.000000
20592.000000,42157.000000,45741.000000,24075.000000
20603.000000,42151.000000,45720.000000,24059.000000
20578.000000,42150.000000,45715.000000,24062.000000
20553.000000,42143.000000,45702.000000,24086.000000
20571.000000,42160.000000,45699.000000,24072.000000
20530.000000,42127.000000,45716.000000,24065.000000
20544.000000,42134.000000,45673.000000,24062.000000
20549.000000,42157.000000,45682.000000,24051.000000
20523.000000,42088.000000,45694.000000,24073.000000
20538.000000,42124.000000,45670.000000,24050.000000
20544.000000,42098.000000,45701.000000,24069.000000
20495.000000,42119.000000,45678.000000,24056.000000
20477.000000,42120.000000,45623.000000,24048.000000
20480.000000,42069.000000,45665.000000,24038.000000
20507.000000,42052.000000,45655.000000,24018.000000
20464.000000,42063.000000,45661.000000,24019.000000
20446.000000,42047.000000,45620.000000,24045.000000
20458.000000,42064.000000,45642.000000,24033.000000
20432.000000,42035.000000,45631.000000,24031.000000
20435.000000,41961.000000,45615.000000,24030.000000
20429.000000,41980.000000,45622.000000,24040.000000
20444.000000,41993.000000,45627.000000,24009.000000
20423.000000,41967.000000,45591.000000,24018.000000
20407.000000,41957.000000,45618.000000,24026.000000
20400.000000,41989.000000,45584.000000,24036.000000
20377.000000,41988.000000,45589.000000,23993.000000
20402.000000,41961.000000,45580.000000,24014.000000
20387.000000,41954.000000,45585.000000,23988.000000
20392.000000,41925.000000,45627.000000,23999.000000
20431.000000,41969.000000,45611.000000,24024.000000
20377.000000,41993.000000,45604.000000,24033.000000
20432.000000,42003.000000,45613.000000,24030.000000
20451.000000,41998.000000,45617.000000,24013.000000
20409.000000,41999.000000,45615.000000,24036.000000
20465.000000,42065.000000,45628.000000,23995.000000
20454.000000,42064.000000,45641.000000,24046.000000
20492.000000,42077.000000,45657.000000,24027.000000
20544.000000,42104.000000,45649.000000,24017.000000
20509.000000,42093.000000,45700.000000,24040.000000
20557.000000,42135.000000,45706.000000,24055.000000
20572.000000,42167.000000,45711.000000,24071.000000
20611.000000,42191.000000,45718.000000,24060.000000
20616.000000,42214.000000,45714.000000,24079.000000
20667.000000,42220.000000,45750.000000,24077.000000
20685.000000,42252.000000,45744.000000,24081.000000
20698.000000,42285.000000,45815.000000,24066.000000
20769.000000,42324.000000,45784.000000,24086.000000
20767.000000,42382.000000,45820.000000,24091.000000
20787.000000,42375.000000,45843.000000,24117.000000
20832.000000,42428.000000,45852.000000,24098.000000
20852.000000,42448.000000,45864.000000,24115.000000
20893.000000,42473.000000,45904.000000,24133.000000
20930.000000,42544.000000,45924.000000,24129.000000
20950.000000,42589.000000,45966.000000,24149.000000
21026.000000,42574.000000,45941.000000,24150.000000
21032.000000,42660.000000,45965.000000,24184.000000
21088.000000,42654.000000,46024.000000,24191.000000
21125.000000,42713.000000,46031.000000,24200.000000
21124.000000,42745.000000,46050.000000,24205.000000
21207.000000,42800.000000,46051.000000,24218.000000
21243.000000,42845.000000,46100.000000,24222.000000
21263.000000,42863.000000,46128.000000,24236.000000
21324.000000,42936.000000,46148.000000,24224.000000
21346.000000,42995.000000,46175.000000,24252.000000
21378.000000,43025.000000,46193.000000,24271.000000
21420.000000,43060.000000,46214.000000,24262.000000
21445.000000,43056.000000,46255.000000,24279.000000
21498.000000,43133.000000,46264.000000,24279.000000
21522.000000,43155.000000,46288.000000,24287.000000
21523.000000,43185.000000,46300.000000,24325.000000
21608.000000,43204.000000,46316.000000,24339.000000
21593.000000,43236.000000,46349.000000,24360.000000
21637.000000,43261.000000,46329.000000,24359.000000
21617.000000,43279.000000,46375.000000,24359.000000
21629.000000,43281.000000,46366.000000,24366.000000
21668.000000,43309.000000,46359.000000,24359.000000
21627.000000,43335.000000,46375.000000,24351.000000
21681.000000,43282.000000,46367.000000,24371.000000
21676.000000,43371.000000,46356.000000,24347.000000
21644.000000,43311.000000,46360.000000,24369.000000
21631.000000,43295.000000,46389.000000,24364.000000
21642.000000,43311.000000,46383.000000,24368.000000
21650.000000,43327.000000,46365.000000,24360.000000
21622.000000,43312.000000,46345.000000,24372.000000
21599.000000,43254.000000,46359.000000,24369.000000
21633.000000,43255.000000,46371.000000,24352.000000
21565.000000,43254.000000,46345.000000,24346.000000
21601.000000,43243.000000,46340.000000,24359.000000
21606.000000,43269.000000,46319.000000,24341.000000
21572.000000,43203.000000,46338.000000,24355.000000
21635.000000,43232.000000,46336.000000,24357.000000
21538.000000,43217.000000,46348.000000,24362.000000
21607.000000,43216.000000,46297.000000,24345.000000
21611.000000,43244.000000,46324.000000,24341.000000
21570.000000,43227.000000,46305.000000,24321.000000
21585.000000,43204.000000,46322.000000,24355.000000
21555.000000,43236.000000,46322.000000,24340.000000
21564.000000,43225.000000,46317.000000,24347.000000
21600.000000,43196.000000,46292.000000,24343.000000
21501.000000,43208.000000,46326.000000,24322.000000
21571.000000,43195.000000,46298.000000,24345.000000
21537.000000,43187.000000,46306.000000,24320.000000
21535.000000,43178.000000,46299.000000,24336.000000
21527.000000,43135.000000,46304.000000,24332.000000
21518.000000,43147.000000,46314.000000,24332.000000
21502.000000,43155.000000,46317.000000,24330.000000
21537.000000,43167.000000,46291.000000,24317.000000
21468.000000,43120.000000,46286.000000,24328.000000
21504.000000,43162.000000,46285.000000,24334.000000
21472.000000,43126.000000,46274.000000,24319.000000
21473.000000,43134.000000,46274.000000,24312.000000
21480.000000,43129.000000,46261.000000,24312.000000
21438.000000,43098.000000,46297.000000,24309.000000
21448.000000,43079.000000,46256.000000,24333.000000
21446.000000,43105.000000,46248.000000,24312.000000
21453.000000,43083.000000,46257.000000,24307.000000
21457.000000,43065.000000,46233.000000,24309.000000
21437.000000,43112.000000,46218.000000,24307.000000
21432.000000,43086.000000,46236.000000,24325.000000
21438.000000,43074.000000,46213.000000,24292.000000
21378.000000,43104.000000,46231.000000,24299.000000
21426.000000,43045.000000,46225.000000,24287.000000
21395.000000,43057.000000,46205.000000,24293.000000
21405.000000,43009.000000,46198.000000,24288.000000
21385.000000,43038.000000,46216.000000,24272.000000
21347.000000,43020.000000,46198.000000,24285.000000
21408.000000,42979.000000,46194.000000,24284.000000
21360.000000,43034.000000,46179.000000,24281.000000
21363.000000,42995.000000,46190.000000,24298.000000
21341.000000,43013.000000,46169.000000,24277.000000
21322.000000,42972.000000,46183.000000,24262.000000
21341.000000,42972.000000,46178.000000,24300.000000
21348.000000,42985.000000,46135.000000,24260.000000
21311.000000,42930.000000,46162.000000,24264.000000
21315.000000,42911.000000,46151.000000,24281.000000
21282.000000,42938.000000,46179.000000,24255.000000
21311.000000,42942.000000,46148.000000,24266.000000
21288.000000,42940.000000,46131.000000,24271.000000
21279.000000,42913.000000,46162.000000,24253.000000
21284.000000,42906.000000,46137.000000,24250.000000
21249.000000,42905.000000,46139.000000,24271.000000
21255.000000,42884.000000,46147.000000,24280.000000
21292.000000,42914.000000,46126.000000,24269.000000
21252.000000,42861.000000,46142.000000,24251.000000
21250.000000,42877.000000,46137.000000,24258.000000
21229.000000,42908.000000,46133.000000,24247.000000
21218.000000,42830.000000,46108.000000,24251.000000
21236.000000,42851.000000,46121.000000,24221.000000
21216.000000,42819.000000,46125.000000,24225.000000
21236.000000,42839.000000,46103.000000,24242.000000
21182.000000,42834.000000,46105.000000,24241.000000
21203.000000,42801.000000,46093.000000,24236.000000
21184.000000,42803.000000,46074.000000,24229.000000
21160.000000,42797.000000,46077.000000,24214.000000
21147.000000,42772.000000,46073.000000,24240.000000
21147.000000,42791.000000,46061.000000,24220.000000
21157.000000,42757.000000,46066.000000,24224.000000
21164.000000,42748.000000,46078.000000,24211.000000
21123.000000,42730.000000,46049.000000,24210.000000
21134.000000,42755.000000,46075.000000,24223.000000
21125.000000,42750.000000,46050.000000,24195.000000
21103.000000,42740.000000,46054.000000,24228.000000
21108.000000,42739.000000,46022.000000,24226.000000
21093.000000,42750.000000,46031.000000,24203.000000
21125.000000,42709.000000,46047.000000,24218.000000
21051.000000,42708.000000,46016.000000,24196.000000
21109.000000,42660.000000,45999.000000,24215.000000
21057.000000,42687.000000,46002.000000,24186.000000
21055.000000,42673.000000,46038.000000,24169.000000
21069.000000,42651.000000,45996.000000,24202.000000
21024.000000,42626.000000,45971.000000,24183.000000
21005.000000,42630.000000,45994.000000,24187.000000
21080.000000,42621.000000,45968.000000,24184.000000
21023.000000,42647.000000,45993.000000,24176.000000
21033.000000,42611.000000,45974.000000,24187.000000
20985.000000,42636.000000,45973.000000,24178.000000
20941.000000,42578.000000,45957.000000,24143.000000
21008.000000,42587.000000,45968.000000,24181.000000
20986.000000,42580.000000,45950.000000,24149.000000
20985.000000,42564.000000,45946.000000,24167.000000
20963.000000,42572.000000,45947.000000,24158.000000
20958.000000,42548.000000,45953.000000,24165.000000
20954.000000,42506.000000,45911.000000,24160.000000
20908.000000,42534.000000,45929.000000,24129.000000
20903.000000,42502.000000,45918.000000,24159.000000
20916.000000,42514.000000,45915.000000,24149.000000
20872.000000,42477.000000,45904.000000,24148.000000
20881.000000,42491.000000,45889.000000,24126.000000
20882.000000,42456.000000,45891.000000,24095.000000
20857.000000,42465.000000,45890.000000,24123.000000
20867.000000,42450.000000,45904.000000,24133.000000
20831.000000,42450.000000,45885.000000,24106.000000
20829.000000,42399.000000,45856.000000,24111.000000
20798.000000,42430.000000,45864.000000,24116.000000
20798.000000,42430.000000,45870.000000,24122.000000
20793.000000,42381.000000,45851.000000,24095.000000
20807.000000,42410.000000,45842.000000,24112.000000
20778.000000,42355.000000,45844.000000,24105.000000
20776.000000,42386.000000,45860.000000,24110.000000
20767.000000,42372.000000,45852.000000,24085.000000
20735.000000,42341.000000,45840.000000,24093.000000
20761.000000,42360.000000,45829.000000,24090.000000
20754.000000,42328.000000,45827.000000,24107.000000
20739.000000,42334.000000,45811.000000,24111.000000
20739.000000,42316.000000,45784.000000,24080.000000
20693.000000,42321.000000,45812.000000,24076.000000
20705.000000,42274.000000,45799.000000,24053.000000
20696.000000,42289.000000,45764.000000,24059.000000
20658.000000,42288.000000,45776.000000,24103.000000
20675.000000,42260.000000,45778.000000,24068.000000
20674.000000,42265.000000,45798.000000,24060.000000
20649.000000,42229.000000,45777.000000,24091.000000
20643.000000,42253.000000,45757.000000,24078.000000
20651.000000,42262.000000,45773.000000,24089.000000
20649.000000,42237.000000,45764.000000,24049.000000
20613.000000,42243.000000,45756.000000,24059.000000
20619.000000,42232.000000,45735.000000,24040.000000
20587.000000,42226.000000,45749.000000,24043.000000
20617.000000,42186.000000,45749.000000,24058.000000
20562.000000,42156.000000,45721.000000,24041.000000
20558.000000,42163.000000,45720.000000,24034.000000
20559.000000,42161.000000,45696.000000,24016.000000
20525.000000,42139.000000,45708.000000,24034.000000
20562.000000,42135.000000,45712.000000,24036.000000
20554.000000,42153.000000,45677.000000,24024.000000
20519.000000,42128.000000,45705.000000,24021.000000
20524.000000,42096.000000,45678.000000,24014.000000
20492.000000,42100.000000,45692.000000,24007.000000
20548.000000,42088.000000,45675.000000,24029.000000
20497.000000,42116.000000,45667.000000,24021.000000
20494.000000,42072.000000,45642.000000,24002.000000
20491.000000,42067.000000,45649.000000,23994.000000
20446.000000,42047.000000,45680.000000,23984.000000
20487.000000,42060.000000,45635.000000,24003.000000
20445.000000,42092.000000,45653.000000,24000.000000
20471.000000,42064.000000,45645.000000,24002.000000
20474.000000,42079.000000,45635.000000,24008.000000
20461.000000,42081.000000,45678.000000,24003.000000
20483.000000,42044.000000,45654.000000,23988.000000
20471.000000,42063.000000,45680.000000,23969.000000
20503.000000,42095.000000,45657.000000,24027.000000
20495.000000,42126.000000,45668.000000,24015.000000
20541.000000,42097.000000,45674.000000,24006.000000
20554.000000,42128.000000,45684.000000,24012.000000
20530.000000,42151.000000,45726.000000,24004.000000
20591.000000,42161.000000,45703.000000,24019.000000
20608.000000,42213.000000,45722.000000,24011.000000
20606.000000,42189.000000,45749.000000,24029.000000
20605.000000,42212.000000,45739.000000,24032.000000
20650.000000,42217.000000,45774.000000,24018.000000
20682.000000,42261.000000,45761.000000,24046.000000
20684.000000,42311.000000,45803.000000,24047.000000
20709.000000,42308.000000,45809.000000,24069.000000
20759.000000,42361.000000,45829.000000,24047.000000
20725.000000,42379.000000,45853.000000,24059.000000
20809.000000,42384.000000,45823.000000,24059.000000
20816.000000,42459.000000,45892.000000,24069.000000
20849.000000,42473.000000,45890.000000,24109.000000
20884.000000,42500.000000,45928.000000,24084.000000
20934.000000,42558.000000,45944.000000,24086.000000
20906.000000,42557.000000,45961.000000,24111.000000
20999.000000,42605.000000,45972.000000,24121.000000
21015.000000,42626.000000,46009.000000,24145.000000
21055.000000,42665.000000,45992.000000,24159.000000
21073.000000,42710.000000,46040.000000,24145.000000
21132.000000,42753.000000,46043.000000,24153.000000
21159.000000,42783.000000,46072.000000,24171.000000
21136.000000,42814.000000,46102.000000,24185.000000
21245.000000,42846.000000,46132.000000,24179.000000
21289.000000,42907.000000,46134.000000,24183.000000
21295.000000,42922.000000,46162.000000,24207.000000
21332.000000,42960.000000,46199.000000,24187.000000
21337.000000,43027.000000,46206.000000,24191.000000
21413.000000,43031.000000,46224.000000,24232.000000
21406.000000,43055.000000,46268.000000,24231.000000
21471.000000,43120.000000,46263.000000,24263.000000
21498.000000,43172.000000,46300.000000,24276.000000
21517.000000,43177.000000,46296.000000,24286.000000
21587.000000,43220.000000,46324.000000,24307.000000
21610.000000,43255.000000,46366.000000,24292.000000
21602.000000,43256.000000,46370.000000,24317.000000
21612.000000,43292.000000,46394.000000,24315.000000
21619.000000,43311.000000,46407.000000,24332.000000
21677.000000,43320.000000,46399.000000,24324.000000
21648.000000,43364.000000,46423.000000,24331.000000
21663.000000,43375.000000,46422.000000,24323.000000
21675.000000,43384.000000,46422.000000,24339.000000
21656.000000,43351.000000,46423.000000,24341.000000
21679.000000,43321.000000,46406.000000,24308.000000
21642.000000,43338.000000,46389.000000,24318.000000
21653.000000,43326.000000,46397.000000,24334.000000
21653.000000,43335.000000,46360.000000,24345.000000
21640.000000,43329.000000,46391.000000,24330.000000
21667.000000,43317.000000,46397.000000,24332.000000
21643.000000,43352.000000,46369.000000,24323.000000
21657.000000,43335.000000,46372.000000,24339.000000
21648.000000,43350.000000,46365.000000,24333.000000
21618.000000,43310.000000,46379.000000,24335.000000
21645.000000,43296.000000,46387.000000,24323.000000
21605.000000,43309.000000,46366.000000,24316.000000
21606.000000,43301.000000,46363.000000,24311.000000
21610.000000,43297.000000,46385.000000,24315.000000
21606.000000,43279.000000,46388.000000,24293.000000
21609.000000,43275.000000,46354.000000,24322.000000
21581.000000,43295.000000,46339.000000,24303.000000
21598.000000,43240.000000,46347.000000,24315.000000
21596.000000,43300.000000,46366.000000,24322.000000
21578.000000,43257.000000,46348.000000,24282.000000
21583.000000,43241.000000,46355.000000,24310.000000
21552.000000,43280.000000,46359.000000,24261.000000
21551.000000,43274.000000,46347.000000,24316.000000
21561.000000,43231.000000,46326.000000,24291.000000
21570.000000,43240.000000,46313.000000,24291.000000
21519.000000,43214.000000,46301.000000,24299.000000
21499.000000,43248.000000,46321.000000,24259.000000
21524.000000,43201.000000,46335.000000,24296.000000
21554.000000,43188.000000,46296.000000,24282.000000
21514.000000,43214.000000,46293.000000,24279.000000
21539.000000,43189.000000,46325.000000,24312.000000
21486.000000,43204.000000,46308.000000,24282.000000
21515.000000,43180.000000,46313.000000,24295.000000
21513.000000,43172.000000,46274.000000,24280.000000
21467.000000,43187.000000,46299.000000,24277.000000
21485.000000,43150.000000,46292.000000,24259.000000
21473.000000,43162.000000,46308.000000,24273.000000
21433.000000,43113.000000,46300.000000,24261.000000
21455.000000,43134.000000,46292.000000,24265.000000
21491.000000,43118.000000,46275.000000,24254.000000
21498.000000,43119.000000,46286.000000,24273.000000
21425.000000,43159.000000,46310.000000,24261.000000
21422.000000,43104.000000,46277.000000,24272.000000
21431.000000,43114.000000,46261.000000,24249.000000
21405.000000,43082.000000,46276.000000,24260.000000
21452.000000,43113.000000,46239.000000,24250.000000
21401.000000,43073.000000,46253.000000,24254.000000
21394.000000,43053.000000,46251.000000,24259.000000
21379.000000,43084.000000,46239.000000,24256.000000
21394.000000,43056.000000,46244.000000,24246.000000
21391.000000,43074.000000,46214.000000,24232.000000
21379.000000,43051.000000,46224.000000,24224.000000
21373.000000,43046.000000,46230.000000,24264.000000
21361.000000,43035.000000,46212.000000,24267.000000
21360.000000,42981.000000,46247.000000,24258.000000
21343.000000,42962.000000,46218.000000,24240.000000
21317.000000,42976.000000,46223.000000,24213.000000
21347.000000,42986.000000,46205.000000,24237.000000
21332.000000,42985.000000,46200.000000,24209.000000
21318.000000,42939.000000,46195.000000,24213.000000
21310.000000,42963.000000,46198.000000,24195.000000
21307.000000,42951.000000,46168.000000,24228.000000
21294.000000,42934.000000,46187.000000,24240.000000
21287.000000,42934.000000,46183.000000,24233.000000
21263.000000,42944.000000,46178.000000,24189.000000
21285.000000,42915.000000,46172.000000,24221.000000
21272.000000,42958.000000,46182.000000,24237.000000
21268.000000,42886.000000,46185.000000,24234.000000
21274.000000,42918.000000,46166.000000,24206.000000
21235.000000,42895.000000,46152.000000,24183.000000
21265.000000,42886.000000,46140.000000,24226.000000
21226.000000,42872.000000,46133.000000,24196.000000
21228.000000,42823.000000,46162.000000,24197.000000
21224.000000,42851.000000,46135.000000,24206.000000
21175.000000,42870.000000,46117.000000,24172.000000
21182.000000,42829.000000,46102.000000,24221.000000
21156.000000,42800.000000,46123.000000,24160.000000
21139.000000,42803.000000,46114.000000,24202.000000
21172.000000,42784.000000,46113.000000,24173.000000
21128.000000,42788.000000,46091.000000,24192.000000
21126.000000,42768.000000,46080.000000,24181.000000
21144.000000,42721.000000,46074.000000,24196.000000
21127.000000,42769.000000,46080.000000,24165.000000
21138.000000,42767.000000,46092.000000,24162.000000
21113.000000,42730.000000,46052.000000,24169.000000
21114.000000,42736.000000,46066.000000,24137.000000
21104.000000,42699.000000,46051.000000,24143.000000
21081.000000,42705.000000,46019.000000,24174.000000
21043.000000,42687.000000,46056.000000,24175.000000
21084.000000,42681.000000,46049.000000,24131.000000
21044.000000,42682.000000,46042.000000,24159.000000
21022.000000,42656.000000,46036.000000,24156.000000
21015.000000,42656.000000,46016.000000,24148.000000
21004.000000,42630.000000,46024.000000,24154.000000
21025.000000,42664.000000,46002.000000,24141.000000
21020.000000,42623.000000,45994.000000,24107.000000
20987.000000,42624.000000,46019.000000,24121.000000
20992.000000,42599.000000,46011.000000,24143.000000
20986.000000,42583.000000,45969.000000,24137.000000
20960.000000,42566.000000,45977.000000,24123.000000
20988.000000,42584.000000,45994.000000,24107.000000
20915.000000,42581.000000,45963.000000,24111.000000
20956.000000,42536.000000,45966.000000,24116.000000
20907.000000,42543.000000,45933.000000,24110.000000
20886.000000,42514.000000,45943.000000,24127.000000
20913.000000,42564.000000,45941.000000,24095.000000
20866.000000,42524.000000,45949.000000,24095.000000
20899.000000,42519.000000,45943.000000,24127.000000
20861.000000,42523.000000,45929.000000,24088.000000
20865.000000,42470.000000,45916.000000,24096.000000
20869.000000,42479.000000,45917.000000,24089.000000
20833.000000,42470.000000,45929.000000,24085.000000
20851.000000,42470.000000,45907.000000,24070.000000
20809.000000,42458.000000,45899.000000,24077.000000
20843.000000,42442.000000,45920.000000,24089.000000
20845.000000,42447.000000,45898.000000,24091.000000
20847.000000,42458.000000,45900.000000,24100.000000
20803.000000,42398.000000,45886.000000,24078.000000
20823.000000,42435.000000,45888.000000,24089.000000
20808.000000,42465.000000,45885.000000,24080.000000
20776.000000,42394.000000,45865.000000,24107.000000
20794.000000,42410.000000,45881.000000,24076.000000
20787.000000,42400.000000,45903.000000,24093.000000
20803.000000,42391.000000,45872.000000,24100.000000
20767.000000,42392.000000,45856.000000,24072.000000
20756.000000,42376.000000,45863.000000,24064.000000
20768.000000,42397.000000,45862.000000,24071.000000
20728.000000,42385.000000,45837.000000,24063.000000
20736.000000,42375.000000,45837.000000,24074.000000
20750.000000,42360.000000,45845.000000,24055.000000
20735.000000,42337.000000,45854.000000,24093.000000
20761.000000,42356.000000,45871.000000,24088.000000
20759.000000,42357.000000,45840.000000,24042.000000
20703.000000,42334.000000,45830.000000,24073.000000
20710.000000,42316.000000,45831.000000,24061.000000
20670.000000,42332.000000,45812.000000,24061.000000
20719.000000,42306.000000,45812.000000,24069.000000
20713.000000,42310.000000,45795.000000,24049.000000
20698.000000,42303.000000,45832.000000,24051.000000
20684.000000,42274.000000,45795.000000,24041.000000
20657.000000,42274.000000,45785.000000,24044.000000
20646.000000,42271.000000,45781.000000,24035.000000
20666.000000,42235.000000,45807.000000,24047.000000
20620.000000,42278.000000,45779.000000,24065.000000
20659.000000,42243.000000,45789.000000,24051.000000
20632.000000,42233.000000,45759.000000,24034.000000
20631.000000,42240.000000,45773.000000,24012.000000
20614.000000,42227.000000,45767.000000,24024.000000
20642.000000,42235.000000,45782.000000,24017.000000
20588.000000,42211.000000,45748.000000,24029.000000
20610.000000,42238.000000,45787.000000,24015.000000
20591.000000,42212.000000,45776.000000,24011.000000
20626.000000,42192.000000,45764.000000,24025.000000
20615.000000,42245.000000,45782.000000,24038.000000
20605.000000,42228.000000,45784.000000,24005.000000
20629.000000,42226.000000,45751.000000,24014.000000
20625.000000,42234.000000,45806.000000,24020.000000
20680.000000,42256.000000,45777.000000,24042.000000
20698.000000,42286.000000,45824.000000,24048.000000
20720.000000,42363.000000,45806.000000,24047.000000
20742.000000,42362.000000,45841.000000,24050.000000
20739.000000,42394.000000,45841.000000,24028.000000
20743.000000,42392.000000,45886.000000,24057.000000
20787.000000,42396.000000,45868.000000,24088.000000
20804.000000,42440.000000,45886.000000,24063.000000
20826.000000,42484.000000,45907.000000,24052.000000
20883.000000,42429.000000,45898.000000,24074.000000
20856.000000,42487.000000,45943.000000,24075.000000
20876.000000,42514.000000,45924.000000,24086.000000
20909.000000,42565.000000,45956.000000,24071.000000
20932.000000,42559.000000,45985.000000,24097.000000
20979.000000,42577.000000,45976.000000,24111.000000
20999.000000,42632.000000,45998.000000,24132.000000
21002.000000,42652.000000,46018.000000,24113.000000
21049.000000,42718.000000,46034.000000,24112.000000
21095.000000,42719.000000,46051.000000,24140.000000
21137.000000,42753.000000,46072.000000,24131.000000
21141.000000,42813.000000,46095.000000,24159.000000
21206.000000,42817.000000,46097.000000,24169.000000
21217.000000,42845.000000,46127.000000,24186.000000
21246.000000,42883.000000,46153.000000,24187.000000
21281.000000,42928.000000,46174.000000,24181.000000
21300.000000,42964.000000,46192.000000,24176.000000
21316.000000,42974.000000,46206.000000,24189.000000
21386.000000,43023.000000,46229.000000,24207.000000
21377.000000,43033.000000,46265.000000,24243.000000
21446.000000,43069.000000,46265.000000,24229.000000
21453.000000,43127.000000,46286.000000,24241.000000
21514.000000,43144.000000,46308.000000,24265.000000
21523.000000,43214.000000,46284.000000,24252.000000
21549.000000,43237.000000,46333.000000,24277.000000
21620.000000,43246.000000,46352.000000,24284.000000
21628.000000,43313.000000,46382.000000,24273.000000
21654.000000,43308.000000,46395.000000,24316.000000
21683.000000,43360.000000,46400.000000,24312.000000
21710.000000,43345.000000,46420.000000,24337.000000
21708.000000,43374.000000,46440.000000,24308.000000
21682.000000,43391.000000,46450.000000,24314.000000
21714.000000,43370.000000,46427.000000,24356.000000
21705.000000,43435.000000,46417.000000,24323.000000
21701.000000,43382.000000,46468.000000,24289.000000
21688.000000,43368.000000,46435.000000,24325.000000
21675.000000,43423.000000,46429.000000,24340.000000
21696.000000,43387.000000,46456.000000,24315.000000
21699.000000,43374.000000,46453.000000,24335.000000
21658.000000,43360.000000,46424.000000,24326.000000
21719.000000,43346.000000,46429.000000,24338.000000
21666.000000,43341.000000,46442.000000,24322.000000
21619.000000,43354.000000,46426.000000,24318.000000
21683.000000,43336.000000,46400.000000,24309.000000
21650.000000,43326.000000,46416.000000,24301.000000
21654.000000,43321.000000,46413.000000,24306.000000
21663.000000,43343.000000,46382.000000,24290.000000
21595.000000,43303.000000,46423.000000,24308.000000
21628.000000,43323.000000,46398.000000,24313.000000
21615.000000,43333.000000,46400.000000,24303.000000
21614.000000,43290.000000,46400.000000,24324.000000
21591.000000,43297.000000,46382.000000,24327.000000
21554.000000,43303.000000,46378.000000,24319.000000
21596.000000,43265.000000,46358.000000,24302.000000
21617.000000,43289.000000,46349.000000,24310.000000
21584.000000,43258.000000,46381.000000,24323.000000
21586.000000,43253.000000,46366.000000,24282.000000
21560.000000,43268.000000,46365.000000,24298.000000
21572.000000,43279.000000,46375.000000,24303.000000
21558.000000,43227.000000,46342.000000,24310.000000
21544.000000,43221.000000,46356.000000,24308.000000
21557.000000,43213.000000,46355.000000,24299.000000
21512.000000,43244.000000,46352.000000,24306.000000
21575.000000,43224.000000,46345.000000,24326.000000
21540.000000,43213.000000,46318.000000,24276.000000
21539.000000,43192.000000,46327.000000,24303.000000
21555.000000,43242.000000,46340.000000,24273.000000
21505.000000,43196.000000,46351.000000,24295.000000
21505.000000,43195.000000,46332.000000,24299.000000
21504.000000,43223.000000,46332.000000,24273.000000
21484.000000,43185.000000,46342.000000,24295.000000
21519.000000,43200.000000,46308.000000,24277.000000
21473.000000,43165.000000,46346.000000,24262.000000
21504.000000,43153.000000,46304.000000,24274.000000
21476.000000,43190.000000,46289.000000,24275.000000
21463.000000,43151.000000,46308.000000,24246.000000
21441.000000,43107.000000,46313.000000,24257.000000
21443.000000,43135.000000,46280.000000,24266.000000
21468.000000,43115.000000,46303.000000,24281.000000
21426.000000,43139.000000,46284.000000,24257.000000
21416.000000,43122.000000,46296.000000,24279.000000
21433.000000,43077.000000,46276.000000,24258.000000
21385.000000,43088.000000,46285.000000,24245.000000
21419.000000,43063.000000,46231.000000,24229.000000
21385.000000,43108.000000,46254.000000,24249.000000
21420.000000,43058.000000,46251.000000,24267.000000
21394.000000,43086.000000,46239.000000,24243.000000
21375.000000,43025.000000,46265.000000,24257.000000
21379.000000,43009.000000,46235.000000,24261.000000
21335.000000,43058.000000,46217.000000,24269.000000
21378.000000,43013.000000,46194.000000,24264.000000
21317.000000,42986.000000,46198.000000,24225.000000
21317.000000,42991.000000,46175.000000,24238.000000
21310.000000,42967.000000,46177.000000,24211.000000
21325.000000,42986.000000,46169.000000,24208.000000
21284.000000,42965.000000,46183.000000,24229.000000
21319.000000,42959.000000,46164.000000,24217.000000
21241.000000,42967.000000,46177.000000,24226.000000
21255.000000,42947.000000,46174.000000,24216.000000
21257.000000,42919.000000,46174.000000,24218.000000
21257.000000,42896.000000,46177.000000,24188.000000
21252.000000,42890.000000,46144.000000,24222.000000
21215.000000,42889.000000,46173.000000,24197.000000
21251.000000,42885.000000,46154.000000,24195.000000
21210.000000,42887.000000,46120.000000,24169.000000
21173.000000,42874.000000,46153.000000,24202.000000
21223.000000,42857.000000,46134.000000,24199.000000
21186.000000,42881.000000,46152.000000,24196.000000
21195.000000,42845.000000,46127.000000,24187.000000
21185.000000,42855.000000,46122.000000,24193.000000
21150.000000,42819.000000,46107.000000,24203.000000
21183.000000,42805.000000,46095.000000,24183.000000
21168.000000,42797.000000,46094.000000,24180.000000
21129.000000,42782.000000,46099.000000,24177.000000
21128.000000,42794.000000,46093.000000,24159.000000
21138.000000,42757.000000,46088.000000,24180.000000
21153.000000,42739.000000,46056.000000,24191.000000
21089.000000,42775.000000,46070.000000,24178.000000
21095.000000,42712.000000,46045.000000,24183.000000
21080.000000,42735.000000,46056.000000,24180.000000
21082.000000,42722.000000,46067.000000,24176.000000
21062.000000,42706.000000,46033.000000,24172.000000
21066.000000,42726.000000,46037.000000,24164.000000
21081.000000,42711.000000,46039.000000,24177.000000
21047.000000,42697.000000,45996.000000,24187.000000
21025.000000,42692.000000,46041.000000,24167.000000
21043.000000,42638.000000,45997.000000,24167.000000
21014.000000,42643.000000,45998.000000,24158.000000
20985.000000,42646.000000,46022.000000,24147.000000
21005.000000,42594.000000,46002.000000,24168.000000
20981.000000,42645.000000,46003.000000,24117.000000
20976.000000,42594.000000,46005.000000,24137.000000
20967.000000,42604.000000,45994.000000,24137.000000
20918.000000,42565.000000,45969.000000,24124.000000
20944.000000,42542.000000,45968.000000,24149.000000
20936.000000,42568.000000,45979.000000,24152.000000
20959.000000,42528.000000,45947.000000,24120.000000
20917.000000,42527.000000,45956.000000,24120.000000
20900.000000,42520.000000,45912.000000,24137.000000
20909.000000,42525.000000,45952.000000,24099.000000
20869.000000,42501.000000,45947.000000,24097.000000
20867.000000,42482.000000,45925.000000,24101.000000
20870.000000,42511.000000,45940.000000,24127.000000
20835.000000,42469.000000,45933.000000,24121.000000
20855.000000,42478.000000,45888.000000,24108.000000
20831.000000,42466.000000,45894.000000,24098.000000
20818.000000,42445.000000,45872.000000,24113.000000
20840.000000,42474.000000,45894.000000,24091.000000
20801.000000,42412.000000,45911.000000,24094.000000
20808.000000,42430.000000,45894.000000,24096.000000
20766.000000,42433.000000,45904.000000,24076.000000
20804.000000,42403.000000,45860.000000,24096.000000
20765.000000,42394.000000,45853.000000,24107.000000
20780.000000,42362.000000,45867.000000,24078.000000
20787.000000,42383.000000,45846.000000,24094.000000
20770.000000,42367.000000,45874.000000,24096.000000
20767.000000,42369.000000,45830.000000,24076.000000
20744.000000,42362.000000,45832.000000,24072.000000
20759.000000,42344.000000,45844.000000,24088.000000
20756.000000,42355.000000,45838.000000,24060.000000
20726.000000,42354.000000,45799.000000,24066.000000
20746.000000,42322.000000,45838.000000,24073.000000
20723.000000,42335.000000,45825.000000,24057.000000
20722.000000,42288.000000,45832.000000,24078.000000
20700.000000,42280.000000,45812.000000,24088.000000
20692.000000,42304.000000,45840.000000,24049.000000
20703.000000,42323.000000,45815.000000,24056.000000
20690.000000,42309.000000,45792.000000,24060.000000
20665.000000,42267.000000,45802.000000,24067.000000
20675.000000,42278.000000,45804.000000,24053.000000
20671.000000,42285.000000,45805.000000,24064.000000
20709.000000,42267.000000,45792.000000,24060.000000
20675.000000,42263.000000,45769.000000,24050.000000
20648.000000,42220.000000,45804.000000,24051.000000
20675.000000,42254.000000,45790.000000,24050.000000
20625.000000,42250.000000,45784.000000,24072.000000
20609.000000,42215.000000,45770.000000,24053.000000
20619.000000,42221.000000,45743.000000,24020.000000
20606.000000,42192.000000,45750.000000,24038.000000
20618.000000,42197.000000,45731.000000,24035.000000
20577.000000,42208.000000,45740.000000,24022.000000
20650.000000,42217.000000,45762.000000,24038.000000
20610.000000,42215.000000,45742.000000,23994.000000
20551.000000,42187.000000,45760.000000,24028.000000
20588.000000,42174.000000,45733.000000,24035.000000
20591.000000,42205.000000,45740.000000,24018.000000
20561.000000,42182.000000,45777.000000,24029.000000
20636.000000,42189.000000,45746.000000,24021.000000
20633.000000,42220.000000,45781.000000,24039.000000
20644.000000,42234.000000,45761.000000,24049.000000
20653.000000,42296.000000,45765.000000,24053.000000
20671.000000,42260.000000,45790.000000,24048.000000
20703.000000,42287.000000,45813.000000,24057.000000
20677.000000,42278.000000,45832.000000,24060.000000
20732.000000,42314.000000,45834.000000,24088.000000
20726.000000,42358.000000,45842.000000,24078.000000
20757.000000,42338.000000,45824.000000,24051.000000
20771.000000,42413.000000,45837.000000,24062.000000
20789.000000,42399.000000,45861.000000,24072.000000
20826.000000,42431.000000,45881.000000,24082.000000
20839.000000,42430.000000,45896.000000,24088.000000
20862.000000,42475.000000,45899.000000,24083.000000
20877.000000,42527.000000,45916.000000,24082.000000
20919.000000,42508.000000,45944.000000,24121.000000
20961.000000,42553.000000,45949.000000,24122.000000
20996.000000,42584.000000,45995.000000,24142.000000
21033.000000,42616.000000,46005.000000,24139.000000
21039.000000,42661.000000,45976.000000,24119.000000
21055.000000,42672.000000,46038.000000,24143.000000
21099.000000,42680.000000,46052.000000,24115.000000
21128.000000,42749.000000,46073.000000,24162.000000
21170.000000,42780.000000,46087.000000,24154.000000
21154.000000,42821.000000,46104.000000,24183.000000
21226.000000,42834.000000,46098.000000,24184.000000
21251.000000,42876.000000,46157.000000,24201.000000
21281.000000,42891.000000,46167.000000,24186.000000
21351.000000,42925.000000,46180.000000,24238.000000
21347.000000,42999.000000,46192.000000,24231.000000
21428.000000,43018.000000,46216.000000,24256.000000
21415.000000,43094.000000,46238.000000,24237.000000
21463.000000,43086.000000,46249.000000,24259.000000
21486.000000,43118.000000,46280.000000,24262.000000
21537.000000,43188.000000,46288.000000,24276.000000
21549.000000,43201.000000,46332.000000,24278.000000
21570.000000,43277.000000,46351.000000,24295.000000
21622.000000,43269.000000,46376.000000,24311.000000
21636.000000,43294.000000,46376.000000,24294.000000
21648.000000,43330.000000,46415.000000,24323.000000
21711.000000,43344.000000,46411.000000,24317.000000
21688.000000,43369.000000,46425.000000,24326.000000
21705.000000,43389.000000,46436.000000,24348.000000
21690.000000,43416.000000,46428.000000,24354.000000
21720.000000,43368.000000,46464.000000,24348.000000
21731.000000,43411.000000,46471.000000,24336.000000
21714.000000,43408.000000,46433.000000,24331.000000
21709.000000,43360.000000,46449.000000,24354.000000
21708.000000,43398.000000,46435.000000,24326.000000
21696.000000,43380.000000,46442.000000,24350.000000
21701.000000,43384.000000,46422.000000,24338.000000
21700.000000,43365.000000,46424.000000,24350.000000
21737.000000,43371.000000,46434.000000,24322.000000
21699.000000,43372.000000,46447.000000,24320.000000
21677.000000,43338.000000,46394.000000,24347.000000
21711.000000,43370.000000,46409.000000,24351.000000
21668.000000,43366.000000,46443.000000,24343.000000
21708.000000,43363.000000,46435.000000,24335.000000
21685.000000,43365.000000,46405.000000,24349.000000
21664.000000,43327.000000,46424.000000,24313.000000
21689.000000,43342.000000,46407.000000,24328.000000
21625.000000,43318.000000,46402.000000,24330.000000
21693.000000,43312.000000,46406.000000,24343.000000
21657.000000,43341.000000,46405.000000,24340.000000
21663.000000,43346.000000,46406.000000,24316.000000
21641.000000,43331.000000,46405.000000,24329.000000
21608.000000,43311.000000,46400.000000,24314.000000
21672.000000,43311.000000,46380.000000,24319.000000
21624.000000,43265.000000,46388.000000,24305.000000
21645.000000,43285.000000,46397.000000,24322.000000
21627.000000,43301.000000,46384.000000,24317.000000
21618.000000,43275.000000,46434.000000,24318.000000
21657.000000,43295.000000,46392.000000,24314.000000
21589.000000,43257.000000,46403.000000,24335.000000
21633.000000,43265.000000,46351.000000,24319.000000
21624.000000,43335.000000,46372.000000,24312.000000
21638.000000,43268.000000,46385.000000,24339.000000
21589.000000,43268.000000,46357.000000,24325.000000
21585.000000,43247.000000,46375.000000,24317.000000
21620.000000,43217.000000,46379.000000,24338.000000
21576.000000,43259.000000,46362.000000,24333.000000
21583.000000,43250.000000,46363.000000,24293.000000
21557.000000,43255.000000,46362.000000,24297.000000
21602.000000,43204.000000,46374.000000,24286.000000
21537.000000,43210.000000,46355.000000,24329.000000
21561.000000,43215.000000,46362.000000,24310.000000
21581.000000,43205.000000,46337.000000,24293.000000
21556.000000,43230.000000,46343.000000,24289.000000
21572.000000,43195.000000,46331.000000,24312.000000
21541.000000,43202.000000,46337.000000,24292.000000
21527.000000,43155.000000,46349.000000,24294.000000
21555.000000,43175.000000,46350.000000,24278.000000
21503.000000,43177.000000,46362.000000,24305.000000
21524.000000,43170.000000,46338.000000,24306.000000
21484.000000,43179.000000,46316.000000,24290.000000
21493.000000,43134.000000,46331.000000,24285.000000
21495.000000,43162.000000,46297.000000,24288.000000
21508.000000,43121.000000,46321.000000,24285.000000
21470.000000,43114.000000,46288.000000,24303.000000
21451.000000,43119.000000,46269.000000,24293.000000
21481.000000,43091.000000,46304.000000,24282.000000
21435.000000,43109.000000,46315.000000,24277.000000
21487.000000,43078.000000,46274.000000,24274.000000
21427.000000,43076.000000,46269.000000,24249.000000
21409.000000,43081.000000,46271.000000,24264.000000
21436.000000,43092.000000,46256.000000,24245.000000
21424.000000,43032.000000,46273.000000,24269.000000
21411.000000,43059.000000,46258.000000,24245.000000
21392.000000,43029.000000,46245.000000,24239.000000
21373.000000,42996.000000,46239.000000,24268.000000
21377.000000,43027.000000,46247.000000,24231.000000
21396.000000,42981.000000,46230.000000,24238.000000
21385.000000,43006.000000,46223.000000,24238.000000
21330.000000,42967.000000,46237.000000,24252.000000
21374.000000,42964.000000,46223.000000,24217.000000
21362.000000,42978.000000,46206.000000,24228.000000
21345.000000,42949.000000,46202.000000,24239.000000
21335.000000,42950.000000,46208.000000,24242.000000
21368.000000,42939.000000,46185.000000,24235.000000
21326.000000,42965.000000,46171.000000,24204.000000
21281.000000,42898.000000,46203.000000,24249.000000
21279.000000,42907.000000,46168.000000,24227.000000
21263.000000,42875.000000,46180.000000,24222.000000
21286.000000,42862.000000,46172.000000,24232.000000
21243.000000,42903.000000,46165.000000,24202.000000
21257.000000,42852.000000,46136.000000,24218.000000
21230.000000,42850.000000,46155.000000,24240.000000
21205.000000,42874.000000,46134.000000,24231.000000
21225.000000,42855.000000,46148.000000,24177.000000
21251.000000,42812.000000,46151.000000,24213.000000
21216.000000,42840.000000,46141.000000,24210.000000
21194.000000,42820.000000,46142.000000,24208.000000
21180.000000,42793.000000,46121.000000,24195.000000
21203.000000,42800.000000,46125.000000,24183.000000
21167.000000,42768.000000,46129.000000,24188.000000
21180.000000,42779.000000,46093.000000,24191.000000
21149.000000,42777.000000,46115.000000,24183.000000
21172.000000,42755.000000,46088.000000,24194.000000
21131.000000,42776.000000,46113.000000,24183.000000
21092.000000,42721.000000,46072.000000,24180.000000
21110.000000,42692.000000,46067.000000,24187.000000
21106.000000,42734.000000,46069.000000,24172.000000
21053.000000,42700.000000,46053.000000,24178.000000
21052.000000,42674.000000,46061.000000,24163.000000
21069.000000,42664.000000,46045.000000,24162.000000
21073.000000,42679.000000,46024.000000,24167.000000
21057.000000,42658.000000,46041.000000,24157.000000
21059.000000,42641.000000,46055.000000,24164.000000
21001.000000,42625.000000,46026.000000,24159.000000
21051.000000,42622.000000,46014.000000,24161.000000
21004.000000,42610.000000,46008.000000,24143.000000
21014.000000,42603.000000,46005.000000,24167.000000
20997.000000,42613.000000,45988.000000,24140.000000
20971.000000,42557.000000,46008.000000,24159.000000
20997.000000,42550.000000,45968.000000,24148.000000
20935.000000,42560.000000,46001.000000,24138.000000
20964.000000,42552.000000,45984.000000,24138.000000
20955.000000,42548.000000,45998.000000,24128.000000
20987.000000,42540.000000,45968.000000,24122.000000
20965.000000,42508.000000,45955.000000,24147.000000
20949.000000,42500.000000,45967.000000,24138.000000
20947.000000,42539.000000,45935.000000,24098.000000
20918.000000,42523.000000,45953.000000,24134.000000
20937.000000,42496.000000,45910.000000,24140.000000
20901.000000,42484.000000,45964.000000,24114.000000
20913.000000,42460.000000,45945.000000,24107.000000
20922.000000,42490.000000,45915.000000,24095.000000
20859.000000,42473.000000,45933.000000,24085.000000
20881.000000,42465.000000,45917.000000,24089.000000
20837.000000,42455.000000,45916.000000,24121.000000
20871.000000,42451.000000,45923.000000,24094.000000
20858.000000,42444.000000,45901.000000,24108.000000
20876.000000,42445.000000,45931.000000,24105.000000
20853.000000,42473.000000,45892.000000,24091.000000
20832.000000,42418.000000,45889.000000,24122.000000
20875.000000,42437.000000,45907.000000,24083.000000
20822.000000,42417.000000,45914.000000,24084.000000
20846.000000,42396.000000,45875.000000,24096.000000
20852.000000,42414.000000,45886.000000,24089.000000
20816.000000,42417.000000,45873.000000,24099.000000
20853.000000,42376.000000,45902.000000,24088.000000
20817.000000,42394.000000,45872.000000,24090.000000
20842.000000,42377.000000,45880.000000,24096.000000
20787.000000,42387.000000,45885.000000,24079.000000
20777.000000,42379.000000,45880.000000,24099.000000
20787.000000,42403.000000,45878.000000,24094.000000
20759.000000,42362.000000,45871.000000,24095.000000
20786.000000,42362.000000,45856.000000,24083.000000
20772.000000,42340.000000,45892.000000,24065.000000
20752.000000,42341.000000,45848.000000,24099.000000
20773.000000,42352.000000,45856.000000,24096.000000
20719.000000,42302.000000,45865.000000,24054.000000
20746.000000,42317.000000,45844.000000,24079.000000
20729.000000,42336.000000,45817.000000,24081.000000
20758.000000,42306.000000,45857.000000,24068.000000
20749.000000,42315.000000,45856.000000,24074.000000
20718.000000,42330.000000,45833.000000,24078.000000
20750.000000,42318.000000,45811.000000,24098.000000
20771.000000,42337.000000,45870.000000,24063.000000
20767.000000,42313.000000,45836.000000,24083.000000
20766.000000,42352.000000,45858.000000,24095.000000
20758.000000,42344.000000,45870.000000,24094.000000
20801.000000,42342.000000,45868.000000,24071.000000
20776.000000,42388.000000,45861.000000,24095.000000
20819.000000,42381.000000,45894.000000,24099.000000
20810.000000,42404.000000,45890.000000,24083.000000
20855.000000,42427.000000,45891.000000,24098.000000
20861.000000,42444.000000,45914.000000,24071.000000
20862.000000,42449.000000,45921.000000,24097.000000
20886.000000,42469.000000,45940.000000,24116.000000
20895.000000,42500.000000,45934.000000,24118.000000
20932.000000,42513.000000,45955.000000,24120.000000
20959.000000,42560.000000,45964.000000,24119.000000
20966.000000,42544.000000,45984.000000,24133.000000
20979.000000,42606.000000,46009.000000,24132.000000
21003.000000,42600.000000,46015.000000,24161.000000
21070.000000,42597.000000,46056.000000,24161.000000
21061.000000,42660.000000,46056.000000,24139.000000
21094.000000,42670.000000,46036.000000,24151.000000
21114.000000,42722.000000,46075.000000,24149.000000
21136.000000,42740.000000,46075.000000,24179.000000
21182.000000,42781.000000,46087.000000,24185.000000
21213.000000,42777.000000,46136.000000,24186.000000
21237.000000,42844.000000,46121.000000,24188.000000
21268.000000,42871.000000,46149.000000,24200.000000
21313.000000,42894.000000,46184.000000,24218.000000
21324.000000,42924.000000,46177.000000,24207.000000
21335.000000,42923.000000,46237.000000,24225.000000
21408.000000,42994.000000,46220.000000,24250.000000
21405.000000,43039.000000,46264.000000,24249.000000
21481.000000,43058.000000,46252.000000,24240.000000
21470.000000,43079.000000,46282.000000,24259.000000
21520.000000,43134.000000,46293.000000,24263.000000
21524.000000,43169.000000,46324.000000,24265.000000
21563.000000,43194.000000,46336.000000,24317.000000
21606.000000,43222.000000,46379.000000,24301.000000
21604.000000,43267.000000,46379.000000,24297.000000
21645.000000,43320.000000,46432.000000,24331.000000
21663.000000,43350.000000,46426.000000,24327.000000
21717.000000,43348.000000,46421.000000,24294.000000
21737.000000,43374.000000,46426.000000,24336.000000
21758.000000,43416.000000,46434.000000,24376.000000
21740.000000,43393.000000,46443.000000,24372.000000
21748.000000,43391.000000,46471.000000,24356.000000
21755.000000,43421.000000,46467.000000,24366.000000
21750.000000,43425.000000,46493.000000,24385.000000
21766.000000,43417.000000,46472.000000,24366.000000
21752.000000,43433.000000,46458.000000,24368.000000
21721.000000,43386.000000,46479.000000,24381.000000
21769.000000,43386.000000,46464.000000,24363.000000
21699.000000,43401.000000,46455.000000,24377.000000
21759.000000,43416.000000,46470.000000,24355.000000
21750.000000,43424.000000,46457.000000,24377.000000
21733.000000,43389.000000,46463.000000,24350.000000
21728.000000,43369.000000,46442.000000,24349.000000
21744.000000,43363.000000,46456.000000,24349.000000
21745.000000,43374.000000,46438.000000,24361.000000
21700.000000,43376.000000,46425.000000,24340.000000
21694.000000,43401.000000,46471.000000,24352.000000
21696.000000,43347.000000,46433.000000,24326.000000
21693.000000,43349.000000,46426.000000,24351.000000
21683.000000,43336.000000,46423.000000,24357.000000
21669.000000,43326.000000,46438.000000,24336.000000
21708.000000,43312.000000,46405.000000,24360.000000
21671.000000,43311.000000,46423.000000,24337.000000
21692.000000,43335.000000,46420.000000,24346.000000
21679.000000,43311.000000,46396.000000,24335.000000
21656.000000,43318.000000,46394.000000,24326.000000
21652.000000,43285.000000,46428.000000,24327.000000
21641.000000,43336.000000,46400.000000,24318.000000
21643.000000,43282.000000,46385.000000,24332.000000
21657.000000,43294.000000,46387.000000,24315.000000
21646.000000,43295.000000,46373.000000,24338.000000
21617.000000,43275.000000,46416.000000,24298.000000
21605.000000,43283.000000,46391.000000,24316.000000
21642.000000,43263.000000,46390.000000,24335.000000
21595.000000,43261.000000,46373.000000,24319.000000
21618.000000,43232.000000,46360.000000,24330.000000
21614.000000,43245.000000,46370.000000,24289.000000
21575.000000,43224.000000,46390.000000,24312.000000
21568.000000,43210.000000,46339.000000,24311.000000
21571.000000,43216.000000,46345.000000,24304.000000
21540.000000,43191.000000,46373.000000,24290.000000
21554.000000,43179.000000,46344.000000,24301.000000
21569.000000,43169.000000,46348.000000,24313.000000
21555.000000,43178.000000,46323.000000,24316.000000
21536.000000,43165.000000,46319.000000,24294.000000
21499.000000,43143.000000,46326.000000,24303.000000
21532.000000,43150.000000,46336.000000,24320.000000
21514.000000,43145.000000,46308.000000,24300.000000
21503.000000,43127.000000,46302.000000,24291.000000
21480.000000,43168.000000,46328.000000,24316.000000
21488.000000,43102.000000,46308.000000,24329.000000
21507.000000,43130.000000,46277.000000,24286.000000
21458.000000,43122.000000,46272.000000,24270.000000
21471.000000,43108.000000,46305.000000,24277.000000
21468.000000,43095.000000,46282.000000,24262.000000
21464.000000,43091.000000,46273.000000,24288.000000
21464.000000,43047.000000,46257.000000,24263.000000
21441.000000,43038.000000,46285.000000,24270.000000
21445.000000,43080.000000,46259.000000,24277.000000
21400.000000,43041.000000,46270.000000,24284.000000
21417.000000,43029.000000,46267.000000,24279.000000
21411.000000,43026.000000,46273.000000,24266.000000
21410.000000,43003.000000,46234.000000,24265.000000
21368.000000,43030.000000,46258.000000,24261.000000
21382.000000,43010.000000,46236.000000,24245.000000
21355.000000,42997.000000,46230.000000,24265.000000
21345.000000,43016.000000,46233.000000,24255.000000
21377.000000,42980.000000,46240.000000,24253.000000
21363.000000,42975.000000,46232.000000,24258.000000
21367.000000,42985.000000,46216.000000,24257.000000
21347.000000,42970.000000,46184.000000,24238.000000
21299.000000,42911.000000,46217.000000,24265.000000
21329.000000,42946.000000,46194.000000,24236.000000
21300.000000,42909.000000,46213.000000,24227.000000
21311.000000,42928.000000,46190.000000,24216.000000
21290.000000,42928.000000,46165.000000,24215.000000
21233.000000,42895.000000,46176.000000,24213.000000
21278.000000,42886.000000,46178.000000,24215.000000
21232.000000,42846.000000,46156.000000,24233.000000
21269.000000,42869.000000,46165.000000,24216.000000
21227.000000,42833.000000,46116.000000,24212.000000
21180.000000,42837.000000,46125.000000,24211.000000
21219.000000,42819.000000,46123.000000,24189.000000
21179.000000,42832.000000,46129.000000,24199.000000
21197.000000,42781.000000,46122.000000,24236.000000
21149.000000,42780.000000,46105.000000,24204.000000
21120.000000,42765.000000,46121.000000,24172.000000
21182.000000,42761.000000,46094.000000,24204.000000
21150.000000,42756.000000,46106.000000,24190.000000
21169.000000,42730.000000,46089.000000,24203.000000
21106.000000,42755.000000,46075.000000,24191.000000
21114.000000,42725.000000,46093.000000,24187.000000
21128.000000,42709.000000,46072.000000,24193.000000
21099.000000,42692.000000,46054.000000,24188.000000
21120.000000,42705.000000,46070.000000,24180.000000
21090.000000,42699.000000,46056.000000,24178.000000
21108.000000,42664.000000,46070.000000,24166.000000
21094.000000,42716.000000,46047.000000,24188.000000
21059.000000,42692.000000,46035.000000,24175.000000
21031.000000,42673.000000,46054.000000,24156.000000
21074.000000,42680.000000,46038.000000,24163.000000
21053.000000,42635.000000,46030.000000,24173.000000
21021.000000,42662.000000,46032.000000,24166.000000
21052.000000,42639.000000,46061.000000,24199.000000
21020.000000,42617.000000,45987.000000,24133.000000
20979.000000,42636.000000,46028.000000,24159.000000
21022.000000,42598.000000,46013.000000,24165.000000
20983.000000,42592.000000,46031.000000,24145.000000
21023.000000,42605.000000,45986.000000,24145.000000
20983.000000,42584.000000,46000.000000,24147.000000
20984.000000,42607.000000,46007.000000,24177.000000
20990.000000,42606.000000,45976.000000,24130.000000
20961.000000,42559.000000,45983.000000,24136.000000
20968.000000,42589.000000,45989.000000,24132.000000
20951.000000,42551.000000,45989.000000,24123.000000
20954.000000,42539.000000,45969.000000,24135.000000
20951.000000,42566.000000,45961.000000,24140.000000
20922.000000,42572.000000,45982.000000,24165.000000
20949.000000,42558.000000,45981.000000,24126.000000
20893.000000,42538.000000,45983.000000,24116.000000
20947.000000,42533.000000,45950.000000,24156.000000
20935.000000,42541.000000,45958.000000,24121.000000
20921.000000,42508.000000,45983.000000,24123.000000
20951.000000,42507.000000,45981.000000,24097.000000
20921.000000,42507.000000,45961.000000,24151.000000
20933.000000,42506.000000,45946.000000,24139.000000
20878.000000,42530.000000,45943.000000,24130.000000
20899.000000,42516.000000,45924.000000,24125.000000
20890.000000,42509.000000,45937.000000,24119.000000
20870.000000,42477.000000,45916.000000,24113.000000
20883.000000,42457.000000,45916.000000,24129.000000
20856.000000,42479.000000,45942.000000,24134.000000
20884.000000,42475.000000,45938.000000,24113.000000
20859.000000,42460.000000,45939.000000,24143.000000
20877.000000,42447.000000,45896.000000,24128.000000
20846.000000,42474.000000,45920.000000,24116.000000
20868.000000,42411.000000,45908.000000,24118.000000
20867.000000,42459.000000,45921.000000,24089.000000
20832.000000,42422.000000,45942.000000,24102.000000
20835.000000,42401.000000,45904.000000,24102.000000
20823.000000,42436.000000,45901.000000,24113.000000
20815.000000,42399.000000,45891.000000,24116.000000
20820.000000,42417.000000,45914.000000,24120.000000
20796.000000,42395.000000,45879.000000,24109.000000
20823.000000,42391.000000,45903.000000,24082.000000
20801.000000,42400.000000,45908.000000,24080.000000
20837.000000,42376.000000,45901.000000,24111.000000
20805.000000,42426.000000,45868.000000,24104.000000
20816.000000,42403.000000,45910.000000,24078.000000
20821.000000,42419.000000,45865.000000,24101.000000
20820.000000,42396.000000,45890.000000,24094.000000
20860.000000,42382.000000,45905.000000,24119.000000
20829.000000,42433.000000,45943.000000,24086.000000
20861.000000,42418.000000,45921.000000,24102.000000
20864.000000,42474.000000,45918.000000,24085.000000
20866.000000,42465.000000,45959.000000,24121.000000
20884.000000,42476.000000,45949.000000,24108.000000
20906.000000,42502.000000,45959.000000,24107.000000
20933.000000,42495.000000,45955.000000,24127.000000
20927.000000,42559.000000,45939.000000,24124.000000
20975.000000,42563.000000,45986.000000,24118.000000
20972.000000,42602.000000,45969.000000,24128.000000
20965.000000,42594.000000,45986.000000,24142.000000
21047.000000,42630.000000,46041.000000,24140.000000
21032.000000,42634.000000,46053.000000,24151.000000
21064.000000,42641.000000,46062.000000,24143.000000
21078.000000,42715.000000,46068.000000,24180.000000
21104.000000,42713.000000,46080.000000,24160.000000
21150.000000,42762.000000,46081.000000,24162.000000
21167.000000,42766.000000,46095.000000,24169.000000
21212.000000,42758.000000,46121.000000,24158.000000
21232.000000,42826.000000,46140.000000,24193.000000
21245.000000,42863.000000,46170.000000,24200.000000
21311.000000,42880.000000,46154.000000,24198.000000
21336.000000,42931.000000,46203.000000,24219.000000
21361.000000,42906.000000,46218.000000,24230.000000
21368.000000,43013.000000,46206.000000,24243.000000
21396.000000,43019.000000,46259.000000,24239.000000
21461.000000,43061.000000,46262.000000,24250.000000
21462.000000,43054.000000,46295.000000,24258.000000
21498.000000,43107.000000,46312.000000,24297.000000
21518.000000,43151.000000,46350.000000,24286.000000
21579.000000,43188.000000,46363.000000,24318.000000
21578.000000,43242.000000,46366.000000,24269.000000
21620.000000,43254.000000,46405.000000,24321.000000
21630.000000,43284.000000,46425.000000,24319.000000
21673.000000,43338.000000,46437.000000,24336.000000
21713.000000,43358.000000,46443.000000,24349.000000
21733.000000,43376.000000,46465.000000,24343.000000
21762.000000,43430.000000,46473.000000,24356.000000
21738.000000,43452.000000,46481.000000,24368.000000
21790.000000,43462.000000,46472.000000,24379.000000
21779.000000,43445.000000,46492.000000,24382.000000
21771.000000,43437.000000,46507.000000,24361.000000
21768.000000,43448.000000,46496.000000,24390.000000
21766.000000,43460.000000,46516.000000,24378.000000
21775.000000,43431.000000,46480.000000,24379.000000
21776.000000,43466.000000,46501.000000,24366.000000
21761.000000,43414.000000,46498.000000,24375.000000
21755.000000,43452.000000,46467.000000,24376.000000
21767.000000,43426.000000,46487.000000,24371.000000
21784.000000,43426.000000,46503.000000,24349.000000
21750.000000,43411.000000,46496.000000,24372.000000
21745.000000,43425.000000,46490.000000,24379.000000
21734.000000,43437.000000,46462.000000,24337.000000
21741.000000,43397.000000,46470.000000,24363.000000
21698.000000,43406.000000,46468.000000,24361.000000
21716.000000,43426.000000,46475.000000,24369.000000
21750.000000,43358.000000,46453.000000,24328.000000
21706.000000,43384.000000,46448.000000,24368.000000
21710.000000,43331.000000,46441.000000,24373.000000
21726.000000,43394.000000,46445.000000,24350.000000
21708.000000,43341.000000,46461.000000,24372.000000
21675.000000,43352.000000,46440.000000,24342.000000
21660.000000,43341.000000,46443.000000,24349.000000
21679.000000,43350.000000,46428.000000,24342.000000
21632.000000,43333.000000,46431.000000,24333.000000
21677.000000,43329.000000,46421.000000,24342.000000
21657.000000,43339.000000,46432.000000,24344.000000
21660.000000,43282.000000,46396.000000,24341.000000
21653.000000,43299.000000,46410.000000,24334.000000
21650.000000,43285.000000,46427.000000,24346.000000
21649.000000,43284.000000,46406.000000,24350.000000
21597.000000,43279.000000,46406.000000,24310.000000
21623.000000,43238.000000,46376.000000,24332.000000
21601.000000,43247.000000,46421.000000,24329.000000
21583.000000,43236.000000,46379.000000,24352.000000
21577.000000,43209.000000,46376.000000,24311.000000
21536.000000,43216.000000,46358.000000,24308.000000
21594.000000,43228.000000,46360.000000,24337.000000
21555.000000,43208.000000,46385.000000,24324.000000
21576.000000,43185.000000,46363.000000,24325.000000
21526.000000,43212.000000,46337.000000,24309.000000
21563.000000,43183.000000,46345.000000,24321.000000
21530.000000,43186.000000,46344.000000,24317.000000
21531.000000,43181.000000,46320.000000,24327.000000
21506.000000,43174.000000,46328.000000,24298.000000
21520.000000,43165.000000,46317.000000,24309.000000
21531.000000,43142.000000,46336.000000,24279.000000
21499.000000,43119.000000,46310.000000,24287.000000
21478.000000,43134.000000,46325.000000,24281.000000
21481.000000,43127.000000,46324.000000,24297.000000
21504.000000,43132.000000,46308.000000,24300.000000
21439.000000,43079.000000,46300.000000,24278.000000
21457.000000,43097.000000,46296.000000,24305.000000
21445.000000,43083.000000,46266.000000,24260.000000
21409.000000,43081.000000,46264.000000,24284.000000
21440.000000,43034.000000,46262.000000,24275.000000
21386.000000,43064.000000,46286.000000,24270.000000
21406.000000,43041.000000,46268.000000,24259.000000
21363.000000,43016.000000,46242.000000,24243.000000
21394.000000,43002.000000,46254.000000,24267.000000
21386.000000,43029.000000,46249.000000,24268.000000
21368.000000,42989.000000,46251.000000,24254.000000
21366.000000,43015.000000,46239.000000,24251.000000
21339.000000,42997.000000,46235.000000,24267.000000
21366.000000,42966.000000,46208.000000,24253.000000
21331.000000,42955.000000,46221.000000,24277.000000
21322.000000,42979.000000,46244.000000,24245.000000
21308.000000,42955.000000,46218.000000,24247.000000
21289.000000,42956.000000,46192.000000,24253.000000
21280.000000,42952.000000,46200.000000,24248.000000
21284.000000,42903.000000,46188.000000,24236.000000
21249.000000,42904.000000,46172.000000,24224.000000
21275.000000,42897.000000,46181.000000,24234.000000
21247.000000,42874.000000,46166.000000,24222.000000
21245.000000,42825.000000,46193.000000,24206.000000
21214.000000,42847.000000,46149.000000,24206.000000
21214.000000,42842.000000,46154.000000,24230.000000
21201.000000,42803.000000,46099.000000,24214.000000
21193.000000,42834.000000,46140.000000,24218.000000
21174.000000,42803.000000,46106.000000,24224.000000
21139.000000,42798.000000,46111.000000,24182.000000
21144.000000,42765.000000,46135.000000,24208.000000
21138.000000,42752.000000,46109.000000,24203.000000
21119.000000,42774.000000,46099.000000,24206.000000
21107.000000,42725.000000,46087.000000,24195.000000
21103.000000,42723.000000,46068.000000,24191.000000
21083.000000,42760.000000,46091.000000,24199.000000
21108.000000,42685.000000,46083.000000,24184.000000
21077.000000,42715.000000,46086.000000,24175.000000
21132.000000,42711.000000,46067.000000,24213.000000
21078.000000,42726.000000,46069.000000,24153.000000
21074.000000,42669.000000,46083.000000,24188.000000
21082.000000,42679.000000,46043.000000,24182.000000
21047.000000,42687.000000,46046.000000,24198.000000
21065.000000,42646.000000,46065.000000,24176.000000
21060.000000,42653.000000,46029.000000,24166.000000
21019.000000,42631.000000,46033.000000,24166.000000
21035.000000,42640.000000,46007.000000,24164.000000
21010.000000,42615.000000,46058.000000,24159.000000
21044.000000,42590.000000,46005.000000,24174.000000
20984.000000,42631.000000,46040.000000,24142.000000
20983.000000,42527.000000,45990.000000,24127.000000
20974.000000,42561.000000,45984.000000,24145.000000
20936.000000,42563.000000,45997.000000,24134.000000
20951.000000,42529.000000,45971.000000,24133.000000
20935.000000,42541.000000,45953.000000,24158.000000
20912.000000,42493.000000,45956.000000,24133.000000
20916.000000,42533.000000,45953.000000,24138.000000
20885.000000,42509.000000,45969.000000,24148.000000
20910.000000,42505.000000,45955.000000,24139.000000
20900.000000,42489.000000,45945.000000,24126.000000
20889.000000,42497.000000,45946.000000,24134.000000
20891.000000,42520.000000,45915.000000,24124.000000
20879.000000,42443.000000,45927.000000,24114.000000
20890.000000,42468.000000,45935.000000,24120.000000
20851.000000,42445.000000,45936.000000,24118.000000
20890.000000,42444.000000,45926.000000,24135.000000
20868.000000,42463.000000,45929.000000,24116.000000
20841.000000,42447.000000,45919.000000,24124.000000
20868.000000,42405.000000,45909.000000,24129.000000
20815.000000,42440.000000,45913.000000,24108.000000
20836.000000,42397.000000,45919.000000,24111.000000
20826.000000,42390.000000,45909.000000,24105.000000
20781.000000,42388.000000,45894.000000,24077.000000
20803.000000,42392.000000,45880.000000,24088.000000
20795.000000,42402.000000,45861.000000,24096.000000
20762.000000,42396.000000,45883.000000,24104.000000
20774.000000,42402.000000,45879.000000,24092.000000
20770.000000,42336.000000,45897.000000,24090.000000
20762.000000,42351.000000,45867.000000,24076.000000
20718.000000,42334.000000,45865.000000,24097.000000
20745.000000,42357.000000,45856.000000,24081.000000
20745.000000,42318.000000,45824.000000,24088.000000
20712.000000,42285.000000,45851.000000,24092.000000
20715.000000,42276.000000,45858.000000,24092.000000
20679.000000,42322.000000,45825.000000,24066.000000
20736.000000,42279.000000,45834.000000,24075.000000
20724.000000,42287.000000,45834.000000,24054.000000
20680.000000,42277.000000,45843.000000,24056.000000
20659.000000,42238.000000,45805.000000,24069.000000
20679.000000,42265.000000,45785.000000,24045.000000
20642.000000,42241.000000,45780.000000,24058.000000
20639.000000,42228.000000,45815.000000,24027.000000
20619.000000,42225.000000,45779.000000,24056.000000
20627.000000,42206.000000,45767.000000,24045.000000
20641.000000,42209.000000,45789.000000,24040.000000
20625.000000,42217.000000,45772.000000,24077.000000
20631.000000,42218.000000,45779.000000,24057.000000
20617.000000,42174.000000,45797.000000,24061.000000
20645.000000,42207.000000,45761.000000,24052.000000
20628.000000,42192.000000,45777.000000,24070.000000
20635.000000,42190.000000,45783.000000,24062.000000
20680.000000,42208.000000,45788.000000,24053.000000
20662.000000,42250.000000,45810.000000,24068.000000
20696.000000,42212.000000,45810.000000,24061.000000
20681.000000,42282.000000,45810.000000,24048.000000
20686.000000,42263.000000,45837.000000,24068.000000
20705.000000,42284.000000,45840.000000,24043.000000
20718.000000,42321.000000,45839.000000,24082.000000
20761.000000,42326.000000,45894.000000,24087.000000
20781.000000,42376.000000,45855.000000,24088.000000
20805.000000,42357.000000,45903.000000,24078.000000
20795.000000,42373.000000,45899.000000,24108.000000
20822.000000,42402.000000,45924.000000,24100.000000
20829.000000,42439.000000,45924.000000,24103.000000
20870.000000,42463.000000,45933.000000,24109.000000
20885.000000,42473.000000,45949.000000,24103.000000
20956.000000,42513.000000,45935.000000,24129.000000
20932.000000,42539.000000,45955.000000,24109.000000
20958.000000,42548.000000,45987.000000,24126.000000
21023.000000,42587.000000,45991.000000,24118.000000
21010.000000,42610.000000,46017.000000,24154.000000
21040.000000,42629.000000,46038.000000,24180.000000
21085.000000,42648.000000,46082.000000,24142.000000
21071.000000,42704.000000,46077.000000,24159.000000
21117.000000,42743.000000,46086.000000,24167.000000
21167.000000,42791.000000,46110.000000,24168.000000
21202.000000,42775.000000,46155.000000,24178.000000
21230.000000,42827.000000,46138.000000,24170.000000
21285.000000,42864.000000,46145.000000,24206.000000
21315.000000,42859.000000,46196.000000,24206.000000
21330.000000,42912.000000,46184.000000,24206.000000
21342.000000,43012.000000,46248.000000,24235.000000
21359.000000,42983.000000,46255.000000,24246.000000
21402.000000,43045.000000,46243.000000,24247.000000
21438.000000,43062.000000,46297.000000,24245.000000
21489.000000,43072.000000,46268.000000,24254.000000
21518.000000,43154.000000,46314.000000,24273.000000
21519.000000,43151.000000,46343.000000,24282.000000
21585.000000,43211.000000,46350.000000,24290.000000
21582.000000,43216.000000,46404.000000,24289.000000
21637.000000,43253.000000,46375.000000,24304.000000
21654.000000,43313.000000,46417.000000,24330.000000
21661.000000,43320.000000,46447.000000,24312.000000
21753.000000,43364.000000,46487.000000,24334.000000
21705.000000,43368.000000,46455.000000,24353.000000
21763.000000,43389.000000,46461.000000,24384.000000
21756.000000,43437.000000,46470.000000,24352.000000
21740.000000,43405.000000,46481.000000,24364.000000
21770.000000,43401.000000,46490.000000,24364.000000
21764.000000,43405.000000,46497.000000,24385.000000
21766.000000,43414.000000,46499.000000,24380.000000
21756.000000,43422.000000,46486.000000,24336.000000
21765.000000,43384.000000,46481.000000,24366.000000
21776.000000,43391.000000,46488.000000,24370.000000
21726.000000,43424.000000,46473.000000,24342.000000
21744.000000,43339.000000,46479.000000,24336.000000
21748.000000,43358.000000,46472.000000,24344.000000
21714.000000,43346.000000,46467.000000,24358.000000
21716.000000,43328.000000,46449.000000,24343.000000
21704.000000,43330.000000,46475.000000,24336.000000
21707.000000,43329.000000,46455.000000,24355.000000
21689.000000,43332.000000,46454.000000,24337.000000
21663.000000,43350.000000,46454.000000,24329.000000
21668.000000,43309.000000,46425.000000,24333.000000
21680.000000,43321.000000,46446.000000,24309.000000
21653.000000,43276.000000,46436.000000,24332.000000
21664.000000,43325.000000,46434.000000,24334.000000
21656.000000,43290.000000,46442.000000,24328.000000
21690.000000,43269.000000,46415.000000,24311.000000
21644.000000,43277.000000,46415.000000,24320.000000
21621.000000,43254.000000,46404.000000,24303.000000
21626.000000,43216.000000,46388.000000,24310.000000
21603.000000,43248.000000,46403.000000,24350.000000
21596.000000,43244.000000,46383.000000,24317.000000
21592.000000,43223.000000,46367.000000,24321.000000
21545.000000,43218.000000,46377.000000,24324.000000
21594.000000,43207.000000,46339.000000,24333.000000
21542.000000,43219.000000,46328.000000,24312.000000
21543.000000,43176.000000,46368.000000,24325.000000
21535.000000,43203.000000,46357.000000,24294.000000
21533.000000,43136.000000,46345.000000,24313.000000
21532.000000,43132.000000,46311.000000,24308.000000
21518.000000,43162.000000,46328.000000,24298.000000
21500.000000,43117.000000,46302.000000,24305.000000
21477.000000,43125.000000,46312.000000,24275.000000
21488.000000,43092.000000,46322.000000,24301.000000
21472.000000,43107.000000,46328.000000,24284.000000
21487.000000,43115.000000,46291.000000,24301.000000
21481.000000,43064.000000,46298.000000,24283.000000
21437.000000,43073.000000,46301.000000,24288.000000
21447.000000,43021.000000,46285.000000,24300.000000
21438.000000,43070.000000,46271.000000,24333.000000
21407.000000,43051.000000,46280.000000,24281.000000
21417.000000,43048.000000,46247.000000,24280.000000
21390.000000,43054.000000,46257.000000,24270.000000
21391.000000,43001.000000,46255.000000,24267.000000
21390.000000,43006.000000,46252.000000,24265.000000
21364.000000,42958.000000,46256.000000,24290.000000
21351.000000,42975.000000,46208.000000,24268.000000
21342.000000,42987.000000,46187.000000,24249.000000
21292.000000,42923.000000,46207.000000,24242.000000
21325.000000,42919.000000,46222.000000,24266.000000
21299.000000,42902.000000,46197.000000,24265.000000
21317.000000,42886.000000,46184.000000,24225.000000
21270.000000,42885.000000,46175.000000,24238.000000
21229.000000,42867.000000,46127.000000,24239.000000
21212.000000,42824.000000,46180.000000,24222.000000
21228.000000,42832.000000,46149.000000,24230.000000
21145.000000,42859.000000,46170.000000,24217.000000
21162.000000,42804.000000,46092.000000,24233.000000
21176.000000,42810.000000,46131.000000,24223.000000
21158.000000,42774.000000,46118.000000,24203.000000
21169.000000,42769.000000,46095.000000,24201.000000
21119.000000,42783.000000,46073.000000,24231.000000
21110.000000,42758.000000,46106.000000,24182.000000
21154.000000,42756.000000,46099.000000,24220.000000
21111.000000,42703.000000,46080.000000,24198.000000
21119.000000,42742.000000,46065.000000,24192.000000
21112.000000,42762.000000,46065.000000,24193.000000
21102.000000,42723.000000,46105.000000,24223.000000
21141.000000,42743.000000,46077.000000,24208.000000
21104.000000,42710.000000,46073.000000,24188.000000
21116.000000,42739.000000,46060.000000,24199.000000
21085.000000,42731.000000,46072.000000,24189.000000
21115.000000,42707.000000,46063.000000,24227.000000
21083.000000,42717.000000,46057.000000,24224.000000
21083.000000,42704.000000,46026.000000,24198.000000
21081.000000,42673.000000,46061.000000,24188.000000
21090.000000,42696.000000,46058.000000,24199.000000
21043.000000,42691.000000,46065.000000,24194.000000
21095.000000,42665.000000,46062.000000,24147.000000
21061.000000,42664.000000,46067.000000,24179.000000
21085.000000,42645.000000,46050.000000,24189.000000
21077.000000,42674.000000,46038.000000,24164.000000
21044.000000,42662.000000,46037.000000,24185.000000
21068.000000,42647.000000,46038.000000,24160.000000
21054.000000,42644.000000,46060.000000,24172.000000
21083.000000,42652.000000,46028.000000,24167.000000
21061.000000,42625.000000,46029.000000,24182.000000
21046.000000,42602.000000,46004.000000,24170.000000
21049.000000,42614.000000,46028.000000,24169.000000
21026.000000,42622.000000,46044.000000,24187.000000
21045.000000,42608.000000,46014.000000,24168.000000
21016.000000,42616.000000,46022.000000,24171.000000
21014.000000,42612.000000,46038.000000,24148.000000
21027.000000,42595.000000,46024.000000,24166.000000
20973.000000,42604.000000,46038.000000,24150.000000
21012.000000,42574.000000,46028.000000,24152.000000
21014.000000,42595.000000,46029.000000,24170.000000
20996.000000,42569.000000,46019.000000,24164.000000
21026.000000,42607.000000,46020.000000,24147.000000
21019.000000,42558.000000,46037.000000,24167.000000
20990.000000,42579.000000,46006.000000,24150.000000
20968.000000,42560.000000,46017.000000,24152.000000
21009.000000,42538.000000,46011.000000,24167.000000
20983.000000,42564.000000,45987.000000,24150.000000
20960.000000,42556.000000,46003.000000,24161.000000
20943.000000,42553.000000,45960.000000,24158.000000
20943.000000,42528.000000,45998.000000,24141.000000
20996.000000,42529.000000,45986.000000,24129.000000
20939.000000,42519.000000,46031.000000,24137.000000
20965.000000,42505.000000,45980.000000,24144.000000
20954.000000,42525.000000,45971.000000,24111.000000
20996.000000,42490.000000,46007.000000,24160.000000
20944.000000,42491.000000,45976.000000,24126.000000
20936.000000,42468.000000,45992.000000,24128.000000
20920.000000,42477.000000,45958.000000,24127.000000
20918.000000,42510.000000,45960.000000,24138.000000
20928.000000,42469.000000,45965.000000,24170.000000
20871.000000,42456.000000,45934.000000,24103.000000
20904.000000,42479.000000,45954.000000,24125.000000
20898.000000,42427.000000,45925.000000,24121.000000
20850.000000,42461.000000,45951.000000,24126.000000
20871.000000,42445.000000,45935.000000,24133.000000
20849.000000,42468.000000,45920.000000,24126.000000
20850.000000,42422.000000,45939.000000,24133.000000
20853.000000,42459.000000,45916.000000,24104.000000
20836.000000,42409.000000,45932.000000,24123.000000
20826.000000,42409.000000,45923.000000,24133.000000
20801.000000,42425.000000,45916.000000,24118.000000
20807.000000,42389.000000,45899.000000,24137.000000
20814.000000,42373.000000,45900.000000,24097.000000
20800.000000,42368.000000,45893.000000,24113.000000
20811.000000,42373.000000,45895.000000,24094.000000
20774.000000,42371.000000,45886.000000,24101.000000
20786.000000,42367.000000,45893.000000,24094.000000
20782.000000,42387.000000,45892.000000,24109.000000
20768.000000,42350.000000,45887.000000,24086.000000
20768.000000,42359.000000,45880.000000,24072.000000
20778.000000,42354.000000,45870.000000,24073.000000
20734.000000,42358.000000,45909.000000,24116.000000
20762.000000,42364.000000,45890.000000,24101.000000
20820.000000,42361.000000,45900.000000,24116.000000
20805.000000,42369.000000,45891.000000,24070.000000
20810.000000,42376.000000,45927.000000,24080.000000
20849.000000,42423.000000,45910.000000,24110.000000
20828.000000,42400.000000,45934.000000,24106.000000
20852.000000,42456.000000,45902.000000,24111.000000
20871.000000,42422.000000,45954.000000,24128.000000
20895.000000,42438.000000,45976.000000,24116.000000
20911.000000,42479.000000,45961.000000,24113.000000
20971.000000,42495.000000,45971.000000,24101.000000
20935.000000,42551.000000,45980.000000,24117.000000
20944.000000,42552.000000,45973.000000,24141.000000
20961.000000,42562.000000,45986.000000,24144.000000
20986.000000,42577.000000,46029.000000,24119.000000
21019.000000,42607.000000,46038.000000,24136.000000
21032.000000,42605.000000,46070.000000,24141.000000
21074.000000,42652.000000,46081.000000,24151.000000
21106.000000,42678.000000,46069.000000,24146.000000
21094.000000,42704.000000,46125.000000,24152.000000
21127.000000,42732.000000,46099.000000,24168.000000
21163.000000,42740.000000,46148.000000,24200.000000
21243.000000,42806.000000,46140.000000,24200.000000
21208.000000,42822.000000,46132.000000,24202.000000
21268.000000,42817.000000,46174.000000,24189.000000
21302.000000,42870.000000,46206.000000,24207.000000
21288.000000,42877.000000,46215.000000,24216.000000
21359.000000,42944.000000,46233.000000,24222.000000
21370.000000,42952.000000,46243.000000,24216.000000
21416.000000,43009.000000,46256.000000,24218.000000
21459.000000,43044.000000,46275.000000,24254.000000
21428.000000,43056.000000,46297.000000,24260.000000
21497.000000,43099.000000,46307.000000,24265.000000
21496.000000,43136.000000,46345.000000,24276.000000
21554.000000,43174.000000,46337.000000,24288.000000
21572.000000,43234.000000,46377.000000,24289.000000
21599.000000,43227.000000,46402.000000,24292.000000
21666.000000,43288.000000,46398.000000,24309.000000
21692.000000,43282.000000,46459.000000,24336.000000
21730.000000,43344.000000,46445.000000,24302.000000
21722.000000,43379.000000,46493.000000,24351.000000
21785.000000,43375.000000,46476.000000,24379.000000
21798.000000,43458.000000,46465.000000,24352.000000
21843.000000,43487.000000,46512.000000,24359.000000
21818.000000,43518.000000,46559.000000,24379.000000
21819.000000,43501.000000,46566.000000,24397.000000
21845.000000,43506.000000,46562.000000,24394.000000
21862.000000,43553.000000,46556.000000,24399.000000
21883.000000,43543.000000,46531.000000,24415.000000
21872.000000,43522.000000,46555.000000,24406.000000
21861.000000,43500.000000,46557.000000,24366.000000
21860.000000,43515.000000,46528.000000,24378.000000
21827.000000,43489.000000,46544.000000,24408.000000
21838.000000,43503.000000,46551.000000,24373.000000
21806.000000,43490.000000,46540.000000,24380.000000
21840.000000,43480.000000,46521.000000,24389.000000
21811.000000,43471.000000,46516.000000,24381.000000
21824.000000,43468.000000,46534.000000,24396.000000
21820.000000,43462.000000,46516.000000,24387.000000
21830.000000,43437.000000,46506.000000,24393.000000
21800.000000,43438.000000,46503.000000,24370.000000
21765.000000,43446.000000,46498.000000,24362.000000
21776.000000,43427.000000,46502.000000,24357.000000
21748.000000,43436.000000,46514.000000,24347.000000
21752.000000,43426.000000,46480.000000,24378.000000
21742.000000,43408.000000,46495.000000,24380.000000
21719.000000,43360.000000,46502.000000,24383.000000
21746.000000,43398.000000,46465.000000,24371.000000
21697.000000,43366.000000,46464.000000,24367.000000
21740.000000,43378.000000,46448.000000,24354.000000
21696.000000,43358.000000,46481.000000,24345.000000
21721.000000,43346.000000,46460.000000,24338.000000
21713.000000,43389.000000,46449.000000,24370.000000
21699.000000,43318.000000,46443.000000,24372.000000
21674.000000,43366.000000,46434.000000,24375.000000
21663.000000,43330.000000,46416.000000,24365.000000
21678.000000,43326.000000,46424.000000,24357.000000
21648.000000,43298.000000,46434.000000,24342.000000
21661.000000,43269.000000,46427.000000,24338.000000
21643.000000,43286.000000,46416.000000,24347.000000
21664.000000,43282.000000,46408.000000,24328.000000
21594.000000,43268.000000,46394.000000,24351.000000
21632.000000,43253.000000,46391.000000,24346.000000
21628.000000,43247.000000,46388.000000,24330.000000
21616.000000,43240.000000,46390.000000,24336.000000
21599.000000,43246.000000,46382.000000,24337.000000
21577.000000,43222.000000,46417.000000,24329.000000
21596.000000,43214.000000,46354.000000,24320.000000
21566.000000,43233.000000,46343.000000,24322.000000
21596.000000,43195.000000,46353.000000,24296.000000
21575.000000,43191.000000,46346.000000,24321.000000
21553.000000,43165.000000,46336.000000,24338.000000
21526.000000,43155.000000,46350.000000,24324.000000
21515.000000,43120.000000,46337.000000,24326.000000
21521.000000,43125.000000,46329.000000,24300.000000
21508.000000,43104.000000,46333.000000,24298.000000
21479.000000,43095.000000,46308.000000,24301.000000
21456.000000,43094.000000,46332.000000,24289.000000
21466.000000,43083.000000,46284.000000,24276.000000
21437.000000,43116.000000,46287.000000,24274.000000
21434.000000,43050.000000,46269.000000,24279.000000
21389.000000,43068.000000,46257.000000,24294.000000
21416.000000,43040.000000,46291.000000,24289.000000
21398.000000,43030.000000,46253.000000,24281.000000
21379.000000,43027.000000,46265.000000,24280.000000
21393.000000,43029.000000,46248.000000,24269.000000
21370.000000,42990.000000,46231.000000,24268.000000
21364.000000,42974.000000,46232.000000,24258.000000
21346.000000,42990.000000,46235.000000,24286.000000
21359.000000,42967.000000,46198.000000,24253.000000
21331.000000,42971.000000,46233.000000,24244.000000
21332.000000,42941.000000,46188.000000,24264.000000
21312.000000,42939.000000,46184.000000,24243.000000
21287.000000,42909.000000,46201.000000,24255.000000
21314.000000,42916.000000,46188.000000,24232.000000
21247.000000,42900.000000,46164.000000,24223.000000
21267.000000,42868.000000,46155.000000,24233.000000
21242.000000,42844.000000,46183.000000,24209.000000
21227.000000,42829.000000,46149.000000,24211.000000
21211.000000,42842.000000,46141.000000,24233.000000
21212.000000,42790.000000,46136.000000,24224.000000
21214.000000,42814.000000,46108.000000,24215.000000
21146.000000,42772.000000,46117.000000,24201.000000
21178.000000,42808.000000,46142.000000,24205.000000
21169.000000,42768.000000,46146.000000,24233.000000
21166.000000,42774.000000,46116.000000,24224.000000
21155.000000,42755.000000,46149.000000,24221.000000
21144.000000,42706.000000,46085.000000,24241.000000
21126.000000,42757.000000,46064.000000,24172.000000
21132.000000,42707.000000,46068.000000,24191.000000
21118.000000,42711.000000,46071.000000,24193.000000
21099.000000,42671.000000,46080.000000,24209.000000
21107.000000,42646.000000,46050.000000,24176.000000
21074.000000,42654.000000,46039.000000,24171.000000
21026.000000,42608.000000,46028.000000,24214.000000
21079.000000,42597.000000,46029.000000,24161.000000
21033.000000,42601.000000,46064.000000,24166.000000
21011.000000,42604.000000,46012.000000,24186.000000
21020.000000,42631.000000,46021.000000,24158.000000
20992.000000,42580.000000,45969.000000,24173.000000
21000.000000,42607.000000,45989.000000,24180.000000
20953.000000,42547.000000,45995.000000,24167.000000
20975.000000,42532.000000,45975.000000,24147.000000
20948.000000,42555.000000,45974.000000,24155.000000
20979.000000,42517.000000,45971.000000,24154.000000
20968.000000,42538.000000,45969.000000,24161.000000
20933.000000,42499.000000,45955.000000,24162.000000
20948.000000,42541.000000,45950.000000,24163.000000
20928.000000,42502.000000,45961.000000,24136.000000
20904.000000,42477.000000,45938.000000,24132.000000
20908.000000,42519.000000,45936.000000,24137.000000
20893.000000,42452.000000,45939.000000,24138.000000
20879.000000,42467.000000,45914.000000,24123.000000
20859.000000,42447.000000,45932.000000,24116.000000
20883.000000,42469.000000,45913.000000,24135.000000
20837.000000,42438.000000,45927.000000,24132.000000
20878.000000,42414.000000,45894.000000,24134.000000
20813.000000,42433.000000,45926.000000,24122.000000
20833.000000,42450.000000,45900.000000,24137.000000
20841.000000,42413.000000,45896.000000,24113.000000
20810.000000,42407.000000,45909.000000,24131.000000
20815.000000,42400.000000,45869.000000,24129.000000
20790.000000,42391.000000,45893.000000,24121.000000
20817.000000,42371.000000,45877.000000,24099.000000
20798.000000,42375.000000,45857.000000,24141.000000
20793.000000,42389.000000,45890.000000,24105.000000
20806.000000,42379.000000,45859.000000,24133.000000
20780.000000,42390.000000,45880.000000,24105.000000
20829.000000,42370.000000,45873.000000,24119.000000
20788.000000,42410.000000,45867.000000,24109.000000
20770.000000,42382.000000,45888.000000,24109.000000
20823.000000,42372.000000,45848.000000,24093.000000
20744.000000,42337.000000,45867.000000,24119.000000
20763.000000,42306.000000,45852.000000,24116.000000
20732.000000,42357.000000,45852.000000,24104.000000
20763.000000,42291.000000,45838.000000,24120.000000
20775.000000,42320.000000,45852.000000,24086.000000
20784.000000,42318.000000,45853.000000,24102.000000
20732.000000,42338.000000,45837.000000,24090.000000
20736.000000,42317.000000,45843.000000,24105.000000
20737.000000,42282.000000,45850.000000,24099.000000
20735.000000,42278.000000,45826.000000,24083.000000
20733.000000,42287.000000,45838.000000,24071.000000
20716.000000,42314.000000,45830.000000,24059.000000
20714.000000,42262.000000,45807.000000,24089.000000
20709.000000,42292.000000,45816.000000,24097.000000
20665.000000,42247.000000,45816.000000,24088.000000
20680.000000,42257.000000,45800.000000,24087.000000
20687.000000,42256.000000,45819.000000,24095.000000
20657.000000,42214.000000,45819.000000,24073.000000
20706.000000,42251.000000,45786.000000,24074.000000
20674.000000,42229.000000,45780.000000,24097.000000
20683.000000,42239.000000,45812.000000,24092.000000
20663.000000,42225.000000,45810.000000,24062.000000
20713.000000,42249.000000,45796.000000,24108.000000
20722.000000,42293.000000,45829.000000,24063.000000
20711.000000,42255.000000,45826.000000,24105.000000
20709.000000,42284.000000,45803.000000,24070.000000
20718.000000,42264.000000,45828.000000,24092.000000
20758.000000,42329.000000,45842.000000,24089.000000
20764.000000,42328.000000,45858.000000,24093.000000
20796.000000,42367.000000,45863.000000,24114.000000
20810.000000,42378.000000,45882.000000,24081.000000
20804.000000,42399.000000,45877.000000,24104.000000
20844.000000,42398.000000,45892.000000,24111.000000
20843.000000,42398.000000,45898.000000,24113.000000
20912.000000,42447.000000,45931.000000,24125.000000
20903.000000,42479.000000,45963.000000,24114.000000
20896.000000,42484.000000,45945.000000,24140.000000
20945.000000,42528.000000,45957.000000,24114.000000
20982.000000,42543.000000,45985.000000,24129.000000
20993.000000,42586.000000,45991.000000,24155.000000
21009.000000,42580.000000,46007.000000,24175.000000
21061.000000,42639.000000,46045.000000,24184.000000
21057.000000,42688.000000,46061.000000,24147.000000
21087.000000,42674.000000,46067.000000,24178.000000
21119.000000,42732.000000,46065.000000,24174.000000
21160.000000,42755.000000,46119.000000,24197.000000
21215.000000,42775.000000,46093.000000,24205.000000
21222.000000,42795.000000,46117.000000,24189.000000
21254.000000,42839.000000,46156.000000,24193.000000
21354.000000,42961.000000,46187.000000,24230.000000
21392.000000,42959.000000,46223.000000,24229.000000
21435.000000,42963.000000,46213.000000,24265.000000
21403.000000,43072.000000,46270.000000,24255.000000
21476.000000,43044.000000,46275.000000,24287.000000
21500.000000,43127.000000,46319.000000,24257.000000
21538.000000,43149.000000,46294.000000,24284.000000
21542.000000,43194.000000,46320.000000,24280.000000
21591.000000,43205.000000,46361.000000,24279.000000
21650.000000,43263.000000,46400.000000,24318.000000
21658.000000,43274.000000,46389.000000,24320.000000
21717.000000,43311.000000,46409.000000,24308.000000
21696.000000,43370.000000,46438.000000,24345.000000
21744.000000,43376.000000,46465.000000,24376.000000
21755.000000,43388.000000,46461.000000,24337.000000
21774.000000,43429.000000,46502.000000,24366.000000
21809.000000,43480.000000,46517.000000,24367.000000
21765.000000,43441.000000,46499.000000,24375.000000
21821.000000,43426.000000,46504.000000,24373.000000
21829.000000,43494.000000,46513.000000,24404.000000
21833.000000,43472.000000,46519.000000,24395.000000
21830.000000,43514.000000,46501.000000,24396.000000
21801.000000,43480.000000,46534.000000,24390.000000
21837.000000,43486.000000,46514.000000,24385.000000
21793.000000,43456.000000,46539.000000,24393.000000
21826.000000,43454.000000,46495.000000,24353.000000
21803.000000,43449.000000,46530.000000,24401.000000
21803.000000,43446.000000,46500.000000,24392.000000
21765.000000,43458.000000,46514.000000,24373.000000
21757.000000,43419.000000,46482.000000,24383.000000
21769.000000,43426.000000,46474.000000,24398.000000
21748.000000,43410.000000,46478.000000,24388.000000
21730.000000,43416.000000,46482.000000,24370.000000
21756.000000,43387.000000,46472.000000,24366.000000
21693.000000,43366.000000,46453.000000,24381.000000
21737.000000,43376.000000,46440.000000,24379.000000
21712.000000,43368.000000,46449.000000,24362.000000
21689.000000,43374.000000,46455.000000,24370.000000
21677.000000,43349.000000,46427.000000,24355.000000
21666.000000,43344.000000,46403.000000,24350.000000
21692.000000,43319.000000,46435.000000,24363.000000
21682.000000,43352.000000,46426.000000,24354.000000
21687.000000,43313.000000,46426.000000,24353.000000
21639.000000,43285.000000,46440.000000,24365.000000
21652.000000,43280.000000,46408.000000,24342.000000
21642.000000,43325.000000,46406.000000,24335.000000
21601.000000,43265.000000,46427.000000,24359.000000
21634.000000,43303.000000,46396.000000,24356.000000
21647.000000,43285.000000,46412.000000,24347.000000
21648.000000,43260.000000,46373.000000,24330.000000
21585.000000,43248.000000,46401.000000,24316.000000
21627.000000,43281.000000,46388.000000,24345.000000
21579.000000,43260.000000,46414.000000,24359.000000
21606.000000,43225.000000,46374.000000,24332.000000
21571.000000,43259.000000,46364.000000,24320.000000
21552.000000,43195.000000,46355.000000,24344.000000
21558.000000,43221.000000,46367.000000,24338.000000
21542.000000,43214.000000,46341.000000,24331.000000
21519.000000,43189.000000,46353.000000,24335.000000
21523.000000,43185.000000,46323.000000,24291.000000
21527.000000,43189.000000,46346.000000,24318.000000
21524.000000,43174.000000,46337.000000,24307.000000
21524.000000,43162.000000,46293.000000,24307.000000
21523.000000,43137.000000,46312.000000,24321.000000
21475.000000,43120.000000,46332.000000,24325.000000
21482.000000,43107.000000,46302.000000,24302.000000
21467.000000,43105.000000,46306.000000,24276.000000
21455.000000,43118.000000,46284.000000,24308.000000
21460.000000,43103.000000,46284.000000,24291.000000
21469.000000,43076.000000,46282.000000,24297.000000
