660nm,730nm,850nm,940nm
14974.000000,38654.000000,43098.000000,23821.000000
14842.000000,38497.000000,43039.000000,23789.000000
14855.000000,38478.000000,43020.000000,23794.000000
14767.000000,38426.000000,42958.000000,23773.000000
14727.000000,38375.000000,42981.000000,23769.000000
14756.000000,38389.000000,42957.000000,23779.000000
14729.000000,38326.000000,42939.000000,23772.000000
14697.000000,38323.000000,42942.000000,23766.000000
14652.000000,38311.000000,42901.000000,23738.000000
14627.000000,38247.000000,42882.000000,23751.000000
14629.000000,38232.000000,42870.000000,23736.000000
14605.000000,38252.000000,42887.000000,23733.000000
14586.000000,38256.000000,42860.000000,23727.000000
14610.000000,38227.000000,42844.000000,23712.000000
14505.000000,38142.000000,42843.000000,23705.000000
14524.000000,38145.000000,42795.000000,23735.000000
14492.000000,38124.000000,42819.000000,23713.000000
14444.000000,38016.000000,42767.000000,23669.000000
14445.000000,38006.000000,42748.000000,23695.000000
14407.000000,37998.000000,42718.000000,23689.000000
14382.000000,37974.000000,42715.000000,23669.000000
14380.000000,37977.000000,42709.000000,23665.000000
14348.000000,37952.000000,42708.000000,23660.000000
14305.000000,37889.000000,42693.000000,23658.000000
14279.000000,37864.000000,42660.000000,23641.000000
14236.000000,37856.000000,42635.000000,23623.000000
14245.000000,37771.000000,42619.000000,23633.000000
14142.000000,37720.000000,42588.000000,23630.000000
14151.000000,37731.000000,42570.000000,23579.000000
14114.000000,37667.000000,42589.000000,23584.000000
14132.000000,37671.000000,42531.000000,23600.000000
14081.000000,37682.000000,42549.000000,23592.000000
14034.000000,37625.000000,42562.000000,23592.000000
14073.000000,37630.000000,42532.000000,23597.000000
14032.000000,37563.000000,42475.000000,23559.000000
14010.000000,37534.000000,42492.000000,23528.000000
14011.000000,37517.000000,42468.000000,23553.000000
13927.000000,37490.000000,42429.000000,23551.000000
13914.000000,37435.000000,42416.000000,23519.000000
13902.000000,37453.000000,42417.000000,23534.000000
13880.000000,37431.000000,42430.000000,23497.000000
13860.000000,37371.000000,42358.000000,23528.000000
13844.000000,37381.000000,42397.000000,23517.000000
13803.000000,37293.000000,42362.000000,23486.000000
13786.000000,37278.000000,42311.000000,23502.000000
13756.000000,37259.000000,42338.000000,23470.000000
13666.000000,37164.000000,42275.000000,23445.000000
13692.000000,37140.000000,42250.000000,23445.000000
13662.000000,37112.000000,42255.000000,23427.000000
13654.000000,37102.000000,42256.000000,23433.000000
13636.000000,37152.000000,42239.000000,23445.000000
13650.000000,37115.000000,42250.000000,23441.000000
13732.000000,37188.000000,42269.000000,23457.000000
13712.000000,37239.000000,42272.000000,23459.000000
13749.000000,37222.000000,42314.000000,23473.000000
13848.000000,37354.000000,42334.000000,23484.000000
13863.000000,37368.000000,42418.000000,23504.000000
13874.000000,37386.000000,42404.000000,23525.000000
13903.000000,37472.000000,42401.000000,23526.000000
13961.000000,37455.000000,42456.000000,23547.000000
14065.000000,37588.000000,42510.000000,23557.000000
14043.000000,37583.000000,42549.000000,23549.000000
14240.000000,37809.000000,42607.000000,23589.000000
14275.000000,37839.000000,42654.000000,23619.000000
14325.000000,37895.000000,42697.000000,23640.000000
14351.000000,37952.000000,42706.000000,23631.000000
14625.000000,38267.000000,42891.000000,23716.000000
14690.000000,38307.000000,42934.000000,23728.000000
14764.000000,38388.000000,42986.000000,23764.000000
14996.000000,38667.000000,43099.000000,23836.000000
14985.000000,38654.000000,43135.000000,23824.000000
15034.000000,38716.000000,43160.000000,23848.000000
15042.000000,38715.000000,43186.000000,23850.000000
15053.000000,38712.000000,43166.000000,23861.000000
15042.000000,38699.000000,43126.000000,23852.000000
14944.000000,38644.000000,43129.000000,23842.000000
14965.000000,38594.000000,43083.000000,23870.000000
14928.000000,38597.000000,43095.000000,23840.000000
14952.000000,38588.000000,43116.000000,23847.000000
14922.000000,38561.000000,43052.000000,23837.000000
14875.000000,38528.000000,43068.000000,23807.000000
14871.000000,38522.000000,43068.000000,23810.000000
14818.000000,38463.000000,43039.000000,23797.000000
14789.000000,38433.000000,42993.000000,23811.000000
14767.000000,38430.000000,42986.000000,23779.000000
14762.000000,38407.000000,42977.000000,23800.000000
14719.000000,38338.000000,42954.000000,23793.000000
14699.000000,38319.000000,42910.000000,23778.000000
14642.000000,38264.000000,42891.000000,23717.000000
14633.000000,38208.000000,42866.000000,23749.000000
14580.000000,38236.000000,42874.000000,23737.000000
14559.000000,38206.000000,42873.000000,23724.000000
14552.000000,38202.000000,42879.000000,23746.000000
14487.000000,38116.000000,42816.000000,23694.000000
14461.000000,38070.000000,42773.000000,23700.000000
14445.000000,38044.000000,42764.000000,23673.000000
14428.000000,38014.000000,42765.000000,23699.000000
14448.000000,38021.000000,42761.000000,23665.000000
14387.000000,37984.000000,42760.000000,23663.000000
14294.000000,37938.000000,42700.000000,23666.000000
14294.000000,37870.000000,42681.000000,23646.000000
14289.000000,37875.000000,42656.000000,23621.000000
14255.000000,37857.000000,42659.000000,23619.000000
14229.000000,37849.000000,42652.000000,23632.000000
14206.000000,37825.000000,42635.000000,23624.000000
14190.000000,37730.000000,42609.000000,23596.000000
14165.000000,37757.000000,42599.000000,23589.000000
14129.000000,37713.000000,42589.000000,23587.000000
14136.000000,37648.000000,42550.000000,23578.000000
14069.000000,37666.000000,42556.000000,23572.000000
14008.000000,37566.000000,42506.000000,23567.000000
14022.000000,37543.000000,42468.000000,23540.000000
13978.000000,37499.000000,42494.000000,23529.000000
13975.000000,37506.000000,42447.000000,23548.000000
13914.000000,37487.000000,42442.000000,23519.000000
13907.000000,37443.000000,42439.000000,23527.000000
13871.000000,37428.000000,42376.000000,23508.000000
13821.000000,37403.000000,42367.000000,23511.000000
13807.000000,37327.000000,42375.000000,23485.000000
13813.000000,37341.000000,42359.000000,23456.000000
13773.000000,37347.000000,42372.000000,23475.000000
13829.000000,37361.000000,42366.000000,23517.000000
13874.000000,37367.000000,42393.000000,23486.000000
13840.000000,37419.000000,42415.000000,23495.000000
13937.000000,37512.000000,42449.000000,23513.000000
13970.000000,37514.000000,42484.000000,23524.000000
14001.000000,37573.000000,42492.000000,23519.000000
14042.000000,37628.000000,42497.000000,23558.000000
14046.000000,37640.000000,42566.000000,23568.000000
14102.000000,37654.000000,42539.000000,23576.000000
14130.000000,37716.000000,42572.000000,23558.000000
14120.000000,37717.000000,42607.000000,23573.000000
14290.000000,37865.000000,42704.000000,23621.000000
14290.000000,37878.000000,42697.000000,23629.000000
14327.000000,37938.000000,42727.000000,23628.000000
14511.000000,38105.000000,42785.000000,23652.000000
14543.000000,38173.000000,42816.000000,23661.000000
14600.000000,38233.000000,42889.000000,23702.000000
14774.000000,38416.000000,42992.000000,23747.000000
14814.000000,38511.000000,43034.000000,23765.000000
14864.000000,38546.000000,43081.000000,23772.000000
14934.000000,38612.000000,43113.000000,23787.000000
14955.000000,38650.000000,43161.000000,23814.000000
15086.000000,38778.000000,43208.000000,23847.000000
15127.000000,38842.000000,43219.000000,23879.000000
15121.000000,38840.000000,43253.000000,23875.000000
15145.000000,38858.000000,43211.000000,23891.000000
15111.000000,38832.000000,43225.000000,23861.000000
15040.000000,38749.000000,43165.000000,23846.000000
15017.000000,38697.000000,43197.000000,23860.000000
15006.000000,38714.000000,43146.000000,23840.000000
14980.000000,38656.000000,43181.000000,23827.000000
15006.000000,38649.000000,43147.000000,23857.000000
14875.000000,38583.000000,43091.000000,23805.000000
14907.000000,38569.000000,43075.000000,23791.000000
14862.000000,38549.000000,43125.000000,23795.000000
14907.000000,38502.000000,43064.000000,23808.000000
14860.000000,38513.000000,43050.000000,23797.000000
14774.000000,38471.000000,43048.000000,23763.000000
14832.000000,38462.000000,43020.000000,23784.000000
14731.000000,38381.000000,42954.000000,23742.000000
14710.000000,38355.000000,42963.000000,23756.000000
14695.000000,38310.000000,42972.000000,23773.000000
14701.000000,38343.000000,42954.000000,23758.000000
14604.000000,38253.000000,42936.000000,23742.000000
14639.000000,38302.000000,42901.000000,23744.000000
14603.000000,38228.000000,42903.000000,23713.000000
14613.000000,38229.000000,42897.000000,23724.000000
14602.000000,38222.000000,42855.000000,23720.000000
14488.000000,38122.000000,42827.000000,23698.000000
14529.000000,38068.000000,42805.000000,23693.000000
14497.000000,38097.000000,42805.000000,23715.000000
14434.000000,38044.000000,42819.000000,23685.000000
14438.000000,38018.000000,42777.000000,23703.000000
14409.000000,38022.000000,42774.000000,23678.000000
14379.000000,37992.000000,42732.000000,23681.000000
14389.000000,37962.000000,42741.000000,23660.000000
14314.000000,37905.000000,42715.000000,23646.000000
14281.000000,37849.000000,42719.000000,23632.000000
14321.000000,37839.000000,42679.000000,23633.000000
14270.000000,37849.000000,42650.000000,23610.000000
14271.000000,37783.000000,42662.000000,23616.000000
14230.000000,37774.000000,42646.000000,23597.000000
14145.000000,37740.000000,42605.000000,23607.000000
14181.000000,37674.000000,42605.000000,23612.000000
14145.000000,37696.000000,42590.000000,23587.000000
14129.000000,37667.000000,42620.000000,23558.000000
14136.000000,37642.000000,42574.000000,23563.000000
14021.000000,37567.000000,42506.000000,23542.000000
14024.000000,37508.000000,42517.000000,23546.000000
14005.000000,37519.000000,42496.000000,23516.000000
13955.000000,37489.000000,42505.000000,23542.000000
13952.000000,37432.000000,42465.000000,23535.000000
13879.000000,37322.000000,42388.000000,23477.000000
13821.000000,37332.000000,42400.000000,23461.000000
13828.000000,37276.000000,42387.000000,23507.000000
13824.000000,37314.000000,42365.000000,23477.000000
13802.000000,37280.000000,42409.000000,23473.000000
13844.000000,37325.000000,42362.000000,23479.000000
13821.000000,37319.000000,42415.000000,23501.000000
13908.000000,37400.000000,42436.000000,23502.000000
13955.000000,37443.000000,42457.000000,23491.000000
13984.000000,37447.000000,42459.000000,23526.000000
14017.000000,37496.000000,42501.000000,23522.000000
14017.000000,37551.000000,42534.000000,23544.000000
14129.000000,37675.000000,42617.000000,23568.000000
14208.000000,37680.000000,42621.000000,23559.000000
14206.000000,37752.000000,42661.000000,23596.000000
14267.000000,37773.000000,42683.000000,23589.000000
14277.000000,37805.000000,42677.000000,23606.000000
14309.000000,37850.000000,42706.000000,23629.000000
14390.000000,37957.000000,42768.000000,23650.000000
14445.000000,38009.000000,42786.000000,23661.000000
14494.000000,38043.000000,42822.000000,23656.000000
14670.000000,38248.000000,42929.000000,23723.000000
14661.000000,38286.000000,42967.000000,23702.000000
14731.000000,38344.000000,42995.000000,23764.000000
14936.000000,38563.000000,43110.000000,23799.000000
14974.000000,38606.000000,43177.000000,23807.000000
15159.000000,38768.000000,43248.000000,23895.000000
15202.000000,38846.000000,43272.000000,23895.000000
15198.000000,38859.000000,43294.000000,23902.000000
15196.000000,38881.000000,43300.000000,23891.000000
15223.000000,38864.000000,43294.000000,23909.000000
15253.000000,38866.000000,43292.000000,23890.000000
15158.000000,38857.000000,43291.000000,23891.000000
15170.000000,38809.000000,43277.000000,23874.000000
15139.000000,38761.000000,43255.000000,23882.000000
15113.000000,38772.000000,43242.000000,23876.000000
15108.000000,38764.000000,43233.000000,23864.000000
15125.000000,38758.000000,43213.000000,23859.000000
15056.000000,38668.000000,43190.000000,23862.000000
15038.000000,38649.000000,43147.000000,23829.000000
14933.000000,38557.000000,43077.000000,23837.000000
14923.000000,38548.000000,43106.000000,23828.000000
14921.000000,38527.000000,43078.000000,23830.000000
14900.000000,38522.000000,43073.000000,23807.000000
14867.000000,38499.000000,43041.000000,23820.000000
14853.000000,38474.000000,43044.000000,23802.000000
14810.000000,38427.000000,43043.000000,23791.000000
14823.000000,38377.000000,43016.000000,23791.000000
14753.000000,38356.000000,42995.000000,23768.000000
14732.000000,38310.000000,42973.000000,23751.000000
14679.000000,38223.000000,42945.000000,23744.000000
14628.000000,38216.000000,42924.000000,23729.000000
14653.000000,38187.000000,42867.000000,23725.000000
14594.000000,38190.000000,42877.000000,23724.000000
14596.000000,38137.000000,42874.000000,23710.000000
14584.000000,38139.000000,42873.000000,23738.000000
14495.000000,38032.000000,42807.000000,23709.000000
14455.000000,37991.000000,42813.000000,23675.000000
14480.000000,37980.000000,42767.000000,23677.000000
14402.000000,37985.000000,42766.000000,23691.000000
14400.000000,37953.000000,42761.000000,23663.000000
14366.000000,37894.000000,42710.000000,23649.000000
14361.000000,37855.000000,42749.000000,23636.000000
14342.000000,37840.000000,42693.000000,23662.000000
14290.000000,37842.000000,42700.000000,23627.000000
14219.000000,37720.000000,42662.000000,23628.000000
14213.000000,37723.000000,42610.000000,23602.000000
14191.000000,37664.000000,42601.000000,23615.000000
14168.000000,37661.000000,42606.000000,23595.000000
14165.000000,37652.000000,42568.000000,23612.000000
14147.000000,37579.000000,42577.000000,23600.000000
14120.000000,37603.000000,42549.000000,23591.000000
14055.000000,37525.000000,42505.000000,23554.000000
14017.000000,37493.000000,42499.000000,23519.000000
14018.000000,37471.000000,42482.000000,23567.000000
13972.000000,37413.000000,42487.000000,23534.000000
14000.000000,37422.000000,42439.000000,23521.000000
13905.000000,37373.000000,42401.000000,23525.000000
13897.000000,37298.000000,42406.000000,23540.000000
13821.000000,37228.000000,42351.000000,23481.000000
13770.000000,37253.000000,42320.000000,23484.000000
13751.000000,37145.000000,42318.000000,23463.000000
13741.000000,37131.000000,42285.000000,23487.000000
13710.000000,37130.000000,42268.000000,23461.000000
13696.000000,37124.000000,42308.000000,23461.000000
13745.000000,37150.000000,42287.000000,23456.000000
13709.000000,37175.000000,42312.000000,23451.000000
13804.000000,37235.000000,42376.000000,23499.000000
13840.000000,37282.000000,42375.000000,23506.000000
13881.000000,37370.000000,42439.000000,23512.000000
14009.000000,37453.000000,42489.000000,23570.000000
14036.000000,37550.000000,42478.000000,23570.000000
14046.000000,37542.000000,42513.000000,23562.000000
14092.000000,37559.000000,42561.000000,23593.000000
14099.000000,37602.000000,42592.000000,23589.000000
14134.000000,37629.000000,42572.000000,23597.000000
14131.000000,37690.000000,42602.000000,23583.000000
14257.000000,37799.000000,42640.000000,23633.000000
14291.000000,37842.000000,42676.000000,23592.000000
14436.000000,37972.000000,42766.000000,23681.000000
14475.000000,38034.000000,42800.000000,23693.000000
14661.000000,38245.000000,42910.000000,23728.000000
14682.000000,38287.000000,42944.000000,23740.000000
14854.000000,38482.000000,43058.000000,23793.000000
14936.000000,38559.000000,43084.000000,23806.000000
15048.000000,38712.000000,43167.000000,23841.000000
15078.000000,38703.000000,43219.000000,23863.000000
15114.000000,38759.000000,43199.000000,23875.000000
15048.000000,38721.000000,43187.000000,23843.000000
15066.000000,38687.000000,43194.000000,23844.000000
15027.000000,38686.000000,43170.000000,23848.000000
15026.000000,38652.000000,43163.000000,23869.000000
14953.000000,38560.000000,43105.000000,23845.000000
14940.000000,38547.000000,43100.000000,23811.000000
14899.000000,38525.000000,43102.000000,23808.000000
14888.000000,38524.000000,43097.000000,23809.000000
14785.000000,38427.000000,43016.000000,23807.000000
14792.000000,38433.000000,42990.000000,23788.000000
14763.000000,38356.000000,42987.000000,23758.000000
14751.000000,38393.000000,42961.000000,23778.000000
14723.000000,38283.000000,42919.000000,23770.000000
14668.000000,38279.000000,42941.000000,23740.000000
14671.000000,38208.000000,42900.000000,23754.000000
14634.000000,38233.000000,42922.000000,23754.000000
14587.000000,38180.000000,42867.000000,23712.000000
14541.000000,38125.000000,42853.000000,23712.000000
14560.000000,38073.000000,42812.000000,23716.000000
14492.000000,38096.000000,42802.000000,23713.000000
14526.000000,38065.000000,42806.000000,23704.000000
14383.000000,37950.000000,42750.000000,23682.000000
14393.000000,37939.000000,42738.000000,23659.000000
14377.000000,37907.000000,42751.000000,23688.000000
14281.000000,37776.000000,42660.000000,23646.000000
14260.000000,37816.000000,42648.000000,23634.000000
14219.000000,37781.000000,42644.000000,23626.000000
14230.000000,37775.000000,42618.000000,23613.000000
14169.000000,37687.000000,42583.000000,23606.000000
14156.000000,37632.000000,42595.000000,23563.000000
14133.000000,37622.000000,42542.000000,23604.000000
14122.000000,37621.000000,42539.000000,23560.000000
14059.000000,37582.000000,42503.000000,23559.000000
14038.000000,37548.000000,42508.000000,23563.000000
13976.000000,37450.000000,42467.000000,23564.000000
13981.000000,37456.000000,42457.000000,23544.000000
13938.000000,37432.000000,42434.000000,23525.000000
13939.000000,37381.000000,42434.000000,23534.000000
13896.000000,37356.000000,42376.000000,23526.000000
13866.000000,37331.000000,42412.000000,23505.000000
13777.000000,37256.000000,42340.000000,23494.000000
13780.000000,37246.000000,42301.000000,23474.000000
13710.000000,37225.000000,42313.000000,23487.000000
13680.000000,37100.000000,42277.000000,23456.000000
13694.000000,37071.000000,42234.000000,23436.000000
13596.000000,37056.000000,42202.000000,23440.000000
13609.000000,36986.000000,42207.000000,23449.000000
13620.000000,37038.000000,42222.000000,23430.000000
13579.000000,37032.000000,42192.000000,23418.000000
13595.000000,37009.000000,42208.000000,23421.000000
13601.000000,37066.000000,42220.000000,23435.000000
13666.000000,37126.000000,42277.000000,23441.000000
13682.000000,37114.000000,42260.000000,23486.000000
13737.000000,37198.000000,42295.000000,23469.000000
13746.000000,37215.000000,42329.000000,23455.000000
13889.000000,37310.000000,42387.000000,23499.000000
13908.000000,37394.000000,42410.000000,23519.000000
13964.000000,37451.000000,42419.000000,23525.000000
13994.000000,37472.000000,42464.000000,23537.000000
13995.000000,37509.000000,42478.000000,23562.000000
14138.000000,37712.000000,42589.000000,23591.000000
14217.000000,37706.000000,42606.000000,23584.000000
14235.000000,37783.000000,42635.000000,23602.000000
14294.000000,37813.000000,42661.000000,23629.000000
14325.000000,37871.000000,42679.000000,23657.000000
14350.000000,37955.000000,42713.000000,23648.000000
14545.000000,38107.000000,42821.000000,23711.000000
14612.000000,38175.000000,42868.000000,23722.000000
14746.000000,38387.000000,42977.000000,23759.000000
14830.000000,38423.000000,43030.000000,23770.000000
14945.000000,38572.000000,43121.000000,23816.000000
14998.000000,38634.000000,43134.000000,23846.000000
14999.000000,38704.000000,43164.000000,23845.000000
15033.000000,38685.000000,43152.000000,23862.000000
15031.000000,38692.000000,43145.000000,23841.000000
14993.000000,38642.000000,43138.000000,23837.000000
14966.000000,38650.000000,43125.000000,23824.000000
14950.000000,38605.000000,43127.000000,23839.000000
14924.000000,38544.000000,43091.000000,23834.000000
14908.000000,38533.000000,43087.000000,23826.000000
14888.000000,38525.000000,43061.000000,23792.000000
14833.000000,38482.000000,43032.000000,23791.000000
14829.000000,38450.000000,43007.000000,23795.000000
14824.000000,38410.000000,43040.000000,23796.000000
14790.000000,38370.000000,42994.000000,23780.000000
14759.000000,38369.000000,42970.000000,23766.000000
14705.000000,38315.000000,42972.000000,23772.000000
14701.000000,38261.000000,42916.000000,23763.000000
14670.000000,38250.000000,42912.000000,23720.000000
14674.000000,38247.000000,42923.000000,23756.000000
14613.000000,38215.000000,42907.000000,23729.000000
14626.000000,38202.000000,42895.000000,23726.000000
14618.000000,38170.000000,42907.000000,23721.000000
14608.000000,38158.000000,42886.000000,23753.000000
14538.000000,38078.000000,42798.000000,23734.000000
14503.000000,38059.000000,42817.000000,23718.000000
14467.000000,38035.000000,42799.000000,23671.000000
14426.000000,37954.000000,42750.000000,23693.000000
14391.000000,37971.000000,42729.000000,23656.000000
14372.000000,37947.000000,42734.000000,23666.000000
14370.000000,37888.000000,42720.000000,23681.000000
14366.000000,37872.000000,42711.000000,23650.000000
14259.000000,37750.000000,42624.000000,23624.000000
14223.000000,37749.000000,42613.000000,23623.000000
14203.000000,37676.000000,42615.000000,23615.000000
14221.000000,37678.000000,42607.000000,23627.000000
14159.000000,37650.000000,42558.000000,23573.000000
14135.000000,37644.000000,42543.000000,23574.000000
14146.000000,37566.000000,42516.000000,23589.000000
14115.000000,37584.000000,42504.000000,23573.000000
14082.000000,37562.000000,42515.000000,23584.000000
14075.000000,37490.000000,42489.000000,23587.000000
14019.000000,37498.000000,42482.000000,23544.000000
13955.000000,37407.000000,42431.000000,23519.000000
13917.000000,37364.000000,42442.000000,23545.000000
13929.000000,37339.000000,42406.000000,23540.000000
13902.000000,37345.000000,42385.000000,23517.000000
13901.000000,37357.000000,42413.000000,23528.000000
13900.000000,37335.000000,42397.000000,23538.000000
13788.000000,37197.000000,42314.000000,23496.000000
13773.000000,37194.000000,42288.000000,23458.000000
13720.000000,37132.000000,42290.000000,23485.000000
13729.000000,37106.000000,42260.000000,23470.000000
13628.000000,37048.000000,42249.000000,23444.000000
13614.000000,37013.000000,42213.000000,23407.000000
13607.000000,37002.000000,42202.000000,23440.000000
13592.000000,37014.000000,42182.000000,23419.000000
13601.000000,36966.000000,42194.000000,23415.000000
13604.000000,36956.000000,42176.000000,23415.000000
13590.000000,36998.000000,42188.000000,23402.000000
13642.000000,37065.000000,42214.000000,23450.000000
13674.000000,37058.000000,42218.000000,23455.000000
13696.000000,37095.000000,42246.000000,23461.000000
13733.000000,37135.000000,42300.000000,23475.000000
13777.000000,37169.000000,42307.000000,23480.000000
13819.000000,37252.000000,42309.000000,23474.000000
13980.000000,37477.000000,42460.000000,23531.000000
14044.000000,37503.000000,42491.000000,23574.000000
14057.000000,37531.000000,42511.000000,23553.000000
14130.000000,37609.000000,42546.000000,23549.000000
14147.000000,37622.000000,42569.000000,23585.000000
14222.000000,37745.000000,42645.000000,23585.000000
14272.000000,37800.000000,42663.000000,23605.000000
14414.000000,37938.000000,42760.000000,23665.000000
14473.000000,38008.000000,42782.000000,23659.000000
14525.000000,38062.000000,42835.000000,23690.000000
14840.000000,38415.000000,43028.000000,23783.000000
14897.000000,38492.000000,43052.000000,23791.000000
14924.000000,38555.000000,43080.000000,23820.000000
15010.000000,38603.000000,43118.000000,23815.000000
15011.000000,38652.000000,43160.000000,23843.000000
15043.000000,38711.000000,43169.000000,23854.000000
15091.000000,38698.000000,43168.000000,23868.000000
15060.000000,38715.000000,43177.000000,23860.000000
15071.000000,38684.000000,43165.000000,23860.000000
15018.000000,38641.000000,43146.000000,23856.000000
15020.000000,38645.000000,43120.000000,23849.000000
14998.000000,38595.000000,43152.000000,23827.000000
14988.000000,38602.000000,43130.000000,23861.000000
14974.000000,38530.000000,43136.000000,23799.000000
14939.000000,38528.000000,43045.000000,23844.000000
14906.000000,38487.000000,43038.000000,23818.000000
14850.000000,38515.000000,43056.000000,23796.000000
14863.000000,38425.000000,43037.000000,23802.000000
14824.000000,38426.000000,43006.000000,23771.000000
14819.000000,38395.000000,42994.000000,23781.000000
14844.000000,38379.000000,43010.000000,23806.000000
14765.000000,38371.000000,42963.000000,23760.000000
14761.000000,38337.000000,42974.000000,23761.000000
14676.000000,38237.000000,42911.000000,23761.000000
14714.000000,38196.000000,42885.000000,23749.000000
14673.000000,38240.000000,42858.000000,23746.000000
14632.000000,38165.000000,42887.000000,23717.000000
14640.000000,38177.000000,42893.000000,23714.000000
14595.000000,38101.000000,42876.000000,23717.000000
14575.000000,38063.000000,42820.000000,23674.000000
14515.000000,38051.000000,42799.000000,23712.000000
14475.000000,37994.000000,42778.000000,23701.000000
14461.000000,37941.000000,42745.000000,23650.000000
14414.000000,37976.000000,42743.000000,23665.000000
14378.000000,37923.000000,42755.000000,23664.000000
14390.000000,37861.000000,42706.000000,23646.000000
14328.000000,37872.000000,42678.000000,23632.000000
14317.000000,37841.000000,42701.000000,23633.000000
14293.000000,37832.000000,42664.000000,23625.000000
14255.000000,37791.000000,42660.000000,23616.000000
14209.000000,37709.000000,42595.000000,23616.000000
14203.000000,37710.000000,42592.000000,23598.000000
14170.000000,37653.000000,42605.000000,23598.000000
14080.000000,37561.000000,42531.000000,23563.000000
14075.000000,37561.000000,42514.000000,23564.000000
14053.000000,37546.000000,42512.000000,23557.000000
14047.000000,37527.000000,42505.000000,23560.000000
14017.000000,37487.000000,42483.000000,23558.000000
13941.000000,37427.000000,42411.000000,23514.000000
13937.000000,37387.000000,42430.000000,23511.000000
13881.000000,37309.000000,42397.000000,23508.000000
13857.000000,37283.000000,42349.000000,23522.000000
13821.000000,37296.000000,42341.000000,23483.000000
13874.000000,37127.000000,42267.000000,23453.000000
13870.000000,37082.000000,42226.000000,23454.000000
13924.000000,37097.000000,42237.000000,23448.000000
14063.000000,37078.000000,42192.000000,23430.000000
14054.000000,37043.000000,42206.000000,23431.000000
14095.000000,36966.000000,42146.000000,23427.000000
14101.000000,36972.000000,42151.000000,23443.000000
14149.000000,36965.000000,42160.000000,23404.000000
14290.000000,36974.000000,42143.000000,23422.000000
14263.000000,37101.000000,42210.000000,23448.000000
14326.000000,37107.000000,42262.000000,23448.000000
14366.000000,37155.000000,42246.000000,23440.000000
14405.000000,37189.000000,42289.000000,23474.000000
14605.000000,37218.000000,42308.000000,23485.000000
14666.000000,37468.000000,42436.000000,23532.000000
14709.000000,37536.000000,42439.000000,23543.000000
14806.000000,37485.000000,42494.000000,23555.000000
14922.000000,37540.000000,42503.000000,23559.000000
15010.000000,37618.000000,42526.000000,23543.000000
15123.000000,37724.000000,42600.000000,23612.000000
15154.000000,37772.000000,42622.000000,23608.000000
15212.000000,37921.000000,42716.000000,23639.000000
15213.000000,37967.000000,42706.000000,23659.000000
15188.000000,38047.000000,42771.000000,23678.000000
15193.000000,38251.000000,42898.000000,23699.000000
15168.000000,38311.000000,42956.000000,23761.000000
15197.000000,38388.000000,42964.000000,23766.000000
15169.000000,38613.000000,43109.000000,23839.000000
15160.000000,38677.000000,43138.000000,23841.000000
15139.000000,38650.000000,43128.000000,23854.000000
15101.000000,38629.000000,43163.000000,23821.000000
15073.000000,38636.000000,43129.000000,23851.000000
15066.000000,38682.000000,43147.000000,23850.000000
15065.000000,38562.000000,43071.000000,23804.000000
15008.000000,38555.000000,43080.000000,23813.000000
14980.000000,38528.000000,43100.000000,23800.000000
14993.000000,38520.000000,43049.000000,23839.000000
14937.000000,38532.000000,43049.000000,23816.000000
14894.000000,38458.000000,43022.000000,23800.000000
14914.000000,38450.000000,43003.000000,23790.000000
14883.000000,38443.000000,42980.000000,23794.000000
14867.000000,38374.000000,42983.000000,23806.000000
14856.000000,38352.000000,42970.000000,23784.000000
14782.000000,38387.000000,42969.000000,23769.000000
14771.000000,38316.000000,42961.000000,23786.000000
14762.000000,38321.000000,42962.000000,23735.000000
14720.000000,38283.000000,42928.000000,23785.000000
14733.000000,38217.000000,42895.000000,23765.000000
14663.000000,38252.000000,42878.000000,23730.000000
14648.000000,38187.000000,42914.000000,23734.000000
14676.000000,38152.000000,42855.000000,23744.000000
14626.000000,38171.000000,42859.000000,23727.000000
14581.000000,38146.000000,42844.000000,23748.000000
14574.000000,38114.000000,42826.000000,23737.000000
14519.000000,38093.000000,42836.000000,23702.000000
14467.000000,37986.000000,42811.000000,23693.000000
14459.000000,37971.000000,42749.000000,23702.000000
14401.000000,37999.000000,42761.000000,23675.000000
14418.000000,37973.000000,42743.000000,23693.000000
14367.000000,37961.000000,42726.000000,23657.000000
14351.000000,37879.000000,42653.000000,23650.000000
14341.000000,37829.000000,42647.000000,23639.000000
14334.000000,37819.000000,42700.000000,23621.000000
14275.000000,37786.000000,42637.000000,23603.000000
14289.000000,37728.000000,42594.000000,23615.000000
14261.000000,37746.000000,42605.000000,23616.000000
14241.000000,37719.000000,42615.000000,23633.000000
14187.000000,37703.000000,42614.000000,23616.000000
14160.000000,37670.000000,42579.000000,23592.000000
14175.000000,37599.000000,42535.000000,23574.000000
14150.000000,37603.000000,42561.000000,23570.000000
14101.000000,37569.000000,42542.000000,23566.000000
14012.000000,37560.000000,42534.000000,23550.000000
14060.000000,37502.000000,42518.000000,23563.000000
14014.000000,37490.000000,42501.000000,23572.000000
14053.000000,37480.000000,42456.000000,23533.000000
14071.000000,37408.000000,42442.000000,23544.000000
14162.000000,37338.000000,42391.000000,23551.000000
14148.000000,37286.000000,42398.000000,23512.000000
14167.000000,37292.000000,42371.000000,23510.000000
14230.000000,37314.000000,42329.000000,23487.000000
14231.000000,37245.000000,42375.000000,23479.000000
14248.000000,37297.000000,42382.000000,23487.000000
14261.000000,37301.000000,42381.000000,23477.000000
14298.000000,37337.000000,42402.000000,23499.000000
14346.000000,37485.000000,42509.000000,23536.000000
14405.000000,37515.000000,42509.000000,23559.000000
14460.000000,37532.000000,42526.000000,23568.000000
14466.000000,37611.000000,42535.000000,23532.000000
14526.000000,37615.000000,42541.000000,23574.000000
14606.000000,37740.000000,42660.000000,23605.000000
14633.000000,37825.000000,42696.000000,23617.000000
14819.000000,37831.000000,42681.000000,23627.000000
14846.000000,37892.000000,42696.000000,23637.000000
14900.000000,37886.000000,42740.000000,23650.000000
15094.000000,38132.000000,42841.000000,23704.000000
15119.000000,38233.000000,42900.000000,23702.000000
15226.000000,38269.000000,42962.000000,23708.000000
15236.000000,38300.000000,42996.000000,23723.000000
15270.000000,38547.000000,43045.000000,23770.000000
15226.000000,38610.000000,43143.000000,23806.000000
15213.000000,38759.000000,43209.000000,23856.000000
15177.000000,38790.000000,43283.000000,23862.000000
15163.000000,38798.000000,43243.000000,23871.000000
15157.000000,38898.000000,43267.000000,23870.000000
15075.000000,38851.000000,43266.000000,23866.000000
15071.000000,38847.000000,43266.000000,23889.000000
15039.000000,38817.000000,43279.000000,23891.000000
15016.000000,38799.000000,43258.000000,23900.000000
14962.000000,38803.000000,43294.000000,23855.000000
14947.000000,38757.000000,43228.000000,23868.000000
14932.000000,38737.000000,43181.000000,23843.000000
14902.000000,38749.000000,43216.000000,23863.000000
14909.000000,38706.000000,43155.000000,23823.000000
14890.000000,38727.000000,43181.000000,23836.000000
14838.000000,38686.000000,43179.000000,23847.000000
14793.000000,38617.000000,43145.000000,23837.000000
14775.000000,38638.000000,43154.000000,23808.000000
14758.000000,38598.000000,43130.000000,23816.000000
14749.000000,38546.000000,43054.000000,23807.000000
14716.000000,38505.000000,43080.000000,23805.000000
14686.000000,38504.000000,43045.000000,23804.000000
14700.000000,38509.000000,43057.000000,23815.000000
14597.000000,38472.000000,43042.000000,23788.000000
14581.000000,38459.000000,43028.000000,23785.000000
14595.000000,38411.000000,42982.000000,23737.000000
14541.000000,38338.000000,42990.000000,23781.000000
14544.000000,38386.000000,42978.000000,23746.000000
14479.000000,38358.000000,42949.000000,23747.000000
14485.000000,38296.000000,42932.000000,23740.000000
14438.000000,38271.000000,42917.000000,23723.000000
14417.000000,38260.000000,42928.000000,23732.000000
14355.000000,38209.000000,42894.000000,23717.000000
14353.000000,38147.000000,42853.000000,23718.000000
14331.000000,38134.000000,42829.000000,23715.000000
14308.000000,38126.000000,42840.000000,23675.000000
14304.000000,38099.000000,42823.000000,23701.000000
14276.000000,37986.000000,42767.000000,23673.000000
14244.000000,38019.000000,42765.000000,23672.000000
14173.000000,37933.000000,42768.000000,23653.000000
14154.000000,37955.000000,42724.000000,23627.000000
14160.000000,37933.000000,42745.000000,23648.000000
14091.000000,37871.000000,42730.000000,23647.000000
14031.000000,37862.000000,42711.000000,23633.000000
14008.000000,37854.000000,42668.000000,23627.000000
13975.000000,37769.000000,42658.000000,23607.000000
13953.000000,37793.000000,42661.000000,23597.000000
13895.000000,37745.000000,42637.000000,23597.000000
13960.000000,37728.000000,42639.000000,23574.000000
13898.000000,37712.000000,42589.000000,23555.000000
14000.000000,37690.000000,42599.000000,23551.000000
14016.000000,37634.000000,42603.000000,23564.000000
14036.000000,37662.000000,42582.000000,23548.000000
14049.000000,37620.000000,42533.000000,23548.000000
14073.000000,37535.000000,42494.000000,23521.000000
14056.000000,37516.000000,42479.000000,23533.000000
14168.000000,37514.000000,42504.000000,23522.000000
14230.000000,37539.000000,42495.000000,23552.000000
14208.000000,37556.000000,42497.000000,23537.000000
14273.000000,37639.000000,42564.000000,23543.000000
14335.000000,37635.000000,42568.000000,23573.000000
14380.000000,37662.000000,42592.000000,23586.000000
14432.000000,37741.000000,42621.000000,23587.000000
14418.000000,37754.000000,42643.000000,23586.000000
14509.000000,37787.000000,42644.000000,23579.000000
14757.000000,37785.000000,42695.000000,23574.000000
14835.000000,37797.000000,42666.000000,23617.000000
14837.000000,37910.000000,42708.000000,23625.000000
14961.000000,37977.000000,42773.000000,23655.000000
14990.000000,38028.000000,42777.000000,23630.000000
15048.000000,38059.000000,42833.000000,23654.000000
15205.000000,38070.000000,42807.000000,23663.000000
15181.000000,38180.000000,42865.000000,23681.000000
15179.000000,38203.000000,42889.000000,23673.000000
15167.000000,38369.000000,42996.000000,23739.000000
15108.000000,38487.000000,43046.000000,23772.000000
15096.000000,38510.000000,43050.000000,23780.000000
15056.000000,38738.000000,43178.000000,23806.000000
15052.000000,38780.000000,43229.000000,23814.000000
14998.000000,38868.000000,43288.000000,23877.000000
14955.000000,38922.000000,43290.000000,23879.000000
14891.000000,38925.000000,43279.000000,23894.000000
14918.000000,38932.000000,43293.000000,23883.000000
14924.000000,38856.000000,43277.000000,23890.000000
14868.000000,38868.000000,43263.000000,23864.000000
14854.000000,38786.000000,43268.000000,23856.000000
14853.000000,38778.000000,43229.000000,23858.000000
14824.000000,38719.000000,43177.000000,23834.000000
14782.000000,38685.000000,43177.000000,23836.000000
14786.000000,38663.000000,43185.000000,23844.000000
14743.000000,38618.000000,43134.000000,23825.000000
14702.000000,38625.000000,43117.000000,23818.000000
14698.000000,38606.000000,43135.000000,23820.000000
14658.000000,38556.000000,43102.000000,23799.000000
14615.000000,38577.000000,43069.000000,23813.000000
14601.000000,38530.000000,43067.000000,23801.000000
14522.000000,38514.000000,43061.000000,23788.000000
14499.000000,38509.000000,43041.000000,23778.000000
14509.000000,38420.000000,43014.000000,23759.000000
14448.000000,38399.000000,42995.000000,23755.000000
14443.000000,38391.000000,42981.000000,23733.000000
14409.000000,38336.000000,42943.000000,23748.000000
14381.000000,38295.000000,42964.000000,23734.000000
14341.000000,38285.000000,42954.000000,23753.000000
14307.000000,38263.000000,42924.000000,23730.000000
14290.000000,38181.000000,42863.000000,23732.000000
14256.000000,38182.000000,42855.000000,23698.000000
14212.000000,38102.000000,42868.000000,23701.000000
14211.000000,38065.000000,42846.000000,23709.000000
14204.000000,38066.000000,42825.000000,23664.000000
14135.000000,38033.000000,42795.000000,23654.000000
14089.000000,37999.000000,42774.000000,23670.000000
14098.000000,37991.000000,42760.000000,23662.000000
14066.000000,37939.000000,42749.000000,23680.000000
14012.000000,37853.000000,42703.000000,23635.000000
14017.000000,37870.000000,42679.000000,23641.000000
13972.000000,37867.000000,42683.000000,23632.000000
13913.000000,37810.000000,42676.000000,23631.000000
13896.000000,37823.000000,42644.000000,23605.000000
13915.000000,37780.000000,42636.000000,23603.000000
13819.000000,37707.000000,42636.000000,23602.000000
13819.000000,37756.000000,42578.000000,23556.000000
13832.000000,37655.000000,42551.000000,23586.000000
13858.000000,37625.000000,42561.000000,23554.000000
13861.000000,37542.000000,42495.000000,23550.000000
13880.000000,37494.000000,42483.000000,23547.000000
13898.000000,37497.000000,42477.000000,23525.000000
13931.000000,37413.000000,42432.000000,23522.000000
14018.000000,37395.000000,42434.000000,23498.000000
14036.000000,37407.000000,42421.000000,23513.000000
14107.000000,37352.000000,42402.000000,23489.000000
14167.000000,37385.000000,42397.000000,23496.000000
14258.000000,37447.000000,42469.000000,23510.000000
14318.000000,37454.000000,42464.000000,23541.000000
14307.000000,37509.000000,42461.000000,23522.000000
14477.000000,37524.000000,42527.000000,23554.000000
14522.000000,37557.000000,42507.000000,23552.000000
14590.000000,37551.000000,42531.000000,23553.000000
14671.000000,37685.000000,42611.000000,23594.000000
14831.000000,37671.000000,42601.000000,23617.000000
14881.000000,37720.000000,42612.000000,23604.000000
14952.000000,37759.000000,42637.000000,23622.000000
14936.000000,37862.000000,42695.000000,23631.000000
15002.000000,37875.000000,42730.000000,23628.000000
15055.000000,37934.000000,42732.000000,23649.000000
15051.000000,37958.000000,42765.000000,23673.000000
15063.000000,37991.000000,42776.000000,23669.000000
15038.000000,38324.000000,42959.000000,23754.000000
15024.000000,38404.000000,43008.000000,23753.000000
15023.000000,38457.000000,43018.000000,23782.000000
14950.000000,38553.000000,43044.000000,23791.000000
14941.000000,38600.000000,43092.000000,23810.000000
14935.000000,38654.000000,43151.000000,23839.000000
14936.000000,38784.000000,43212.000000,23891.000000
14894.000000,38796.000000,43219.000000,23874.000000
14859.000000,38782.000000,43224.000000,23860.000000
14881.000000,38749.000000,43209.000000,23896.000000
14800.000000,38702.000000,43176.000000,23894.000000
14721.000000,38721.000000,43149.000000,23852.000000
14749.000000,38677.000000,43176.000000,23861.000000
14751.000000,38650.000000,43140.000000,23851.000000
14706.000000,38556.000000,43096.000000,23845.000000
14666.000000,38580.000000,43101.000000,23813.000000
14653.000000,38548.000000,43058.000000,23818.000000
14669.000000,38491.000000,43059.000000,23798.000000
14648.000000,38472.000000,43065.000000,23804.000000
14646.000000,38466.000000,43036.000000,23811.000000
14574.000000,38424.000000,43018.000000,23818.000000
14561.000000,38405.000000,42982.000000,23800.000000
14558.000000,38426.000000,43029.000000,23780.000000
14539.000000,38339.000000,42946.000000,23772.000000
14507.000000,38314.000000,42924.000000,23781.000000
14509.000000,38338.000000,42942.000000,23761.000000
14458.000000,38261.000000,42941.000000,23763.000000
14445.000000,38229.000000,42908.000000,23724.000000
14421.000000,38168.000000,42866.000000,23724.000000
14342.000000,38162.000000,42828.000000,23721.000000
14327.000000,38133.000000,42851.000000,23727.000000
14274.000000,38058.000000,42817.000000,23704.000000
14255.000000,38069.000000,42808.000000,23684.000000
14266.000000,38037.000000,42810.000000,23719.000000
14217.000000,37979.000000,42754.000000,23680.000000
14211.000000,37936.000000,42732.000000,23681.000000
14161.000000,37901.000000,42743.000000,23688.000000
14105.000000,37862.000000,42698.000000,23654.000000
14109.000000,37852.000000,42685.000000,23663.000000
14092.000000,37842.000000,42684.000000,23644.000000
14091.000000,37812.000000,42640.000000,23622.000000
14060.000000,37760.000000,42654.000000,23613.000000
14021.000000,37712.000000,42630.000000,23608.000000
13992.000000,37718.000000,42618.000000,23628.000000
13939.000000,37711.000000,42578.000000,23586.000000
13884.000000,37584.000000,42503.000000,23587.000000
13818.000000,37556.000000,42539.000000,23586.000000
13852.000000,37582.000000,42467.000000,23572.000000
13819.000000,37522.000000,42451.000000,23541.000000
13862.000000,37483.000000,42456.000000,23546.000000
13886.000000,37428.000000,42429.000000,23524.000000
13911.000000,37372.000000,42385.000000,23521.000000
13992.000000,37341.000000,42395.000000,23509.000000
14016.000000,37331.000000,42400.000000,23531.000000
14065.000000,37304.000000,42374.000000,23489.000000
14113.000000,37259.000000,42314.000000,23491.000000
14169.000000,37253.000000,42370.000000,23490.000000
14156.000000,37237.000000,42325.000000,23498.000000
14208.000000,37279.000000,42347.000000,23509.000000
14209.000000,37351.000000,42368.000000,23493.000000
14230.000000,37336.000000,42363.000000,23526.000000
14405.000000,37383.000000,42381.000000,23514.000000
14423.000000,37389.000000,42447.000000,23517.000000
14494.000000,37479.000000,42474.000000,23542.000000
14573.000000,37529.000000,42486.000000,23562.000000
14578.000000,37645.000000,42529.000000,23593.000000
14655.000000,37613.000000,42548.000000,23593.000000
14978.000000,37799.000000,42625.000000,23656.000000
14985.000000,37808.000000,42631.000000,23612.000000
15061.000000,37863.000000,42670.000000,23623.000000
15186.000000,38009.000000,42758.000000,23713.000000
15168.000000,38076.000000,42840.000000,23688.000000
15206.000000,38119.000000,42825.000000,23728.000000
15189.000000,38172.000000,42878.000000,23747.000000
15172.000000,38394.000000,42970.000000,23782.000000
15161.000000,38408.000000,43024.000000,23772.000000
15137.000000,38485.000000,43044.000000,23804.000000
15107.000000,38531.000000,43078.000000,23826.000000
15044.000000,38612.000000,43082.000000,23832.000000
15087.000000,38657.000000,43125.000000,23865.000000
15004.000000,38673.000000,43131.000000,23861.000000
14983.000000,38667.000000,43112.000000,23882.000000
14955.000000,38620.000000,43096.000000,23841.000000
14952.000000,38609.000000,43122.000000,23819.000000
14915.000000,38600.000000,43102.000000,23853.000000
14887.000000,38547.000000,43055.000000,23832.000000
14866.000000,38548.000000,43060.000000,23834.000000
14796.000000,38493.000000,43052.000000,23829.000000
14762.000000,38495.000000,43055.000000,23824.000000
14764.000000,38485.000000,43046.000000,23817.000000
14707.000000,38435.000000,43003.000000,23807.000000
14635.000000,38417.000000,42980.000000,23790.000000
14671.000000,38342.000000,42967.000000,23798.000000
14626.000000,38336.000000,42960.000000,23770.000000
14593.000000,38298.000000,42961.000000,23769.000000
14590.000000,38324.000000,42918.000000,23772.000000
14548.000000,38307.000000,42909.000000,23752.000000
14425.000000,38249.000000,42906.000000,23749.000000
14432.000000,38231.000000,42880.000000,23729.000000
14429.000000,38207.000000,42896.000000,23743.000000
14399.000000,38199.000000,42868.000000,23746.000000
14345.000000,38214.000000,42858.000000,23713.000000
14318.000000,38148.000000,42828.000000,23727.000000
14294.000000,38089.000000,42808.000000,23714.000000
14282.000000,38117.000000,42836.000000,23722.000000
14243.000000,38056.000000,42820.000000,23724.000000
14264.000000,38053.000000,42776.000000,23718.000000
14226.000000,38020.000000,42759.000000,23695.000000
14193.000000,38006.000000,42772.000000,23704.000000
14107.000000,37954.000000,42753.000000,23672.000000
14132.000000,37902.000000,42691.000000,23657.000000
14114.000000,37899.000000,42684.000000,23639.000000
14076.000000,37821.000000,42683.000000,23638.000000
14043.000000,37818.000000,42654.000000,23638.000000
14028.000000,37797.000000,42636.000000,23620.000000
14072.000000,37712.000000,42635.000000,23613.000000
14027.000000,37736.000000,42623.000000,23609.000000
14073.000000,37695.000000,42580.000000,23617.000000
14118.000000,37614.000000,42554.000000,23588.000000
14108.000000,37622.000000,42537.000000,23574.000000
14139.000000,37580.000000,42491.000000,23575.000000
14187.000000,37579.000000,42507.000000,23541.000000
14182.000000,37523.000000,42530.000000,23561.000000
14277.000000,37556.000000,42480.000000,23563.000000
14340.000000,37484.000000,42478.000000,23526.000000
14337.000000,37440.000000,42439.000000,23529.000000
14359.000000,37358.000000,42408.000000,23541.000000
14376.000000,37355.000000,42405.000000,23508.000000
14379.000000,37277.000000,42362.000000,23487.000000
14484.000000,37259.000000,42334.000000,23487.000000
14555.000000,37258.000000,42367.000000,23491.000000
14581.000000,37275.000000,42375.000000,23490.000000
14640.000000,37353.000000,42356.000000,23474.000000
14907.000000,37339.000000,42416.000000,23517.000000
14970.000000,37445.000000,42437.000000,23538.000000
15035.000000,37478.000000,42438.000000,23534.000000
15081.000000,37518.000000,42508.000000,23546.000000
15106.000000,37610.000000,42546.000000,23587.000000
15200.000000,37629.000000,42561.000000,23590.000000
15245.000000,37648.000000,42566.000000,23588.000000
15248.000000,37685.000000,42570.000000,23624.000000
15258.000000,37747.000000,42585.000000,23608.000000
15268.000000,37750.000000,42608.000000,23607.000000
15239.000000,37917.000000,42729.000000,23660.000000
15165.000000,37988.000000,42737.000000,23640.000000
15169.000000,38006.000000,42803.000000,23660.000000
15160.000000,38065.000000,42823.000000,23667.000000
15133.000000,38140.000000,42863.000000,23688.000000
15111.000000,38168.000000,42888.000000,23718.000000
15050.000000,38521.000000,43069.000000,23816.000000
15052.000000,38622.000000,43127.000000,23826.000000
15055.000000,38635.000000,43141.000000,23857.000000
15024.000000,38752.000000,43238.000000,23884.000000
14979.000000,38814.000000,43241.000000,23860.000000
15046.000000,38814.000000,43250.000000,23890.000000
14950.000000,38836.000000,43234.000000,23906.000000
14945.000000,38782.000000,43194.000000,23877.000000
14857.000000,38766.000000,43226.000000,23869.000000
14853.000000,38721.000000,43210.000000,23871.000000
14830.000000,38739.000000,43167.000000,23879.000000
14837.000000,38684.000000,43161.000000,23830.000000
14817.000000,38650.000000,43135.000000,23863.000000
14757.000000,38635.000000,43125.000000,23834.000000
14734.000000,38559.000000,43080.000000,23822.000000
14667.000000,38562.000000,43086.000000,23805.000000
14636.000000,38547.000000,43096.000000,23807.000000
14638.000000,38524.000000,43092.000000,23812.000000
14596.000000,38450.000000,43039.000000,23836.000000
14543.000000,38405.000000,43057.000000,23804.000000
14494.000000,38336.000000,42969.000000,23758.000000
14488.000000,38332.000000,42960.000000,23754.000000
14466.000000,38270.000000,42941.000000,23776.000000
14425.000000,38297.000000,42942.000000,23754.000000
14399.000000,38164.000000,42891.000000,23701.000000
14368.000000,38141.000000,42874.000000,23715.000000
14310.000000,38161.000000,42822.000000,23693.000000
14305.000000,38101.000000,42855.000000,23711.000000
14267.000000,38072.000000,42838.000000,23693.000000
14241.000000,38075.000000,42803.000000,23684.000000
14283.000000,37927.000000,42763.000000,23676.000000
14238.000000,37939.000000,42731.000000,23667.000000
14171.000000,37928.000000,42706.000000,23680.000000
14186.000000,37865.000000,42729.000000,23668.000000
14151.000000,37815.000000,42687.000000,23637.000000
14131.000000,37822.000000,42641.000000,23650.000000
14120.000000,37738.000000,42643.000000,23613.000000
14089.000000,37740.000000,42629.000000,23623.000000
14122.000000,37719.000000,42591.000000,23576.000000
14059.000000,37688.000000,42587.000000,23594.000000
14052.000000,37677.000000,42569.000000,23576.000000
14104.000000,37663.000000,42597.000000,23593.000000
14081.000000,37535.000000,42541.000000,23542.000000
14126.000000,37543.000000,42514.000000,23550.000000
14161.000000,37523.000000,42520.000000,23559.000000
14150.000000,37475.000000,42483.000000,23529.000000
14204.000000,37468.000000,42467.000000,23533.000000
14263.000000,37480.000000,42491.000000,23537.000000
14275.000000,37456.000000,42467.000000,23564.000000
14287.000000,37480.000000,42473.000000,23563.000000
14300.000000,37531.000000,42532.000000,23570.000000
14379.000000,37551.000000,42516.000000,23568.000000
14412.000000,37590.000000,42533.000000,23557.000000
14457.000000,37607.000000,42550.000000,23578.000000
14555.000000,37642.000000,42562.000000,23581.000000
14592.000000,37674.000000,42568.000000,23566.000000
14693.000000,37801.000000,42650.000000,23588.000000
14730.000000,37793.000000,42668.000000,23627.000000
14875.000000,37819.000000,42685.000000,23599.000000
14953.000000,37837.000000,42706.000000,23612.000000
15018.000000,37875.000000,42697.000000,23636.000000
15094.000000,37933.000000,42756.000000,23596.000000
15123.000000,37978.000000,42775.000000,23659.000000
15242.000000,38030.000000,42833.000000,23677.000000
15312.000000,38098.000000,42854.000000,23684.000000
15269.000000,38135.000000,42857.000000,23675.000000
15250.000000,38426.000000,43030.000000,23776.000000
15251.000000,38518.000000,43062.000000,23783.000000
15228.000000,38578.000000,43096.000000,23792.000000
15222.000000,38627.000000,43146.000000,23829.000000
15195.000000,38687.000000,43182.000000,23825.000000
15154.000000,38806.000000,43254.000000,23873.000000
15113.000000,38805.000000,43260.000000,23881.000000
15116.000000,38844.000000,43243.000000,23880.000000
15097.000000,38857.000000,43244.000000,23879.000000
15111.000000,38854.000000,43250.000000,23906.000000
15102.000000,38810.000000,43241.000000,23879.000000
14997.000000,38764.000000,43205.000000,23888.000000
14958.000000,38769.000000,43200.000000,23886.000000
14978.000000,38727.000000,43193.000000,23872.000000
14960.000000,38713.000000,43195.000000,23891.000000
14954.000000,38704.000000,43179.000000,23854.000000
14935.000000,38679.000000,43140.000000,23837.000000
14876.000000,38632.000000,43139.000000,23828.000000
14903.000000,38601.000000,43103.000000,23839.000000
14888.000000,38602.000000,43092.000000,23829.000000
14807.000000,38562.000000,43114.000000,23837.000000
14817.000000,38588.000000,43089.000000,23831.000000
14782.000000,38543.000000,43054.000000,23788.000000
14764.000000,38480.000000,43046.000000,23820.000000
14768.000000,38411.000000,43025.000000,23801.000000
14708.000000,38383.000000,42992.000000,23781.000000
14635.000000,38408.000000,42986.000000,23789.000000
14617.000000,38339.000000,42969.000000,23762.000000
14622.000000,38343.000000,42947.000000,23773.000000
14613.000000,38344.000000,42954.000000,23760.000000
14577.000000,38271.000000,42918.000000,23762.000000
14583.000000,38204.000000,42864.000000,23755.000000
14476.000000,38198.000000,42899.000000,23717.000000
14458.000000,38125.000000,42845.000000,23728.000000
14469.000000,38126.000000,42850.000000,23739.000000
14461.000000,38133.000000,42835.000000,23712.000000
14435.000000,38039.000000,42778.000000,23707.000000
14328.000000,37990.000000,42761.000000,23707.000000
14351.000000,38014.000000,42728.000000,23685.000000
14320.000000,37953.000000,42753.000000,23684.000000
14297.000000,37884.000000,42703.000000,23680.000000
14281.000000,37915.000000,42679.000000,23677.000000
14303.000000,37851.000000,42667.000000,23639.000000
14238.000000,37829.000000,42661.000000,23665.000000
14202.000000,37821.000000,42640.000000,23635.000000
14166.000000,37751.000000,42624.000000,23639.000000
14163.000000,37741.000000,42599.000000,23599.000000
14161.000000,37760.000000,42572.000000,23658.000000
14195.000000,37691.000000,42585.000000,23601.000000
14234.000000,37659.000000,42550.000000,23600.000000
14202.000000,37677.000000,42550.000000,23619.000000
14272.000000,37629.000000,42534.000000,23602.000000
14325.000000,37610.000000,42505.000000,23586.000000
14325.000000,37577.000000,42528.000000,23573.000000
14351.000000,37566.000000,42512.000000,23580.000000
14393.000000,37604.000000,42491.000000,23580.000000
14435.000000,37584.000000,42518.000000,23579.000000
14453.000000,37596.000000,42505.000000,23574.000000
14443.000000,37618.000000,42503.000000,23578.000000
14545.000000,37645.000000,42553.000000,23588.000000
14604.000000,37657.000000,42535.000000,23593.000000
14620.000000,37694.000000,42592.000000,23615.000000
14684.000000,37685.000000,42568.000000,23626.000000
14704.000000,37746.000000,42626.000000,23638.000000
14895.000000,37820.000000,42636.000000,23655.000000
15029.000000,37812.000000,42646.000000,23628.000000
15053.000000,37844.000000,42646.000000,23628.000000
15157.000000,37932.000000,42673.000000,23661.000000
15172.000000,37944.000000,42691.000000,23669.000000
15222.000000,37982.000000,42734.000000,23697.000000
15245.000000,38127.000000,42813.000000,23715.000000
15272.000000,38179.000000,42845.000000,23726.000000
15270.000000,38217.000000,42846.000000,23736.000000
15248.000000,38282.000000,42913.000000,23745.000000
15252.000000,38477.000000,43032.000000,23806.000000
15240.000000,38573.000000,43044.000000,23801.000000
15219.000000,38610.000000,43143.000000,23839.000000
15218.000000,38687.000000,43126.000000,23845.000000
15188.000000,38748.000000,43188.000000,23847.000000
15148.000000,38867.000000,43268.000000,23934.000000
15133.000000,38911.000000,43249.000000,23923.000000
15092.000000,38903.000000,43274.000000,23903.000000
15076.000000,38858.000000,43295.000000,23908.000000
15029.000000,38852.000000,43259.000000,23908.000000
15025.000000,38849.000000,43273.000000,23923.000000
15000.000000,38839.000000,43237.000000,23888.000000
14966.000000,38804.000000,43215.000000,23872.000000
14973.000000,38800.000000,43221.000000,23882.000000
14922.000000,38718.000000,43172.000000,23885.000000
14895.000000,38698.000000,43175.000000,23885.000000
14845.000000,38719.000000,43177.000000,23860.000000
14897.000000,38674.000000,43157.000000,23888.000000
14843.000000,38663.000000,43137.000000,23840.000000
14795.000000,38582.000000,43086.000000,23849.000000
14798.000000,38531.000000,43112.000000,23838.000000
14766.000000,38585.000000,43078.000000,23839.000000
14752.000000,38536.000000,43115.000000,23819.000000
14692.000000,38484.000000,43054.000000,23858.000000
14676.000000,38510.000000,43008.000000,23804.000000
14657.000000,38458.000000,43045.000000,23839.000000
14662.000000,38454.000000,43046.000000,23818.000000
14573.000000,38451.000000,43004.000000,23798.000000
14592.000000,38368.000000,42957.000000,23783.000000
14549.000000,38331.000000,42964.000000,23802.000000
14504.000000,38320.000000,42953.000000,23791.000000
14484.000000,38272.000000,42930.000000,23804.000000
14449.000000,38255.000000,42904.000000,23798.000000
14414.000000,38266.000000,42916.000000,23743.000000
14380.000000,38169.000000,42871.000000,23762.000000
14399.000000,38124.000000,42847.000000,23741.000000
14358.000000,38086.000000,42840.000000,23722.000000
14324.000000,38102.000000,42836.000000,23734.000000
14324.000000,38090.000000,42828.000000,23703.000000
14276.000000,38056.000000,42803.000000,23723.000000
14247.000000,37963.000000,42740.000000,23696.000000
14262.000000,37977.000000,42763.000000,23686.000000
14187.000000,37956.000000,42742.000000,23668.000000
14209.000000,37925.000000,42714.000000,23692.000000
14169.000000,37906.000000,42720.000000,23685.000000
14196.000000,37851.000000,42660.000000,23665.000000
14164.000000,37854.000000,42655.000000,23623.000000
14167.000000,37764.000000,42674.000000,23650.000000
14205.000000,37774.000000,42634.000000,23643.000000
14188.000000,37729.000000,42655.000000,23628.000000
14293.000000,37723.000000,42609.000000,23627.000000
14285.000000,37684.000000,42576.000000,23643.000000
14311.000000,37638.000000,42588.000000,23614.000000
14317.000000,37589.000000,42553.000000,23636.000000
14343.000000,37594.000000,42550.000000,23598.000000
14394.000000,37631.000000,42572.000000,23607.000000
14426.000000,37599.000000,42526.000000,23616.000000
14529.000000,37672.000000,42598.000000,23622.000000
14599.000000,37698.000000,42619.000000,23627.000000
14602.000000,37688.000000,42579.000000,23613.000000
14754.000000,37776.000000,42645.000000,23639.000000
14750.000000,37779.000000,42656.000000,23648.000000
14845.000000,37796.000000,42673.000000,23664.000000
14856.000000,37874.000000,42679.000000,23691.000000
14936.000000,37908.000000,42713.000000,23699.000000
15113.000000,37875.000000,42720.000000,23702.000000
15183.000000,37944.000000,42740.000000,23698.000000
15284.000000,38020.000000,42798.000000,23722.000000
15331.000000,38077.000000,42815.000000,23740.000000
15351.000000,38115.000000,42855.000000,23735.000000
15348.000000,38131.000000,42872.000000,23752.000000
15376.000000,38232.000000,42885.000000,23773.000000
15360.000000,38358.000000,42989.000000,23805.000000
15254.000000,38585.000000,43092.000000,23871.000000
15282.000000,38618.000000,43149.000000,23867.000000
15240.000000,38712.000000,43168.000000,23888.000000
15155.000000,38747.000000,43195.000000,23890.000000
15169.000000,38779.000000,43218.000000,23917.000000
15113.000000,38853.000000,43257.000000,23928.000000
15145.000000,38877.000000,43280.000000,23920.000000
15132.000000,38848.000000,43283.000000,23938.000000
15127.000000,38874.000000,43250.000000,23920.000000
15074.000000,38859.000000,43269.000000,23957.000000
15083.000000,38846.000000,43227.000000,23921.000000
15049.000000,38813.000000,43241.000000,23935.000000
15020.000000,38761.000000,43225.000000,23923.000000
14997.000000,38763.000000,43231.000000,23920.000000
14979.000000,38647.000000,43160.000000,23894.000000
14992.000000,38662.000000,43160.000000,23905.000000
14953.000000,38657.000000,43149.000000,23893.000000
14877.000000,38617.000000,43135.000000,23879.000000
14912.000000,38571.000000,43106.000000,23843.000000
14890.000000,38553.000000,43065.000000,23877.000000
14862.000000,38539.000000,43087.000000,23850.000000
14820.000000,38483.000000,43085.000000,23855.000000
14789.000000,38518.000000,43072.000000,23854.000000
14770.000000,38479.000000,43044.000000,23822.000000
14804.000000,38428.000000,43031.000000,23821.000000
14772.000000,38437.000000,43004.000000,23838.000000
14723.000000,38397.000000,42978.000000,23829.000000
14700.000000,38340.000000,42967.000000,23778.000000
14629.000000,38329.000000,42985.000000,23803.000000
14629.000000,38295.000000,42956.000000,23772.000000
14595.000000,38311.000000,42935.000000,23799.000000
14615.000000,38256.000000,42903.000000,23787.000000
14591.000000,38205.000000,42918.000000,23789.000000
14587.000000,38173.000000,42904.000000,23779.000000
14568.000000,38188.000000,42866.000000,23753.000000
14519.000000,38140.000000,42838.000000,23762.000000
14537.000000,38074.000000,42832.000000,23738.000000
14516.000000,38065.000000,42816.000000,23741.000000
14518.000000,38033.000000,42801.000000,23730.000000
14514.000000,37948.000000,42767.000000,23694.000000
14491.000000,37908.000000,42752.000000,23688.000000
14431.000000,37908.000000,42767.000000,23694.000000
14463.000000,37861.000000,42700.000000,23695.000000
14438.000000,37862.000000,42677.000000,23690.000000
14418.000000,37802.000000,42687.000000,23689.000000
14421.000000,37775.000000,42651.000000,23662.000000
14407.000000,37771.000000,42651.000000,23648.000000
14427.000000,37757.000000,42616.000000,23656.000000
14411.000000,37691.000000,42578.000000,23671.000000
14437.000000,37660.000000,42590.000000,23661.000000
14444.000000,37664.000000,42566.000000,23661.000000
14472.000000,37613.000000,42553.000000,23625.000000
14474.000000,37591.000000,42525.000000,23630.000000
14498.000000,37591.000000,42535.000000,23605.000000
14515.000000,37570.000000,42542.000000,23623.000000
14518.000000,37602.000000,42514.000000,23608.000000
14553.000000,37589.000000,42541.000000,23640.000000
14584.000000,37589.000000,42525.000000,23652.000000
14604.000000,37616.000000,42572.000000,23633.000000
14637.000000,37679.000000,42623.000000,23658.000000
14745.000000,37720.000000,42603.000000,23659.000000
14811.000000,37764.000000,42637.000000,23682.000000
14860.000000,37758.000000,42633.000000,23667.000000
14904.000000,37760.000000,42685.000000,23684.000000
14970.000000,37847.000000,42698.000000,23714.000000
15081.000000,37877.000000,42723.000000,23690.000000
15158.000000,38014.000000,42776.000000,23732.000000
15244.000000,38034.000000,42811.000000,23736.000000
15197.000000,38036.000000,42818.000000,23722.000000
15220.000000,38200.000000,42922.000000,23767.000000
15228.000000,38266.000000,42910.000000,23788.000000
15192.000000,38345.000000,42946.000000,23808.000000
15190.000000,38421.000000,43004.000000,23800.000000
15190.000000,38456.000000,43058.000000,23829.000000
15173.000000,38646.000000,43133.000000,23895.000000
15163.000000,38708.000000,43164.000000,23885.000000
15116.000000,38883.000000,43292.000000,23927.000000
15129.000000,38889.000000,43275.000000,23965.000000
15046.000000,38940.000000,43290.000000,23940.000000
15085.000000,38954.000000,43331.000000,23989.000000
15083.000000,38936.000000,43301.000000,23964.000000
15035.000000,38925.000000,43322.000000,23971.000000
15052.000000,38878.000000,43322.000000,23935.000000
15031.000000,38843.000000,43261.000000,23962.000000
15021.000000,38826.000000,43261.000000,23939.000000
14982.000000,38721.000000,43213.000000,23912.000000
14970.000000,38740.000000,43198.000000,23922.000000
14934.000000,38726.000000,43193.000000,23918.000000
14929.000000,38698.000000,43176.000000,23904.000000
14893.000000,38720.000000,43174.000000,23908.000000
14898.000000,38668.000000,43184.000000,23903.000000
14880.000000,38622.000000,43133.000000,23905.000000
14831.000000,38621.000000,43134.000000,23892.000000
14863.000000,38594.000000,43109.000000,23873.000000
14833.000000,38602.000000,43119.000000,23842.000000
14802.000000,38546.000000,43108.000000,23868.000000
14786.000000,38553.000000,43056.000000,23854.000000
14750.000000,38569.000000,43064.000000,23860.000000
14708.000000,38511.000000,43086.000000,23853.000000
14731.000000,38463.000000,43036.000000,23835.000000
14695.000000,38504.000000,43055.000000,23822.000000
14662.000000,38435.000000,43040.000000,23822.000000
14672.000000,38355.000000,42990.000000,23817.000000
14679.000000,38409.000000,42998.000000,23796.000000
14648.000000,38341.000000,42995.000000,23786.000000
14664.000000,38299.000000,42946.000000,23793.000000
14631.000000,38327.000000,42949.000000,23767.000000
14644.000000,38260.000000,42938.000000,23793.000000
14611.000000,38249.000000,42901.000000,23777.000000
14628.000000,38248.000000,42940.000000,23767.000000
14640.000000,38187.000000,42917.000000,23751.000000
14615.000000,38146.000000,42864.000000,23752.000000
14653.000000,38137.000000,42880.000000,23755.000000
14580.000000,38109.000000,42858.000000,23729.000000
14552.000000,38085.000000,42829.000000,23748.000000
14543.000000,38092.000000,42854.000000,23743.000000
14529.000000,38033.000000,42832.000000,23746.000000
14499.000000,38048.000000,42808.000000,23714.000000
14527.000000,38010.000000,42802.000000,23722.000000
14484.000000,38029.000000,42809.000000,23716.000000
14470.000000,37984.000000,42782.000000,23694.000000
14442.000000,38000.000000,42794.000000,23711.000000
14476.000000,37964.000000,42794.000000,23699.000000
14443.000000,37970.000000,42762.000000,23688.000000
14457.000000,37931.000000,42777.000000,23693.000000
14457.000000,37925.000000,42734.000000,23688.000000
14465.000000,37922.000000,42744.000000,23690.000000
14530.000000,37897.000000,42744.000000,23677.000000
14528.000000,37922.000000,42729.000000,23665.000000
14786.000000,37914.000000,42748.000000,23693.000000
14845.000000,37940.000000,42753.000000,23697.000000
14907.000000,37905.000000,42756.000000,23681.000000
15013.000000,37942.000000,42738.000000,23702.000000
15073.000000,37982.000000,42754.000000,23694.000000
15116.000000,37969.000000,42763.000000,23686.000000
15128.000000,37995.000000,42772.000000,23705.000000
15228.000000,38031.000000,42815.000000,23698.000000
15216.000000,38044.000000,42833.000000,23722.000000
15245.000000,38045.000000,42831.000000,23706.000000
15254.000000,38146.000000,42848.000000,23726.000000
15236.000000,38135.000000,42853.000000,23740.000000
15177.000000,38180.000000,42865.000000,23714.000000
15163.000000,38307.000000,42959.000000,23786.000000
15169.000000,38375.000000,43004.000000,23810.000000
15152.000000,38440.000000,43014.000000,23792.000000
15102.000000,38456.000000,43074.000000,23817.000000
15094.000000,38514.000000,43092.000000,23818.000000
15094.000000,38664.000000,43182.000000,23841.000000
14985.000000,38716.000000,43206.000000,23871.000000
15010.000000,38842.000000,43267.000000,23912.000000
14975.000000,38846.000000,43273.000000,23914.000000
14971.000000,38848.000000,43270.000000,23898.000000
14955.000000,38849.000000,43284.000000,23898.000000
14940.000000,38801.000000,43256.000000,23897.000000
14939.000000,38825.000000,43245.000000,23911.000000
14880.000000,38807.000000,43260.000000,23883.000000
14878.000000,38803.000000,43274.000000,23903.000000
14840.000000,38782.000000,43250.000000,23869.000000
14840.000000,38732.000000,43227.000000,23886.000000
14772.000000,38747.000000,43212.000000,23858.000000
14727.000000,38687.000000,43172.000000,23860.000000
14723.000000,38635.000000,43187.000000,23870.000000
14715.000000,38692.000000,43190.000000,23858.000000
14694.000000,38638.000000,43197.000000,23865.000000
14692.000000,38652.000000,43146.000000,23816.000000
14635.000000,38654.000000,43165.000000,23829.000000
14614.000000,38570.000000,43129.000000,23860.000000
14528.000000,38575.000000,43119.000000,23842.000000
14494.000000,38587.000000,43143.000000,23837.000000
14491.000000,38528.000000,43107.000000,23819.000000
14475.000000,38492.000000,43083.000000,23814.000000
14467.000000,38495.000000,43047.000000,23818.000000
14390.000000,38431.000000,43064.000000,23804.000000
14401.000000,38433.000000,43026.000000,23792.000000
14320.000000,38397.000000,43033.000000,23816.000000
14309.000000,38410.000000,43031.000000,23814.000000
14259.000000,38409.000000,43023.000000,23801.000000
14263.000000,38346.000000,42977.000000,23829.000000
14238.000000,38365.000000,42982.000000,23791.000000
14153.000000,38311.000000,42965.000000,23781.000000
14145.000000,38256.000000,42935.000000,23805.000000
14132.000000,38277.000000,42959.000000,23784.000000
14074.000000,38234.000000,42925.000000,23778.000000
14069.000000,38262.000000,42928.000000,23743.000000
14065.000000,38238.000000,42922.000000,23768.000000
14048.000000,38238.000000,42908.000000,23749.000000
14021.000000,38205.000000,42937.000000,23759.000000
13997.000000,38184.000000,42916.000000,23770.000000
13886.000000,38195.000000,42925.000000,23761.000000
13880.000000,38158.000000,42913.000000,23757.000000
13878.000000,38195.000000,42883.000000,23748.000000
13838.000000,38170.000000,42910.000000,23756.000000
13820.000000,38155.000000,42883.000000,23772.000000
13820.000000,38154.000000,42902.000000,23739.000000
13827.000000,38185.000000,42914.000000,23760.000000
13908.000000,38083.000000,42839.000000,23765.000000
13934.000000,38103.000000,42833.000000,23750.000000
13976.000000,38073.000000,42844.000000,23762.000000
14055.000000,38073.000000,42821.000000,23732.000000
14080.000000,38015.000000,42833.000000,23728.000000
14105.000000,38014.000000,42798.000000,23733.000000
14194.000000,37969.000000,42767.000000,23719.000000
14192.000000,37973.000000,42794.000000,23724.000000
14177.000000,37946.000000,42755.000000,23720.000000
14344.000000,37987.000000,42778.000000,23731.000000
14372.000000,37969.000000,42816.000000,23737.000000
14445.000000,37994.000000,42768.000000,23711.000000
14495.000000,37986.000000,42808.000000,23729.000000
14496.000000,37970.000000,42788.000000,23740.000000
14693.000000,38045.000000,42816.000000,23746.000000
14727.000000,38102.000000,42829.000000,23755.000000
14836.000000,38366.000000,42975.000000,23776.000000
14884.000000,38391.000000,43024.000000,23807.000000
14854.000000,38413.000000,43043.000000,23842.000000
14952.000000,38631.000000,43146.000000,23853.000000
14860.000000,38674.000000,43168.000000,23922.000000
14860.000000,38728.000000,43202.000000,23923.000000
14846.000000,38764.000000,43254.000000,23927.000000
14791.000000,38831.000000,43272.000000,23980.000000
14815.000000,38908.000000,43279.000000,23980.000000
14784.000000,38859.000000,43291.000000,23964.000000
14767.000000,38877.000000,43275.000000,23976.000000
14709.000000,38830.000000,43294.000000,23995.000000
14709.000000,38769.000000,43234.000000,23969.000000
14703.000000,38779.000000,43209.000000,23951.000000
14665.000000,38766.000000,43226.000000,23937.000000
14649.000000,38750.000000,43191.000000,23936.000000
14628.000000,38723.000000,43185.000000,23919.000000
14603.000000,38743.000000,43222.000000,23945.000000
14546.000000,38704.000000,43173.000000,23919.000000
14523.000000,38588.000000,43149.000000,23889.000000
14536.000000,38587.000000,43123.000000,23875.000000
14487.000000,38574.000000,43147.000000,23908.000000
14479.000000,38560.000000,43069.000000,23905.000000
14449.000000,38533.000000,43119.000000,23895.000000
14424.000000,38522.000000,43090.000000,23896.000000
14332.000000,38474.000000,43050.000000,23872.000000
14337.000000,38461.000000,43059.000000,23868.000000
14287.000000,38395.000000,43022.000000,23882.000000
14311.000000,38420.000000,43040.000000,23856.000000
14261.000000,38386.000000,43031.000000,23868.000000
14256.000000,38306.000000,42966.000000,23839.000000
14205.000000,38313.000000,42948.000000,23836.000000
14172.000000,38264.000000,42919.000000,23836.000000
14137.000000,38286.000000,42944.000000,23817.000000
14067.000000,38241.000000,42890.000000,23803.000000
14036.000000,38215.000000,42921.000000,23789.000000
14010.000000,38126.000000,42878.000000,23776.000000
14002.000000,38154.000000,42873.000000,23788.000000
13946.000000,38055.000000,42803.000000,23759.000000
13893.000000,38003.000000,42811.000000,23752.000000
13875.000000,38002.000000,42796.000000,23752.000000
13873.000000,37970.000000,42801.000000,23767.000000
13811.000000,37929.000000,42773.000000,23754.000000
13765.000000,37917.000000,42713.000000,23726.000000
13768.000000,37867.000000,42747.000000,23718.000000
13742.000000,37779.000000,42684.000000,23705.000000
13753.000000,37768.000000,42653.000000,23693.000000
13699.000000,37746.000000,42684.000000,23690.000000
13606.000000,37731.000000,42640.000000,23684.000000
13627.000000,37675.000000,42606.000000,23678.000000
13581.000000,37621.000000,42552.000000,23636.000000
13479.000000,37578.000000,42556.000000,23650.000000
13488.000000,37564.000000,42531.000000,23622.000000
13445.000000,37503.000000,42534.000000,23616.000000
13456.000000,37487.000000,42522.000000,23603.000000
13429.000000,37500.000000,42491.000000,23621.000000
13375.000000,37446.000000,42462.000000,23623.000000
13369.000000,37423.000000,42491.000000,23595.000000
13348.000000,37440.000000,42476.000000,23598.000000
13395.000000,37285.000000,42391.000000,23559.000000
13372.000000,37308.000000,42384.000000,23545.000000
13386.000000,37281.000000,42395.000000,23548.000000
13428.000000,37262.000000,42350.000000,23552.000000
13452.000000,37228.000000,42347.000000,23528.000000
13495.000000,37199.000000,42333.000000,23537.000000
13537.000000,37225.000000,42381.000000,23557.000000
13598.000000,37313.000000,42412.000000,23567.000000
13802.000000,37323.000000,42405.000000,23586.000000
13860.000000,37360.000000,42410.000000,23591.000000
13905.000000,37410.000000,42474.000000,23623.000000
14068.000000,37469.000000,42495.000000,23599.000000
14071.000000,37501.000000,42532.000000,23640.000000
14132.000000,37580.000000,42568.000000,23649.000000
14306.000000,37649.000000,42569.000000,23656.000000
14340.000000,37625.000000,42617.000000,23659.000000
14403.000000,37782.000000,42685.000000,23691.000000
14473.000000,37844.000000,42721.000000,23697.000000
14492.000000,37899.000000,42750.000000,23733.000000
14516.000000,37947.000000,42786.000000,23729.000000
14595.000000,37984.000000,42812.000000,23755.000000
14619.000000,38166.000000,42905.000000,23774.000000
14583.000000,38256.000000,42925.000000,23811.000000
14551.000000,38363.000000,43041.000000,23865.000000
14570.000000,38407.000000,43017.000000,23858.000000
14569.000000,38450.000000,43088.000000,23840.000000
14523.000000,38448.000000,43036.000000,23851.000000
14497.000000,38431.000000,43053.000000,23861.000000
14445.000000,38398.000000,43049.000000,23850.000000
14437.000000,38387.000000,43017.000000,23847.000000
14393.000000,38372.000000,43000.000000,23824.000000
14387.000000,38337.000000,42994.000000,23849.000000
14395.000000,38266.000000,42995.000000,23805.000000
14363.000000,38252.000000,42959.000000,23826.000000
14360.000000,38228.000000,42929.000000,23798.000000
14326.000000,38177.000000,42918.000000,23804.000000
14356.000000,38195.000000,42901.000000,23791.000000
14255.000000,38157.000000,42887.000000,23818.000000
14259.000000,38148.000000,42879.000000,23774.000000
14253.000000,38119.000000,42888.000000,23789.000000
14208.000000,38069.000000,42851.000000,23785.000000
14157.000000,38025.000000,42810.000000,23737.000000
14177.000000,38011.000000,42840.000000,23755.000000
14087.000000,37992.000000,42791.000000,23752.000000
14106.000000,37980.000000,42811.000000,23721.000000
14053.000000,37951.000000,42778.000000,23736.000000
14076.000000,37893.000000,42766.000000,23707.000000
14058.000000,37859.000000,42766.000000,23713.000000
13993.000000,37754.000000,42682.000000,23679.000000
13972.000000,37770.000000,42660.000000,23677.000000
13933.000000,37767.000000,42663.000000,23687.000000
13921.000000,37741.000000,42629.000000,23679.000000
13892.000000,37701.000000,42642.000000,23676.000000
13845.000000,37688.000000,42610.000000,23701.000000
13818.000000,37636.000000,42577.000000,23654.000000
13817.000000,37595.000000,42599.000000,23630.000000
13768.000000,37547.000000,42531.000000,23613.000000
13708.000000,37501.000000,42477.000000,23584.000000
13679.000000,37440.000000,42517.000000,23600.000000
13669.000000,37433.000000,42476.000000,23587.000000
13634.000000,37401.000000,42483.000000,23575.000000
13605.000000,37343.000000,42426.000000,23589.000000
13605.000000,37331.000000,42424.000000,23576.000000
13554.000000,37258.000000,42380.000000,23535.000000
13500.000000,37228.000000,42360.000000,23548.000000
13539.000000,37180.000000,42289.000000,23537.000000
13485.000000,37122.000000,42306.000000,23522.000000
13485.000000,37119.000000,42289.000000,23498.000000
13404.000000,37111.000000,42300.000000,23534.000000
13359.000000,37088.000000,42278.000000,23525.000000
13380.000000,37107.000000,42277.000000,23494.000000
13334.000000,37027.000000,42234.000000,23472.000000
13324.000000,36957.000000,42209.000000,23508.000000
13321.000000,36949.000000,42191.000000,23463.000000
13305.000000,36817.000000,42127.000000,23434.000000
13279.000000,36846.000000,42112.000000,23428.000000
13309.000000,36730.000000,42122.000000,23433.000000
13288.000000,36746.000000,42062.000000,23405.000000
13341.000000,36722.000000,42085.000000,23408.000000
13399.000000,36692.000000,42027.000000,23389.000000
13402.000000,36696.000000,42022.000000,23395.000000
13431.000000,36662.000000,42000.000000,23416.000000
13479.000000,36662.000000,42044.000000,23404.000000
13498.000000,36718.000000,42024.000000,23409.000000
13776.000000,36713.000000,42030.000000,23389.000000
13795.000000,36753.000000,42063.000000,23413.000000
13849.000000,36769.000000,42076.000000,23432.000000
13902.000000,36796.000000,42094.000000,23403.000000
13947.000000,36910.000000,42180.000000,23426.000000
13987.000000,36947.000000,42175.000000,23433.000000
14243.000000,37190.000000,42326.000000,23517.000000
14262.000000,37242.000000,42344.000000,23521.000000
14320.000000,37313.000000,42404.000000,23546.000000
14512.000000,37447.000000,42466.000000,23582.000000
14566.000000,37502.000000,42490.000000,23584.000000
14647.000000,37527.000000,42538.000000,23630.000000
14701.000000,37711.000000,42630.000000,23643.000000
14736.000000,37798.000000,42679.000000,23637.000000
14857.000000,37867.000000,42734.000000,23685.000000
14852.000000,37935.000000,42749.000000,23671.000000
14860.000000,37961.000000,42778.000000,23690.000000
14854.000000,37985.000000,42785.000000,23727.000000
14849.000000,38125.000000,42832.000000,23726.000000
14839.000000,38092.000000,42861.000000,23742.000000
14807.000000,38097.000000,42843.000000,23748.000000
14802.000000,38055.000000,42826.000000,23711.000000
14790.000000,38033.000000,42815.000000,23723.000000
14736.000000,38071.000000,42806.000000,23738.000000
14729.000000,38001.000000,42799.000000,23729.000000
14711.000000,38011.000000,42805.000000,23699.000000
14651.000000,37949.000000,42727.000000,23686.000000
14684.000000,37871.000000,42742.000000,23692.000000
14663.000000,37898.000000,42746.000000,23681.000000
14657.000000,37832.000000,42692.000000,23683.000000
14670.000000,37846.000000,42711.000000,23662.000000
14550.000000,37810.000000,42717.000000,23674.000000
14577.000000,37780.000000,42664.000000,23665.000000
14564.000000,37770.000000,42699.000000,23655.000000
14524.000000,37744.000000,42657.000000,23661.000000
14528.000000,37733.000000,42625.000000,23656.000000
14453.000000,37702.000000,42621.000000,23618.000000
14419.000000,37675.000000,42620.000000,23621.000000
14404.000000,37617.000000,42600.000000,23610.000000
14380.000000,37574.000000,42594.000000,23603.000000
14390.000000,37618.000000,42584.000000,23608.000000
14320.000000,37520.000000,42543.000000,23600.000000
14320.000000,37518.000000,42522.000000,23588.000000
14311.000000,37477.000000,42535.000000,23558.000000
14263.000000,37454.000000,42489.000000,23564.000000
14228.000000,37453.000000,42494.000000,23566.000000
14229.000000,37356.000000,42446.000000,23551.000000
14134.000000,37370.000000,42438.000000,23522.000000
14143.000000,37325.000000,42432.000000,23559.000000
14106.000000,37297.000000,42407.000000,23533.000000
14090.000000,37271.000000,42378.000000,23548.000000
14082.000000,37201.000000,42330.000000,23520.000000
14049.000000,37191.000000,42356.000000,23495.000000
14050.000000,37162.000000,42340.000000,23499.000000
14036.000000,37124.000000,42327.000000,23494.000000
13951.000000,37030.000000,42252.000000,23477.000000
13960.000000,37029.000000,42233.000000,23467.000000
13912.000000,36987.000000,42242.000000,23461.000000
13893.000000,36938.000000,42172.000000,23459.000000
13912.000000,36932.000000,42185.000000,23447.000000
13867.000000,36896.000000,42178.000000,23425.000000
13728.000000,36859.000000,42122.000000,23424.000000
13715.000000,36846.000000,42115.000000,23409.000000
13679.000000,36821.000000,42120.000000,23409.000000
13577.000000,36771.000000,42119.000000,23410.000000
13553.000000,36760.000000,42093.000000,23397.000000
13510.000000,36671.000000,42022.000000,23368.000000
13453.000000,36674.000000,42015.000000,23383.000000
13459.000000,36617.000000,42018.000000,23338.000000
13408.000000,36580.000000,42013.000000,23359.000000
13424.000000,36582.000000,42020.000000,23364.000000
13384.000000,36570.000000,41971.000000,23330.000000
13404.000000,36518.000000,41949.000000,23330.000000
13469.000000,36558.000000,41979.000000,23362.000000
13448.000000,36567.000000,41958.000000,23347.000000
13522.000000,36573.000000,41961.000000,23324.000000
13533.000000,36640.000000,42032.000000,23336.000000
13557.000000,36665.000000,42030.000000,23353.000000
13632.000000,36720.000000,42020.000000,23357.000000
13635.000000,36715.000000,42086.000000,23371.000000
13775.000000,36761.000000,42060.000000,23363.000000
13814.000000,36807.000000,42121.000000,23382.000000
13823.000000,37089.000000,42286.000000,23432.000000
13988.000000,37159.000000,42308.000000,23447.000000
14103.000000,37220.000000,42371.000000,23466.000000
14123.000000,37270.000000,42395.000000,23482.000000
14459.000000,37288.000000,42404.000000,23488.000000
14506.000000,37379.000000,42442.000000,23492.000000
14539.000000,37650.000000,42584.000000,23557.000000
14621.000000,37717.000000,42633.000000,23605.000000
14716.000000,37739.000000,42641.000000,23632.000000
14676.000000,37994.000000,42785.000000,23642.000000
14733.000000,38061.000000,42840.000000,23667.000000
14683.000000,38118.000000,42880.000000,23684.000000
14673.000000,38175.000000,42896.000000,23707.000000
14685.000000,38227.000000,42925.000000,23738.000000
14637.000000,38335.000000,43001.000000,23755.000000
14645.000000,38396.000000,43023.000000,23749.000000
14636.000000,38378.000000,43035.000000,23754.000000
14603.000000,38364.000000,43020.000000,23750.000000
14559.000000,38383.000000,43013.000000,23737.000000
14528.000000,38337.000000,42987.000000,23740.000000
14515.000000,38376.000000,43004.000000,23737.000000
14493.000000,38331.000000,43027.000000,23727.000000
14459.000000,38292.000000,42986.000000,23722.000000
14456.000000,38264.000000,42938.000000,23705.000000
14381.000000,38259.000000,42971.000000,23686.000000
14382.000000,38234.000000,42941.000000,23684.000000
14377.000000,38235.000000,42934.000000,23685.000000
14297.000000,38242.000000,42922.000000,23703.000000
14322.000000,38178.000000,42915.000000,23675.000000
14264.000000,38169.000000,42922.000000,23684.000000
14289.000000,38185.000000,42908.000000,23662.000000
14250.000000,38146.000000,42845.000000,23647.000000
14230.000000,38083.000000,42847.000000,23665.000000
14149.000000,38094.000000,42861.000000,23650.000000
14118.000000,38057.000000,42857.000000,23616.000000
14118.000000,38012.000000,42814.000000,23614.000000
14069.000000,37941.000000,42773.000000,23583.000000
14070.000000,37951.000000,42785.000000,23585.000000
14029.000000,37899.000000,42766.000000,23608.000000
13996.000000,37910.000000,42757.000000,23606.000000
13984.000000,37883.000000,42770.000000,23594.000000
13894.000000,37810.000000,42715.000000,23586.000000
13889.000000,37819.000000,42699.000000,23562.000000
13888.000000,37795.000000,42673.000000,23549.000000
13875.000000,37748.000000,42649.000000,23533.000000
13813.000000,37724.000000,42627.000000,23559.000000
13838.000000,37685.000000,42631.000000,23536.000000
13796.000000,37590.000000,42601.000000,23514.000000
13779.000000,37635.000000,42579.000000,23525.000000
13757.000000,37615.000000,42606.000000,23515.000000
13761.000000,37533.000000,42545.000000,23508.000000
13718.000000,37527.000000,42517.000000,23492.000000
13689.000000,37511.000000,42547.000000,23520.000000
13681.000000,37489.000000,42516.000000,23459.000000
13628.000000,37487.000000,42492.000000,23482.000000
13654.000000,37410.000000,42476.000000,23435.000000
13589.000000,37360.000000,42425.000000,23427.000000
13545.000000,37356.000000,42460.000000,23422.000000
13521.000000,37364.000000,42441.000000,23453.000000
13492.000000,37339.000000,42375.000000,23422.000000
13446.000000,37278.000000,42388.000000,23427.000000
13465.000000,37183.000000,42322.000000,23365.000000
13431.000000,37157.000000,42269.000000,23386.000000
13468.000000,37108.000000,42292.000000,23348.000000
13491.000000,36968.000000,42217.000000,23328.000000
13517.000000,36969.000000,42188.000000,23308.000000
13601.000000,36930.000000,42187.000000,23318.000000
13602.000000,36799.000000,42120.000000,23279.000000
13659.000000,36836.000000,42121.000000,23268.000000
13775.000000,36816.000000,42135.000000,23281.000000
13826.000000,36797.000000,42092.000000,23248.000000
13960.000000,36808.000000,42127.000000,23284.000000
13982.000000,36821.000000,42121.000000,23272.000000
14010.000000,36813.000000,42115.000000,23274.000000
14234.000000,36829.000000,42127.000000,23269.000000
14305.000000,36897.000000,42179.000000,23301.000000
14317.000000,36915.000000,42179.000000,23301.000000
14383.000000,36962.000000,42212.000000,23306.000000
14531.000000,36986.000000,42205.000000,23330.000000
14652.000000,37016.000000,42245.000000,23344.000000
14795.000000,37156.000000,42304.000000,23361.000000
14855.000000,37222.000000,42360.000000,23394.000000
14938.000000,37266.000000,42375.000000,23427.000000
14957.000000,37368.000000,42447.000000,23445.000000
14942.000000,37558.000000,42506.000000,23462.000000
14943.000000,37559.000000,42565.000000,23485.000000
14903.000000,37931.000000,42767.000000,23573.000000
14896.000000,37964.000000,42796.000000,23570.000000
14816.000000,38062.000000,42810.000000,23587.000000
14840.000000,38107.000000,42879.000000,23600.000000
14807.000000,38176.000000,42902.000000,23622.000000
14755.000000,38209.000000,42927.000000,23645.000000
14735.000000,38200.000000,42936.000000,23622.000000
14700.000000,38217.000000,42930.000000,23628.000000
14680.000000,38217.000000,42922.000000,23652.000000
14640.000000,38195.000000,42912.000000,23631.000000
14624.000000,38174.000000,42881.000000,23631.000000
14586.000000,38153.000000,42883.000000,23632.000000
14562.000000,38121.000000,42894.000000,23624.000000
14528.000000,38089.000000,42849.000000,23628.000000
14533.000000,38028.000000,42798.000000,23620.000000
14508.000000,38001.000000,42791.000000,23589.000000
14430.000000,37979.000000,42794.000000,23609.000000
14417.000000,37933.000000,42754.000000,23579.000000
14392.000000,37908.000000,42753.000000,23534.000000
14380.000000,37914.000000,42744.000000,23579.000000
14312.000000,37852.000000,42706.000000,23547.000000
14281.000000,37826.000000,42705.000000,23550.000000
14244.000000,37827.000000,42688.000000,23555.000000
14263.000000,37769.000000,42690.000000,23523.000000
14162.000000,37718.000000,42625.000000,23536.000000
14122.000000,37726.000000,42628.000000,23519.000000
14086.000000,37694.000000,42639.000000,23514.000000
14076.000000,37669.000000,42625.000000,23509.000000
14028.000000,37656.000000,42597.000000,23495.000000
13965.000000,37543.000000,42550.000000,23476.000000
14012.000000,37537.000000,42527.000000,23470.000000
13956.000000,37522.000000,42514.000000,23472.000000
13961.000000,37524.000000,42494.000000,23485.000000
13883.000000,37456.000000,42486.000000,23456.000000
13890.000000,37448.000000,42469.000000,23448.000000
13857.000000,37402.000000,42452.000000,23452.000000
13809.000000,37383.000000,42448.000000,23430.000000
13829.000000,37313.000000,42368.000000,23412.000000
13782.000000,37268.000000,42391.000000,23388.000000
13788.000000,37249.000000,42373.000000,23388.000000
13748.000000,37269.000000,42347.000000,23385.000000
13669.000000,37192.000000,42383.000000,23371.000000
13674.000000,37214.000000,42317.000000,23372.000000
13661.000000,37175.000000,42369.000000,23385.000000
13581.000000,37132.000000,42295.000000,23357.000000
13598.000000,37152.000000,42272.000000,23371.000000
13489.000000,37098.000000,42268.000000,23350.000000
13535.000000,37049.000000,42254.000000,23317.000000
13594.000000,37090.000000,42254.000000,23320.000000
13568.000000,36999.000000,42270.000000,23314.000000
13609.000000,37029.000000,42235.000000,23341.000000
13686.000000,36984.000000,42211.000000,23313.000000
13713.000000,36944.000000,42172.000000,23276.000000
13747.000000,36921.000000,42191.000000,23305.000000
13774.000000,36816.000000,42110.000000,23257.000000
13877.000000,36801.000000,42128.000000,23248.000000
13946.000000,36767.000000,42062.000000,23240.000000
13987.000000,36748.000000,42069.000000,23247.000000
14110.000000,36749.000000,42087.000000,23231.000000
14118.000000,36779.000000,42098.000000,23223.000000
14156.000000,36796.000000,42132.000000,23237.000000
14392.000000,36782.000000,42113.000000,23242.000000
14449.000000,36932.000000,42154.000000,23265.000000
14505.000000,36952.000000,42182.000000,23258.000000
14555.000000,37027.000000,42216.000000,23262.000000
14582.000000,37191.000000,42310.000000,23303.000000
14788.000000,37206.000000,42338.000000,23323.000000
14829.000000,37364.000000,42398.000000,23356.000000
14927.000000,37398.000000,42425.000000,23381.000000
14953.000000,37420.000000,42470.000000,23385.000000
14941.000000,37702.000000,42615.000000,23461.000000
14966.000000,37767.000000,42633.000000,23441.000000
14913.000000,37820.000000,42698.000000,23431.000000
14936.000000,37862.000000,42713.000000,23492.000000
14908.000000,38100.000000,42798.000000,23510.000000
14844.000000,38138.000000,42874.000000,23538.000000
14861.000000,38358.000000,42989.000000,23574.000000
14834.000000,38402.000000,43017.000000,23574.000000
14818.000000,38544.000000,43114.000000,23612.000000
14784.000000,38575.000000,43148.000000,23605.000000
14753.000000,38531.000000,43115.000000,23608.000000
14786.000000,38527.000000,43109.000000,23609.000000
14730.000000,38493.000000,43106.000000,23603.000000
14689.000000,38468.000000,43062.000000,23589.000000
14691.000000,38451.000000,43009.000000,23580.000000
14623.000000,38394.000000,43021.000000,23591.000000
14613.000000,38397.000000,43008.000000,23568.000000
14558.000000,38323.000000,42951.000000,23582.000000
14616.000000,38310.000000,42963.000000,23536.000000
14565.000000,38286.000000,42970.000000,23539.000000
14495.000000,38226.000000,42893.000000,23543.000000
14425.000000,38191.000000,42919.000000,23552.000000
14445.000000,38167.000000,42910.000000,23541.000000
14421.000000,38109.000000,42867.000000,23477.000000
14383.000000,38073.000000,42839.000000,23491.000000
14408.000000,38062.000000,42848.000000,23499.000000
14326.000000,38060.000000,42815.000000,23492.000000
14353.000000,38054.000000,42808.000000,23492.000000
14316.000000,37890.000000,42740.000000,23467.000000
14287.000000,37918.000000,42723.000000,23449.000000
14303.000000,37858.000000,42723.000000,23490.000000
14259.000000,37871.000000,42697.000000,23476.000000
14226.000000,37766.000000,42674.000000,23434.000000
14232.000000,37749.000000,42635.000000,23435.000000
14197.000000,37748.000000,42640.000000,23419.000000
14157.000000,37680.000000,42601.000000,23415.000000
14156.000000,37586.000000,42549.000000,23363.000000
14104.000000,37566.000000,42553.000000,23371.000000
14094.000000,37564.000000,42521.000000,23365.000000
14011.000000,37535.000000,42520.000000,23357.000000
13984.000000,37460.000000,42476.000000,23330.000000
14018.000000,37435.000000,42469.000000,23363.000000
13942.000000,37406.000000,42434.000000,23307.000000
13959.000000,37409.000000,42459.000000,23331.000000
13957.000000,37351.000000,42438.000000,23319.000000
13924.000000,37315.000000,42401.000000,23313.000000
14008.000000,37243.000000,42386.000000,23273.000000
14127.000000,37227.000000,42346.000000,23288.000000
14272.000000,37216.000000,42360.000000,23276.000000
14236.000000,37168.000000,42306.000000,23276.000000
14317.000000,37168.000000,42304.000000,23261.000000
14321.000000,37141.000000,42288.000000,23252.000000
14346.000000,37060.000000,42232.000000,23245.000000
14383.000000,37048.000000,42249.000000,23218.000000
14500.000000,37042.000000,42229.000000,23225.000000
14508.000000,37041.000000,42233.000000,23224.000000
14569.000000,36979.000000,42181.000000,23227.000000
14596.000000,36956.000000,42174.000000,23167.000000
14632.000000,36907.000000,42156.000000,23178.000000
14893.000000,36917.000000,42166.000000,23199.000000
14982.000000,36908.000000,42160.000000,23174.000000
14990.000000,36929.000000,42194.000000,23163.000000
15086.000000,36925.000000,42186.000000,23203.000000
15100.000000,37021.000000,42251.000000,23194.000000
15225.000000,37079.000000,42258.000000,23202.000000
15294.000000,37116.000000,42272.000000,23235.000000
15292.000000,37174.000000,42307.000000,23256.000000
15297.000000,37308.000000,42387.000000,23292.000000
15312.000000,37359.000000,42420.000000,23279.000000
15259.000000,37375.000000,42466.000000,23292.000000
15192.000000,37544.000000,42529.000000,23329.000000
15219.000000,37605.000000,42520.000000,23340.000000
15187.000000,37632.000000,42610.000000,23348.000000
15205.000000,37890.000000,42736.000000,23426.000000
15169.000000,37937.000000,42731.000000,23405.000000
15153.000000,37956.000000,42789.000000,23455.000000
15108.000000,38086.000000,42814.000000,23439.000000
15114.000000,38084.000000,42842.000000,23445.000000
15020.000000,38289.000000,42941.000000,23500.000000
15046.000000,38372.000000,42997.000000,23514.000000
14988.000000,38476.000000,43102.000000,23555.000000
14983.000000,38520.000000,43099.000000,23551.000000
14970.000000,38481.000000,43072.000000,23571.000000
14892.000000,38509.000000,43071.000000,23565.000000
14945.000000,38505.000000,43108.000000,23539.000000
14862.000000,38438.000000,43074.000000,23532.000000
14875.000000,38452.000000,43043.000000,23553.000000
14804.000000,38400.000000,43062.000000,23559.000000
14811.000000,38401.000000,43022.000000,23541.000000
14791.000000,38381.000000,43002.000000,23516.000000
14739.000000,38317.000000,42999.000000,23517.000000
14700.000000,38298.000000,42968.000000,23508.000000
14710.000000,38291.000000,42985.000000,23484.000000
14645.000000,38317.000000,42958.000000,23499.000000
14681.000000,38205.000000,42931.000000,23480.000000
14570.000000,38218.000000,42940.000000,23493.000000
14564.000000,38196.000000,42918.000000,23476.000000
14557.000000,38127.000000,42873.000000,23471.000000
14528.000000,38121.000000,42867.000000,23455.000000
14523.000000,38073.000000,42859.000000,23441.000000
14478.000000,38085.000000,42835.000000,23452.000000
14399.000000,38035.000000,42802.000000,23427.000000
14420.000000,37990.000000,42808.000000,23436.000000
14406.000000,37935.000000,42777.000000,23396.000000
14324.000000,37893.000000,42735.000000,23396.000000
14350.000000,37920.000000,42713.000000,23384.000000
14287.000000,37844.000000,42697.000000,23387.000000
14294.000000,37845.000000,42699.000000,23364.000000
14274.000000,37823.000000,42709.000000,23383.000000
14213.000000,37795.000000,42674.000000,23376.000000
14262.000000,37835.000000,42670.000000,23360.000000
14236.000000,37726.000000,42655.000000,23347.000000
14233.000000,37740.000000,42631.000000,23356.000000
14267.000000,37725.000000,42614.000000,23349.000000
14287.000000,37663.000000,42616.000000,23349.000000
14267.000000,37673.000000,42584.000000,23320.000000
14346.000000,37638.000000,42605.000000,23312.000000
14379.000000,37586.000000,42537.000000,23349.000000
14442.000000,37569.000000,42515.000000,23294.000000
14500.000000,37510.000000,42532.000000,23293.000000
14482.000000,37518.000000,42513.000000,23281.000000
14538.000000,37395.000000,42439.000000,23262.000000
14565.000000,37404.000000,42463.000000,23262.000000
14560.000000,37382.000000,42433.000000,23252.000000
14640.000000,37391.000000,42439.000000,23242.000000
14703.000000,37341.000000,42414.000000,23252.000000
14764.000000,37351.000000,42397.000000,23248.000000
14773.000000,37391.000000,42405.000000,23235.000000
14798.000000,37436.000000,42460.000000,23252.000000
14871.000000,37545.000000,42523.000000,23296.000000
15045.000000,37685.000000,42601.000000,23346.000000
15093.000000,37753.000000,42638.000000,23340.000000
15351.000000,37758.000000,42653.000000,23361.000000
15409.000000,37824.000000,42668.000000,23377.000000
15412.000000,37803.000000,42687.000000,23350.000000
15430.000000,37857.000000,42656.000000,23364.000000
15458.000000,37988.000000,42785.000000,23368.000000
15417.000000,38028.000000,42809.000000,23399.000000
15399.000000,38076.000000,42820.000000,23408.000000
15366.000000,38129.000000,42829.000000,23403.000000
15340.000000,38170.000000,42875.000000,23412.000000
15322.000000,38456.000000,43046.000000,23487.000000
15251.000000,38502.000000,43074.000000,23505.000000
15245.000000,38610.000000,43129.000000,23535.000000
15241.000000,38650.000000,43145.000000,23552.000000
15163.000000,38708.000000,43177.000000,23524.000000
15173.000000,38841.000000,43283.000000,23584.000000
15141.000000,38891.000000,43241.000000,23635.000000
15168.000000,38929.000000,43284.000000,23629.000000
15073.000000,38921.000000,43324.000000,23631.000000
15078.000000,38931.000000,43319.000000,23614.000000
15058.000000,38853.000000,43245.000000,23617.000000
14999.000000,38863.000000,43254.000000,23604.000000
14999.000000,38814.000000,43253.000000,23588.000000
14975.000000,38835.000000,43252.000000,23624.000000
14997.000000,38787.000000,43205.000000,23583.000000
14966.000000,38788.000000,43208.000000,23585.000000
14875.000000,38746.000000,43194.000000,23600.000000
14871.000000,38726.000000,43188.000000,23565.000000
14846.000000,38726.000000,43197.000000,23563.000000
14826.000000,38663.000000,43135.000000,23552.000000
14828.000000,38621.000000,43107.000000,23539.000000
14808.000000,38554.000000,43093.000000,23538.000000
14755.000000,38590.000000,43085.000000,23551.000000
14692.000000,38541.000000,43071.000000,23529.000000
14724.000000,38461.000000,43029.000000,23527.000000
14704.000000,38419.000000,43015.000000,23518.000000
14709.000000,38487.000000,43015.000000,23494.000000
14715.000000,38403.000000,43008.000000,23497.000000
14643.000000,38381.000000,42970.000000,23486.000000
14633.000000,38342.000000,42975.000000,23501.000000
14667.000000,38333.000000,42938.000000,23499.000000
14680.000000,38257.000000,42915.000000,23462.000000
14648.000000,38241.000000,42917.000000,23445.000000
14629.000000,38219.000000,42903.000000,23442.000000
14620.000000,38190.000000,42881.000000,23421.000000
14634.000000,38165.000000,42867.000000,23440.000000
14630.000000,38117.000000,42783.000000,23408.000000
14624.000000,38060.000000,42821.000000,23393.000000
14653.000000,38063.000000,42790.000000,23419.000000
14667.000000,38036.000000,42779.000000,23401.000000
14639.000000,38029.000000,42772.000000,23411.000000
14676.000000,38001.000000,42772.000000,23420.000000
14682.000000,37924.000000,42703.000000,23364.000000
14730.000000,37880.000000,42690.000000,23397.000000
14727.000000,37868.000000,42681.000000,23385.000000
14734.000000,37798.000000,42669.000000,23350.000000
14763.000000,37798.000000,42601.000000,23335.000000
14804.000000,37792.000000,42603.000000,23323.000000
14887.000000,37719.000000,42625.000000,23328.000000
14925.000000,37743.000000,42618.000000,23352.000000
15122.000000,37697.000000,42569.000000,23307.000000
15156.000000,37668.000000,42571.000000,23294.000000
15265.000000,37656.000000,42565.000000,23318.000000
15278.000000,37685.000000,42593.000000,23306.000000
15338.000000,37716.000000,42578.000000,23295.000000
15374.000000,37738.000000,42596.000000,23340.000000
15526.000000,37748.000000,42611.000000,23343.000000
15547.000000,37803.000000,42623.000000,23365.000000
15653.000000,37866.000000,42630.000000,23346.000000
15670.000000,37954.000000,42739.000000,23350.000000
15660.000000,37954.000000,42729.000000,23383.000000
15651.000000,37997.000000,42744.000000,23380.000000
15600.000000,38059.000000,42808.000000,23391.000000
15558.000000,38079.000000,42802.000000,23398.000000
15565.000000,38108.000000,42822.000000,23388.000000
15584.000000,38130.000000,42805.000000,23410.000000
15547.000000,38252.000000,42864.000000,23439.000000
15567.000000,38245.000000,42909.000000,23444.000000
15487.000000,38333.000000,42934.000000,23426.000000
15485.000000,38322.000000,42986.000000,23474.000000
15439.000000,38395.000000,42973.000000,23450.000000
15368.000000,38570.000000,43085.000000,23500.000000
15395.000000,38635.000000,43104.000000,23529.000000
15350.000000,38992.000000,43326.000000,23596.000000
15350.000000,39006.000000,43340.000000,23646.000000
15293.000000,39078.000000,43334.000000,23629.000000
15282.000000,39052.000000,43348.000000,23654.000000
15277.000000,39062.000000,43349.000000,23646.000000
15271.000000,39008.000000,43347.000000,23624.000000
15191.000000,38964.000000,43323.000000,23621.000000
15200.000000,38950.000000,43304.000000,23628.000000
15160.000000,38982.000000,43304.000000,23633.000000
15185.000000,38909.000000,43283.000000,23650.000000
15171.000000,38811.000000,43231.000000,23600.000000
15150.000000,38808.000000,43229.000000,23585.000000
15155.000000,38790.000000,43189.000000,23575.000000
15124.000000,38732.000000,43178.000000,23578.000000
15113.000000,38738.000000,43171.000000,23577.000000
15086.000000,38700.000000,43147.000000,23574.000000
15086.000000,38710.000000,43158.000000,23545.000000
15071.000000,38653.000000,43134.000000,23526.000000
15085.000000,38650.000000,43097.000000,23557.000000
15052.000000,38617.000000,43125.000000,23520.000000
15026.000000,38565.000000,43094.000000,23516.000000
15042.000000,38546.000000,43053.000000,23521.000000
15021.000000,38524.000000,43079.000000,23519.000000
15041.000000,38508.000000,43065.000000,23501.000000
14945.000000,38500.000000,43030.000000,23493.000000
14941.000000,38413.000000,43014.000000,23493.000000
14960.000000,38435.000000,43000.000000,23491.000000
14964.000000,38369.000000,42958.000000,23471.000000
14943.000000,38345.000000,42962.000000,23473.000000
14905.000000,38281.000000,42907.000000,23477.000000
14896.000000,38314.000000,42922.000000,23460.000000
14892.000000,38288.000000,42922.000000,23440.000000
14912.000000,38224.000000,42893.000000,23456.000000
14950.000000,38185.000000,42850.000000,23419.000000
14915.000000,38226.000000,42863.000000,23413.000000
14958.000000,38196.000000,42834.000000,23429.000000
14981.000000,38187.000000,42892.000000,23406.000000
14969.000000,38194.000000,42855.000000,23422.000000
15028.000000,38143.000000,42841.000000,23417.000000
15037.000000,38163.000000,42832.000000,23424.000000
15113.000000,38170.000000,42870.000000,23426.000000
15157.000000,38131.000000,42851.000000,23430.000000
15173.000000,38127.000000,42859.000000,23420.000000
15412.000000,38145.000000,42823.000000,23405.000000
15494.000000,38112.000000,42817.000000,23429.000000
15497.000000,38131.000000,42811.000000,23427.000000
15580.000000,38162.000000,42808.000000,23448.000000
15581.000000,38128.000000,42835.000000,23431.000000
15654.000000,38163.000000,42828.000000,23416.000000
15744.000000,38134.000000,42837.000000,23419.000000
15710.000000,38180.000000,42821.000000,23425.000000
15696.000000,38187.000000,42867.000000,23431.000000
15726.000000,38219.000000,42900.000000,23431.000000
15665.000000,38250.000000,42910.000000,23448.000000
15642.000000,38242.000000,42913.000000,23430.000000
15597.000000,38269.000000,42929.000000,23458.000000
15589.000000,38344.000000,42928.000000,23463.000000
15513.000000,38403.000000,42968.000000,23468.000000
15496.000000,38441.000000,42988.000000,23494.000000
15460.000000,38675.000000,43130.000000,23539.000000
15460.000000,38705.000000,43132.000000,23533.000000
15442.000000,38770.000000,43177.000000,23574.000000
15397.000000,38831.000000,43235.000000,23575.000000
15376.000000,38896.000000,43244.000000,23605.000000
15333.000000,38943.000000,43274.000000,23579.000000
15336.000000,39126.000000,43407.000000,23664.000000
15329.000000,39171.000000,43401.000000,23700.000000
15273.000000,39287.000000,43474.000000,23692.000000
15223.000000,39293.000000,43490.000000,23693.000000
15239.000000,39278.000000,43493.000000,23714.000000
15211.000000,39262.000000,43493.000000,23697.000000
15211.000000,39218.000000,43456.000000,23687.000000
15197.000000,39225.000000,43431.000000,23692.000000
15169.000000,39201.000000,43460.000000,23707.000000
15144.000000,39210.000000,43444.000000,23690.000000
15106.000000,39184.000000,43446.000000,23671.000000
15137.000000,39170.000000,43414.000000,23662.000000
15104.000000,39083.000000,43392.000000,23662.000000
15065.000000,39090.000000,43366.000000,23672.000000
15099.000000,39071.000000,43388.000000,23650.000000
15074.000000,38997.000000,43350.000000,23616.000000
15097.000000,38974.000000,43301.000000,23612.000000
15069.000000,38963.000000,43324.000000,23626.000000
15044.000000,38957.000000,43299.000000,23618.000000
15071.000000,38861.000000,43252.000000,23593.000000
15023.000000,38900.000000,43269.000000,23618.000000
14997.000000,38854.000000,43229.000000,23596.000000
14991.000000,38872.000000,43230.000000,23575.000000
14994.000000,38814.000000,43216.000000,23557.000000
14901.000000,38787.000000,43226.000000,23555.000000
14951.000000,38803.000000,43212.000000,23569.000000
14911.000000,38769.000000,43195.000000,23579.000000
14900.000000,38744.000000,43184.000000,23563.000000
14834.000000,38704.000000,43178.000000,23560.000000
14861.000000,38693.000000,43159.000000,23530.000000
14834.000000,38686.000000,43150.000000,23552.000000
14864.000000,38673.000000,43158.000000,23551.000000
14839.000000,38649.000000,43140.000000,23518.000000
14850.000000,38665.000000,43118.000000,23522.000000
14901.000000,38624.000000,43123.000000,23523.000000
14853.000000,38588.000000,43091.000000,23530.000000
14857.000000,38628.000000,43098.000000,23541.000000
14905.000000,38566.000000,43080.000000,23536.000000
15072.000000,38605.000000,43116.000000,23498.000000
15139.000000,38579.000000,43116.000000,23525.000000
15173.000000,38574.000000,43066.000000,23509.000000
15225.000000,38525.000000,43013.000000,23498.000000
15241.000000,38477.000000,43010.000000,23521.000000
15468.000000,38509.000000,42989.000000,23509.000000
15466.000000,38461.000000,43010.000000,23498.000000
15501.000000,38449.000000,42975.000000,23481.000000
15519.000000,38430.000000,42977.000000,23492.000000
15519.000000,38401.000000,42984.000000,23493.000000
15503.000000,38453.000000,42998.000000,23497.000000
15490.000000,38453.000000,42993.000000,23508.000000
15485.000000,38464.000000,43017.000000,23540.000000
15464.000000,38474.000000,43027.000000,23515.000000
15415.000000,38485.000000,43013.000000,23525.000000
15433.000000,38527.000000,43017.000000,23519.000000
15394.000000,38537.000000,43052.000000,23521.000000
15406.000000,38556.000000,43066.000000,23524.000000
15400.000000,38586.000000,43076.000000,23518.000000
15348.000000,38641.000000,43134.000000,23570.000000
15312.000000,38686.000000,43122.000000,23543.000000
15306.000000,38746.000000,43157.000000,23553.000000
15290.000000,39001.000000,43325.000000,23639.000000
15258.000000,39029.000000,43326.000000,23644.000000
15256.000000,39096.000000,43363.000000,23677.000000
15251.000000,39156.000000,43372.000000,23671.000000
15174.000000,39213.000000,43432.000000,23689.000000
15189.000000,39244.000000,43463.000000,23714.000000
15161.000000,39336.000000,43541.000000,23734.000000
15169.000000,39339.000000,43524.000000,23761.000000
15110.000000,39363.000000,43505.000000,23725.000000
15102.000000,39345.000000,43517.000000,23727.000000
15113.000000,39321.000000,43479.000000,23725.000000
15079.000000,39287.000000,43471.000000,23719.000000
15050.000000,39252.000000,43459.000000,23698.000000
15050.000000,39209.000000,43437.000000,23695.000000
15021.000000,39121.000000,43397.000000,23701.000000
15019.000000,39097.000000,43366.000000,23701.000000
15023.000000,39092.000000,43369.000000,23688.000000
14987.000000,39059.000000,43353.000000,23674.000000
14999.000000,39066.000000,43310.000000,23647.000000
14933.000000,39015.000000,43315.000000,23677.000000
14986.000000,38938.000000,43263.000000,23628.000000
14984.000000,38969.000000,43255.000000,23633.000000
14965.000000,38936.000000,43253.000000,23646.000000
14972.000000,38898.000000,43247.000000,23615.000000
14966.000000,38892.000000,43245.000000,23624.000000
14980.000000,38800.000000,43210.000000,23619.000000
14940.000000,38804.000000,43189.000000,23590.000000
14960.000000,38788.000000,43171.000000,23583.000000
14937.000000,38782.000000,43165.000000,23592.000000
14968.000000,38752.000000,43155.000000,23579.000000
14961.000000,38731.000000,43163.000000,23584.000000
14910.000000,38688.000000,43140.000000,23585.000000
14923.000000,38706.000000,43092.000000,23550.000000
14881.000000,38646.000000,43110.000000,23551.000000
14887.000000,38638.000000,43112.000000,23557.000000
14886.000000,38655.000000,43115.000000,23561.000000
14834.000000,38639.000000,43083.000000,23548.000000
14827.000000,38619.000000,43077.000000,23542.000000
14851.000000,38618.000000,43080.000000,23565.000000
14822.000000,38630.000000,43071.000000,23520.000000
14880.000000,38593.000000,43091.000000,23538.000000
14849.000000,38590.000000,43057.000000,23540.000000
14885.000000,38583.000000,43047.000000,23540.000000
14928.000000,38547.000000,43036.000000,23532.000000
14904.000000,38538.000000,43040.000000,23511.000000
14916.000000,38547.000000,43031.000000,23513.000000
14961.000000,38455.000000,43003.000000,23531.000000
15012.000000,38428.000000,42966.000000,23523.000000
15222.000000,38461.000000,42962.000000,23487.000000
15244.000000,38436.000000,42968.000000,23512.000000
15297.000000,38379.000000,42927.000000,23511.000000
15302.000000,38357.000000,42933.000000,23476.000000
15362.000000,38371.000000,42926.000000,23486.000000
15408.000000,38374.000000,42931.000000,23476.000000
15572.000000,38382.000000,42909.000000,23494.000000
15563.000000,38347.000000,42965.000000,23475.000000
15560.000000,38384.000000,42949.000000,23485.000000
15558.000000,38409.000000,42942.000000,23479.000000
15520.000000,38394.000000,42977.000000,23518.000000
15515.000000,38422.000000,42986.000000,23496.000000
15461.000000,38585.000000,43051.000000,23542.000000
15444.000000,38613.000000,43077.000000,23543.000000
15472.000000,38717.000000,43122.000000,23574.000000
15380.000000,38744.000000,43143.000000,23572.000000
15382.000000,38781.000000,43189.000000,23604.000000
15373.000000,38982.000000,43304.000000,23645.000000
15332.000000,39064.000000,43320.000000,23690.000000
15333.000000,39068.000000,43334.000000,23665.000000
15318.000000,39101.000000,43354.000000,23676.000000
15284.000000,39082.000000,43378.000000,23676.000000
15270.000000,39056.000000,43337.000000,23683.000000
15240.000000,39042.000000,43320.000000,23702.000000
15247.000000,39044.000000,43319.000000,23684.000000
15182.000000,39023.000000,43329.000000,23682.000000
15163.000000,38962.000000,43292.000000,23674.000000
15187.000000,38963.000000,43252.000000,23668.000000
15157.000000,38943.000000,43271.000000,23679.000000
15167.000000,38886.000000,43267.000000,23673.000000
15137.000000,38898.000000,43248.000000,23679.000000
15100.000000,38860.000000,43224.000000,23642.000000
15090.000000,38849.000000,43221.000000,23638.000000
15070.000000,38864.000000,43200.000000,23638.000000
15040.000000,38840.000000,43213.000000,23647.000000
15041.000000,38778.000000,43193.000000,23624.000000
14982.000000,38757.000000,43165.000000,23634.000000
14985.000000,38762.000000,43154.000000,23622.000000
14961.000000,38744.000000,43115.000000,23604.000000
14924.000000,38644.000000,43094.000000,23603.000000
14949.000000,38664.000000,43143.000000,23605.000000
14930.000000,38651.000000,43083.000000,23604.000000
14908.000000,38614.000000,43066.000000,23599.000000
14889.000000,38597.000000,43047.000000,23587.000000
14875.000000,38591.000000,43066.000000,23588.000000
14857.000000,38592.000000,43045.000000,23573.000000
14916.000000,38552.000000,43034.000000,23549.000000
14916.000000,38516.000000,43018.000000,23571.000000
14904.000000,38526.000000,43033.000000,23561.000000
14920.000000,38475.000000,43033.000000,23549.000000
14910.000000,38495.000000,43023.000000,23545.000000
14879.000000,38479.000000,43028.000000,23539.000000
14900.000000,38474.000000,43004.000000,23542.000000
14836.000000,38491.000000,43011.000000,23560.000000
14839.000000,38463.000000,43003.000000,23545.000000
14754.000000,38453.000000,42961.000000,23543.000000
14752.000000,38487.000000,42998.000000,23530.000000
14695.000000,38425.000000,42993.000000,23557.000000
14690.000000,38478.000000,42977.000000,23534.000000
14703.000000,38481.000000,42992.000000,23535.000000
14694.000000,38449.000000,42994.000000,23532.000000
14691.000000,38453.000000,43001.000000,23537.000000
14717.000000,38437.000000,42983.000000,23537.000000
14697.000000,38446.000000,42968.000000,23510.000000
14768.000000,38464.000000,43006.000000,23532.000000
14799.000000,38448.000000,42992.000000,23519.000000
14772.000000,38407.000000,42966.000000,23533.000000
14835.000000,38396.000000,42943.000000,23525.000000
14840.000000,38351.000000,42946.000000,23513.000000
14881.000000,38369.000000,42950.000000,23525.000000
15081.000000,38355.000000,42956.000000,23519.000000
15164.000000,38352.000000,42931.000000,23508.000000
15174.000000,38356.000000,42929.000000,23482.000000
15231.000000,38319.000000,42922.000000,23511.000000
15283.000000,38375.000000,42923.000000,23499.000000
15360.000000,38400.000000,42950.000000,23471.000000
15485.000000,38388.000000,42926.000000,23503.000000
15487.000000,38399.000000,42966.000000,23501.000000
15484.000000,38402.000000,42969.000000,23495.000000
15496.000000,38432.000000,42957.000000,23493.000000
15493.000000,38567.000000,43020.000000,23531.000000
15458.000000,38544.000000,43053.000000,23527.000000
15472.000000,38766.000000,43149.000000,23596.000000
15398.000000,38827.000000,43189.000000,23581.000000
15420.000000,38840.000000,43211.000000,23594.000000
15367.000000,38977.000000,43261.000000,23610.000000
15315.000000,38968.000000,43275.000000,23625.000000
15347.000000,39054.000000,43315.000000,23621.000000
15319.000000,39189.000000,43426.000000,23690.000000
15273.000000,39204.000000,43399.000000,23668.000000
15273.000000,39188.000000,43451.000000,23698.000000
15260.000000,39197.000000,43390.000000,23687.000000
15263.000000,39194.000000,43370.000000,23666.000000
15270.000000,39130.000000,43350.000000,23673.000000
15229.000000,39114.000000,43350.000000,23644.000000
15216.000000,39069.000000,43348.000000,23628.000000
15241.000000,39023.000000,43293.000000,23638.000000
15143.000000,38975.000000,43296.000000,23644.000000
15182.000000,38959.000000,43308.000000,23644.000000
15149.000000,38969.000000,43283.000000,23617.000000
15147.000000,38964.000000,43284.000000,23613.000000
15122.000000,38897.000000,43268.000000,23613.000000
15095.000000,38930.000000,43256.000000,23607.000000
15107.000000,38891.000000,43242.000000,23620.000000
15077.000000,38846.000000,43210.000000,23614.000000
15061.000000,38872.000000,43238.000000,23592.000000
15047.000000,38828.000000,43197.000000,23601.000000
15049.000000,38769.000000,43176.000000,23590.000000
14984.000000,38748.000000,43187.000000,23586.000000
14989.000000,38749.000000,43167.000000,23574.000000
14982.000000,38749.000000,43181.000000,23559.000000
14969.000000,38714.000000,43138.000000,23585.000000
14977.000000,38715.000000,43122.000000,23523.000000
14969.000000,38697.000000,43114.000000,23535.000000
14933.000000,38653.000000,43106.000000,23551.000000
14905.000000,38626.000000,43094.000000,23533.000000
14904.000000,38601.000000,43069.000000,23517.000000
14890.000000,38586.000000,43067.000000,23508.000000
14898.000000,38574.000000,43086.000000,23486.000000
14926.000000,38537.000000,43047.000000,23519.000000
14851.000000,38559.000000,43038.000000,23516.000000
14872.000000,38527.000000,43026.000000,23514.000000
14873.000000,38507.000000,43041.000000,23508.000000
14813.000000,38467.000000,42980.000000,23505.000000
14800.000000,38511.000000,43025.000000,23497.000000
14819.000000,38464.000000,42982.000000,23488.000000
14806.000000,38495.000000,43014.000000,23496.000000
14770.000000,38466.000000,43019.000000,23480.000000
14751.000000,38444.000000,43017.000000,23480.000000
14741.000000,38480.000000,43018.000000,23472.000000
14686.000000,38436.000000,43026.000000,23510.000000
14680.000000,38464.000000,42993.000000,23482.000000
14692.000000,38466.000000,42958.000000,23472.000000
14604.000000,38445.000000,42993.000000,23479.000000
14559.000000,38478.000000,42978.000000,23466.000000
14551.000000,38429.000000,42973.000000,23467.000000
14570.000000,38376.000000,42941.000000,23447.000000
14568.000000,38315.000000,42931.000000,23447.000000
14595.000000,38343.000000,42901.000000,23417.000000
14567.000000,38311.000000,42921.000000,23415.000000
14564.000000,38267.000000,42881.000000,23411.000000
14601.000000,38275.000000,42893.000000,23402.000000
14593.000000,38316.000000,42868.000000,23391.000000
14632.000000,38248.000000,42898.000000,23410.000000
14718.000000,38312.000000,42919.000000,23402.000000
14788.000000,38309.000000,42927.000000,23398.000000
14810.000000,38311.000000,42903.000000,23401.000000
14861.000000,38425.000000,42976.000000,23404.000000
14900.000000,38452.000000,42991.000000,23408.000000
14965.000000,38457.000000,42970.000000,23414.000000
15123.000000,38516.000000,43014.000000,23430.000000
15151.000000,38502.000000,43023.000000,23426.000000
15217.000000,38715.000000,43132.000000,23466.000000
15287.000000,38806.000000,43175.000000,23466.000000
15313.000000,38874.000000,43258.000000,23495.000000
15337.000000,38910.000000,43247.000000,23511.000000
15368.000000,38995.000000,43285.000000,23534.000000
15381.000000,39055.000000,43348.000000,23554.000000
15325.000000,39214.000000,43423.000000,23607.000000
15273.000000,39234.000000,43453.000000,23619.000000
15281.000000,39277.000000,43473.000000,23604.000000
15234.000000,39250.000000,43478.000000,23615.000000
15224.000000,39262.000000,43437.000000,23598.000000
15210.000000,39200.000000,43452.000000,23604.000000
15193.000000,39215.000000,43415.000000,23585.000000
15137.000000,39187.000000,43423.000000,23561.000000
15158.000000,39168.000000,43395.000000,23577.000000
15108.000000,39116.000000,43382.000000,23563.000000
15142.000000,39087.000000,43359.000000,23542.000000
15078.000000,39061.000000,43364.000000,23574.000000
15075.000000,39081.000000,43340.000000,23534.000000
15026.000000,39032.000000,43330.000000,23554.000000
14979.000000,38999.000000,43299.000000,23545.000000
14998.000000,38997.000000,43302.000000,23529.000000
14939.000000,38970.000000,43279.000000,23548.000000
14912.000000,38987.000000,43288.000000,23508.000000
14921.000000,38932.000000,43292.000000,23543.000000
14867.000000,38940.000000,43277.000000,23521.000000
14836.000000,38976.000000,43258.000000,23504.000000
14841.000000,38915.000000,43230.000000,23490.000000
14813.000000,38893.000000,43221.000000,23505.000000
14818.000000,38890.000000,43246.000000,23469.000000
14808.000000,38873.000000,43252.000000,23492.000000
14731.000000,38867.000000,43230.000000,23507.000000
14690.000000,38849.000000,43203.000000,23478.000000
14615.000000,38820.000000,43196.000000,23472.000000
14609.000000,38774.000000,43174.000000,23487.000000
14564.000000,38770.000000,43158.000000,23452.000000
14541.000000,38721.000000,43162.000000,23482.000000
14563.000000,38725.000000,43129.000000,23466.000000
14536.000000,38716.000000,43133.000000,23454.000000
14514.000000,38679.000000,43141.000000,23457.000000
14486.000000,38682.000000,43110.000000,23459.000000
14471.000000,38662.000000,43144.000000,23442.000000
14415.000000,38648.000000,43104.000000,23427.000000
14418.000000,38663.000000,43122.000000,23434.000000
14389.000000,38637.000000,43085.000000,23432.000000
14428.000000,38612.000000,43088.000000,23423.000000
14393.000000,38588.000000,43055.000000,23433.000000
14367.000000,38583.000000,43059.000000,23407.000000
14383.000000,38567.000000,43087.000000,23433.000000
14364.000000,38569.000000,43048.000000,23412.000000
14389.000000,38566.000000,43076.000000,23404.000000
14349.000000,38549.000000,43050.000000,23421.000000
14294.000000,38531.000000,43072.000000,23411.000000
14296.000000,38532.000000,43059.000000,23406.000000
14298.000000,38444.000000,43037.000000,23426.000000
14289.000000,38526.000000,43018.000000,23390.000000
14280.000000,38443.000000,43004.000000,23420.000000
14233.000000,38448.000000,42982.000000,23411.000000
14247.000000,38448.000000,42954.000000,23363.000000
14256.000000,38393.000000,42979.000000,23361.000000
14229.000000,38396.000000,42966.000000,23347.000000
14269.000000,38348.000000,42976.000000,23364.000000
14305.000000,38357.000000,42934.000000,23347.000000
14296.000000,38283.000000,42889.000000,23306.000000
14323.000000,38243.000000,42862.000000,23341.000000
14338.000000,38231.000000,42850.000000,23318.000000
14372.000000,38270.000000,42845.000000,23321.000000
