660nm,730nm,850nm,940nm
9355.000000,30239.000000,38257.000000,19638.000000
9356.000000,30250.000000,38287.000000,19616.000000
9379.000000,30277.000000,38261.000000,19629.000000
9387.000000,30287.000000,38310.000000,19648.000000
9478.000000,30372.000000,38349.000000,19666.000000
9479.000000,30384.000000,38335.000000,19669.000000
9628.000000,30575.000000,38451.000000,19721.000000
9631.000000,30589.000000,38455.000000,19710.000000
9696.000000,30660.000000,38500.000000,19723.000000
9724.000000,30716.000000,38519.000000,19747.000000
9746.000000,30730.000000,38536.000000,19748.000000
9911.000000,30908.000000,38622.000000,19764.000000
9957.000000,30964.000000,38665.000000,19800.000000
10196.000000,31228.000000,38850.000000,19871.000000
10276.000000,31303.000000,38871.000000,19878.000000
10328.000000,31380.000000,38909.000000,19911.000000
10352.000000,31416.000000,38954.000000,19927.000000
10498.000000,31604.000000,39062.000000,19970.000000
10517.000000,31586.000000,39044.000000,19975.000000
10524.000000,31615.000000,39059.000000,19944.000000
10538.000000,31585.000000,39059.000000,19996.000000
10513.000000,31595.000000,39025.000000,19960.000000
10517.000000,31599.000000,39059.000000,19988.000000
10507.000000,31573.000000,39043.000000,19978.000000
10512.000000,31620.000000,39030.000000,19934.000000
10472.000000,31567.000000,39016.000000,19938.000000
10427.000000,31549.000000,39019.000000,19939.000000
10465.000000,31510.000000,39037.000000,19952.000000
10424.000000,31511.000000,39012.000000,19929.000000
10377.000000,31488.000000,39006.000000,19910.000000
10405.000000,31488.000000,38992.000000,19913.000000
10349.000000,31501.000000,38968.000000,19882.000000
10389.000000,31424.000000,38967.000000,19896.000000
10342.000000,31423.000000,38965.000000,19880.000000
10338.000000,31423.000000,38958.000000,19892.000000
10299.000000,31415.000000,38959.000000,19858.000000
10314.000000,31405.000000,38936.000000,19898.000000
10302.000000,31412.000000,38933.000000,19879.000000
10266.000000,31371.000000,38934.000000,19861.000000
10240.000000,31334.000000,38917.000000,19863.000000
10247.000000,31333.000000,38904.000000,19860.000000
10194.000000,31337.000000,38875.000000,19830.000000
10222.000000,31280.000000,38872.000000,19836.000000
10190.000000,31327.000000,38846.000000,19831.000000
10194.000000,31265.000000,38887.000000,19823.000000
10189.000000,31245.000000,38827.000000,19847.000000
10112.000000,31182.000000,38803.000000,19812.000000
10103.000000,31191.000000,38815.000000,19812.000000
10096.000000,31165.000000,38792.000000,19789.000000
10081.000000,31180.000000,38809.000000,19793.000000
10044.000000,31082.000000,38740.000000,19798.000000
9977.000000,31045.000000,38751.000000,19780.000000
9981.000000,31058.000000,38720.000000,19771.000000
9923.000000,31001.000000,38718.000000,19745.000000
9941.000000,30955.000000,38696.000000,19751.000000
9914.000000,30965.000000,38693.000000,19751.000000
9865.000000,30966.000000,38659.000000,19731.000000
9846.000000,30908.000000,38645.000000,19721.000000
9815.000000,30904.000000,38642.000000,19728.000000
9852.000000,30847.000000,38608.000000,19700.000000
9799.000000,30849.000000,38615.000000,19734.000000
9792.000000,30870.000000,38622.000000,19734.000000
9785.000000,30798.000000,38589.000000,19717.000000
9750.000000,30762.000000,38575.000000,19713.000000
9698.000000,30756.000000,38542.000000,19710.000000
9741.000000,30768.000000,38570.000000,19705.000000
9747.000000,30714.000000,38561.000000,19708.000000
9707.000000,30739.000000,38544.000000,19720.000000
9683.000000,30732.000000,38567.000000,19695.000000
9670.000000,30700.000000,38554.000000,19683.000000
9678.000000,30644.000000,38519.000000,19675.000000
9639.000000,30643.000000,38520.000000,19670.000000
9591.000000,30617.000000,38471.000000,19639.000000
9566.000000,30595.000000,38470.000000,19619.000000
9559.000000,30607.000000,38460.000000,19643.000000
9526.000000,30566.000000,38500.000000,19640.000000
9581.000000,30599.000000,38480.000000,19643.000000
9548.000000,30643.000000,38488.000000,19655.000000
9582.000000,30681.000000,38541.000000,19630.000000
9627.000000,30694.000000,38512.000000,19654.000000
9664.000000,30716.000000,38572.000000,19670.000000
9638.000000,30729.000000,38579.000000,19636.000000
9815.000000,30903.000000,38661.000000,19716.000000
9849.000000,30943.000000,38647.000000,19697.000000
9879.000000,30985.000000,38695.000000,19710.000000
9996.000000,31123.000000,38780.000000,19772.000000
10041.000000,31155.000000,38783.000000,19769.000000
10069.000000,31239.000000,38837.000000,19785.000000
10130.000000,31242.000000,38873.000000,19792.000000
10281.000000,31434.000000,38964.000000,19811.000000
10283.000000,31504.000000,38989.000000,19825.000000
10572.000000,31836.000000,39190.000000,19903.000000
10635.000000,31845.000000,39219.000000,19931.000000
10696.000000,31913.000000,39232.000000,19936.000000
10700.000000,31925.000000,39286.000000,19943.000000
10768.000000,31991.000000,39292.000000,19980.000000
10753.000000,31966.000000,39275.000000,19950.000000
10739.000000,31990.000000,39279.000000,19952.000000
10743.000000,31940.000000,39267.000000,19960.000000
10709.000000,31933.000000,39272.000000,19937.000000
10709.000000,31950.000000,39266.000000,19932.000000
10666.000000,31857.000000,39214.000000,19919.000000
10678.000000,31861.000000,39204.000000,19951.000000
10617.000000,31794.000000,39153.000000,19922.000000
10590.000000,31776.000000,39177.000000,19915.000000
10606.000000,31752.000000,39175.000000,19910.000000
10587.000000,31761.000000,39159.000000,19928.000000
10525.000000,31742.000000,39154.000000,19925.000000
10493.000000,31696.000000,39102.000000,19887.000000
10501.000000,31636.000000,39114.000000,19880.000000
10504.000000,31646.000000,39098.000000,19876.000000
10462.000000,31587.000000,39075.000000,19875.000000
10468.000000,31592.000000,39057.000000,19877.000000
10424.000000,31574.000000,39032.000000,19879.000000
10372.000000,31529.000000,39006.000000,19852.000000
10338.000000,31496.000000,39002.000000,19841.000000
10356.000000,31466.000000,38998.000000,19857.000000
10335.000000,31439.000000,39023.000000,19821.000000
10319.000000,31397.000000,38960.000000,19857.000000
10318.000000,31378.000000,38976.000000,19827.000000
10263.000000,31374.000000,38923.000000,19830.000000
10211.000000,31312.000000,38928.000000,19798.000000
10207.000000,31256.000000,38915.000000,19801.000000
10194.000000,31298.000000,38894.000000,19791.000000
10192.000000,31234.000000,38859.000000,19759.000000
10155.000000,31215.000000,38849.000000,19793.000000
10151.000000,31217.000000,38827.000000,19811.000000
10092.000000,31136.000000,38838.000000,19790.000000
10132.000000,31129.000000,38793.000000,19801.000000
10077.000000,31073.000000,38766.000000,19778.000000
10055.000000,31070.000000,38770.000000,19783.000000
10034.000000,31051.000000,38767.000000,19770.000000
10049.000000,31039.000000,38769.000000,19753.000000
9992.000000,30979.000000,38696.000000,19737.000000
9949.000000,30964.000000,38720.000000,19751.000000
9961.000000,30961.000000,38693.000000,19742.000000
9921.000000,30973.000000,38694.000000,19753.000000
9895.000000,30907.000000,38700.000000,19728.000000
9883.000000,30882.000000,38649.000000,19729.000000
9848.000000,30801.000000,38645.000000,19711.000000
9824.000000,30803.000000,38652.000000,19726.000000
9781.000000,30781.000000,38598.000000,19674.000000
9768.000000,30766.000000,38591.000000,19694.000000
9735.000000,30769.000000,38592.000000,19703.000000
9757.000000,30696.000000,38596.000000,19665.000000
9740.000000,30734.000000,38553.000000,19703.000000
9667.000000,30650.000000,38531.000000,19668.000000
9723.000000,30638.000000,38531.000000,19659.000000
9659.000000,30593.000000,38493.000000,19649.000000
9619.000000,30561.000000,38482.000000,19638.000000
9567.000000,30493.000000,38455.000000,19637.000000
9466.000000,30439.000000,38405.000000,19601.000000
9464.000000,30413.000000,38385.000000,19600.000000
9472.000000,30388.000000,38379.000000,19584.000000
9457.000000,30429.000000,38385.000000,19603.000000
9493.000000,30407.000000,38376.000000,19628.000000
9504.000000,30429.000000,38374.000000,19627.000000
9534.000000,30494.000000,38433.000000,19634.000000
9577.000000,30509.000000,38465.000000,19668.000000
9682.000000,30663.000000,38507.000000,19681.000000
9714.000000,30653.000000,38572.000000,19712.000000
9719.000000,30735.000000,38593.000000,19697.000000
9760.000000,30762.000000,38586.000000,19717.000000
9966.000000,30993.000000,38754.000000,19749.000000
10005.000000,31019.000000,38756.000000,19748.000000
10019.000000,31097.000000,38783.000000,19774.000000
10093.000000,31140.000000,38753.000000,19792.000000
10136.000000,31236.000000,38837.000000,19827.000000
10313.000000,31378.000000,38961.000000,19861.000000
10380.000000,31465.000000,38976.000000,19891.000000
10668.000000,31753.000000,39186.000000,19964.000000
10680.000000,31843.000000,39191.000000,19979.000000
10755.000000,31849.000000,39207.000000,19983.000000
10752.000000,31841.000000,39234.000000,19989.000000
10750.000000,31864.000000,39244.000000,19990.000000
10724.000000,31871.000000,39220.000000,19998.000000
10703.000000,31845.000000,39226.000000,19969.000000
10744.000000,31822.000000,39203.000000,19982.000000
10719.000000,31823.000000,39241.000000,19963.000000
10706.000000,31832.000000,39239.000000,19969.000000
10720.000000,31828.000000,39195.000000,19989.000000
10688.000000,31818.000000,39183.000000,19958.000000
10667.000000,31790.000000,39166.000000,19936.000000
10670.000000,31778.000000,39180.000000,19954.000000
10648.000000,31759.000000,39165.000000,19969.000000
10639.000000,31779.000000,39171.000000,19971.000000
10621.000000,31738.000000,39154.000000,19946.000000
10632.000000,31756.000000,39143.000000,19924.000000
10603.000000,31695.000000,39128.000000,19937.000000
10588.000000,31716.000000,39156.000000,19922.000000
10558.000000,31676.000000,39149.000000,19915.000000
10562.000000,31670.000000,39109.000000,19926.000000
10534.000000,31659.000000,39115.000000,19909.000000
10493.000000,31604.000000,39082.000000,19902.000000
10497.000000,31607.000000,39087.000000,19909.000000
10449.000000,31557.000000,39044.000000,19888.000000
10426.000000,31549.000000,39046.000000,19891.000000
10444.000000,31566.000000,39054.000000,19881.000000
10427.000000,31515.000000,39026.000000,19893.000000
10400.000000,31509.000000,39030.000000,19881.000000
10418.000000,31530.000000,39018.000000,19890.000000
10349.000000,31507.000000,39035.000000,19851.000000
10355.000000,31454.000000,38990.000000,19889.000000
10372.000000,31510.000000,38996.000000,19867.000000
10304.000000,31434.000000,38947.000000,19818.000000
10259.000000,31374.000000,38977.000000,19856.000000
10275.000000,31369.000000,38962.000000,19813.000000
10258.000000,31366.000000,38951.000000,19809.000000
10170.000000,31291.000000,38912.000000,19806.000000
10187.000000,31260.000000,38896.000000,19781.000000
10155.000000,31301.000000,38888.000000,19783.000000
10139.000000,31263.000000,38894.000000,19796.000000
10144.000000,31243.000000,38878.000000,19776.000000
10107.000000,31239.000000,38870.000000,19766.000000
10106.000000,31176.000000,38846.000000,19764.000000
10047.000000,31123.000000,38817.000000,19774.000000
10002.000000,31110.000000,38779.000000,19741.000000
9945.000000,31035.000000,38772.000000,19730.000000
9952.000000,31046.000000,38738.000000,19723.000000
9899.000000,30990.000000,38736.000000,19701.000000
9898.000000,30948.000000,38736.000000,19714.000000
9830.000000,30879.000000,38671.000000,19675.000000
9808.000000,30847.000000,38644.000000,19696.000000
9828.000000,30866.000000,38642.000000,19697.000000
9794.000000,30808.000000,38640.000000,19663.000000
9772.000000,30809.000000,38629.000000,19668.000000
9660.000000,30681.000000,38578.000000,19638.000000
9587.000000,30656.000000,38544.000000,19613.000000
9634.000000,30615.000000,38518.000000,19634.000000
9586.000000,30567.000000,38472.000000,19622.000000
9556.000000,30568.000000,38481.000000,19614.000000
9535.000000,30520.000000,38449.000000,19611.000000
9497.000000,30546.000000,38452.000000,19593.000000
9542.000000,30474.000000,38492.000000,19608.000000
9530.000000,30527.000000,38448.000000,19613.000000
9536.000000,30537.000000,38449.000000,19609.000000
9554.000000,30557.000000,38476.000000,19637.000000
9620.000000,30632.000000,38535.000000,19644.000000
9696.000000,30645.000000,38550.000000,19659.000000
9692.000000,30694.000000,38561.000000,19650.000000
9804.000000,30770.000000,38611.000000,19690.000000
9818.000000,30819.000000,38618.000000,19716.000000
9872.000000,30877.000000,38643.000000,19733.000000
9891.000000,30901.000000,38674.000000,19743.000000
9914.000000,30939.000000,38712.000000,19743.000000
10103.000000,31122.000000,38795.000000,19777.000000
10092.000000,31169.000000,38837.000000,19789.000000
10245.000000,31313.000000,38903.000000,19807.000000
10322.000000,31388.000000,38962.000000,19837.000000
10598.000000,31728.000000,39133.000000,19947.000000
10625.000000,31728.000000,39167.000000,19973.000000
10717.000000,31804.000000,39183.000000,19962.000000
10699.000000,31821.000000,39237.000000,19963.000000
10797.000000,31864.000000,39240.000000,19981.000000
10731.000000,31828.000000,39224.000000,19991.000000
10759.000000,31850.000000,39204.000000,19983.000000
10681.000000,31829.000000,39253.000000,19972.000000
10727.000000,31823.000000,39194.000000,19967.000000
10677.000000,31781.000000,39167.000000,19964.000000
10699.000000,31753.000000,39206.000000,19972.000000
10707.000000,31762.000000,39167.000000,19967.000000
10662.000000,31795.000000,39166.000000,19965.000000
10660.000000,31748.000000,39149.000000,19978.000000
10676.000000,31748.000000,39162.000000,19957.000000
10633.000000,31713.000000,39174.000000,19936.000000
10611.000000,31673.000000,39170.000000,19948.000000
10612.000000,31675.000000,39143.000000,19914.000000
10610.000000,31675.000000,39170.000000,19932.000000
10532.000000,31659.000000,39113.000000,19906.000000
10540.000000,31622.000000,39109.000000,19901.000000
10495.000000,31586.000000,39113.000000,19905.000000
10501.000000,31594.000000,39081.000000,19883.000000
10474.000000,31519.000000,39037.000000,19876.000000
10434.000000,31519.000000,39071.000000,19880.000000
10454.000000,31506.000000,39007.000000,19890.000000
10406.000000,31479.000000,39014.000000,19865.000000
10389.000000,31446.000000,39005.000000,19877.000000
10411.000000,31466.000000,38988.000000,19864.000000
10375.000000,31431.000000,39001.000000,19872.000000
10397.000000,31435.000000,38969.000000,19887.000000
10298.000000,31360.000000,38956.000000,19823.000000
10251.000000,31345.000000,38949.000000,19844.000000
10257.000000,31306.000000,38937.000000,19840.000000
10255.000000,31326.000000,38884.000000,19826.000000
10204.000000,31259.000000,38932.000000,19827.000000
10201.000000,31233.000000,38870.000000,19809.000000
10144.000000,31156.000000,38816.000000,19778.000000
10110.000000,31169.000000,38834.000000,19772.000000
10103.000000,31108.000000,38845.000000,19788.000000
10123.000000,31109.000000,38815.000000,19771.000000
10079.000000,31121.000000,38785.000000,19764.000000
10058.000000,31068.000000,38795.000000,19758.000000
10026.000000,31015.000000,38752.000000,19748.000000
9979.000000,30977.000000,38756.000000,19725.000000
9993.000000,30969.000000,38727.000000,19724.000000
9978.000000,30953.000000,38715.000000,19737.000000
9928.000000,30898.000000,38689.000000,19730.000000
9889.000000,30874.000000,38704.000000,19709.000000
9842.000000,30824.000000,38646.000000,19707.000000
9821.000000,30829.000000,38637.000000,19696.000000
9834.000000,30808.000000,38636.000000,19708.000000
9814.000000,30761.000000,38611.000000,19695.000000
9719.000000,30710.000000,38568.000000,19661.000000
9697.000000,30677.000000,38575.000000,19662.000000
9648.000000,30591.000000,38507.000000,19623.000000
9633.000000,30562.000000,38502.000000,19593.000000
9576.000000,30532.000000,38465.000000,19613.000000
9546.000000,30477.000000,38446.000000,19590.000000
9502.000000,30454.000000,38420.000000,19572.000000
9513.000000,30441.000000,38441.000000,19589.000000
9473.000000,30428.000000,38423.000000,19601.000000
9516.000000,30452.000000,38408.000000,19594.000000
9528.000000,30479.000000,38431.000000,19593.000000
9583.000000,30472.000000,38455.000000,19603.000000
9595.000000,30528.000000,38463.000000,19622.000000
9635.000000,30506.000000,38479.000000,19599.000000
9625.000000,30542.000000,38474.000000,19638.000000
9710.000000,30658.000000,38551.000000,19653.000000
9698.000000,30685.000000,38573.000000,19654.000000
9823.000000,30777.000000,38631.000000,19719.000000
9870.000000,30846.000000,38651.000000,19723.000000
9930.000000,30875.000000,38673.000000,19695.000000
9933.000000,30927.000000,38696.000000,19732.000000
10181.000000,31144.000000,38821.000000,19801.000000
10200.000000,31196.000000,38862.000000,19818.000000
10283.000000,31231.000000,38879.000000,19836.000000
10280.000000,31305.000000,38916.000000,19829.000000
10454.000000,31433.000000,39011.000000,19885.000000
10493.000000,31428.000000,39016.000000,19895.000000
10491.000000,31473.000000,39001.000000,19912.000000
10459.000000,31406.000000,38988.000000,19898.000000
10409.000000,31350.000000,38949.000000,19885.000000
10389.000000,31360.000000,38944.000000,19859.000000
10372.000000,31325.000000,38944.000000,19863.000000
10374.000000,31318.000000,38918.000000,19880.000000
10335.000000,31282.000000,38915.000000,19859.000000
10326.000000,31248.000000,38908.000000,19856.000000
10285.000000,31201.000000,38868.000000,19867.000000
10225.000000,31182.000000,38819.000000,19859.000000
10259.000000,31129.000000,38830.000000,19847.000000
10224.000000,31106.000000,38818.000000,19839.000000
10190.000000,31107.000000,38780.000000,19827.000000
10191.000000,31062.000000,38797.000000,19822.000000
10166.000000,31029.000000,38756.000000,19825.000000
10145.000000,31000.000000,38753.000000,19801.000000
10130.000000,30987.000000,38765.000000,19811.000000
10095.000000,30954.000000,38699.000000,19804.000000
10100.000000,30964.000000,38751.000000,19790.000000
10061.000000,30901.000000,38690.000000,19796.000000
10056.000000,30892.000000,38705.000000,19809.000000
10054.000000,30910.000000,38676.000000,19795.000000
10043.000000,30874.000000,38689.000000,19786.000000
10006.000000,30818.000000,38660.000000,19781.000000
9961.000000,30851.000000,38631.000000,19776.000000
9985.000000,30803.000000,38635.000000,19786.000000
9982.000000,30758.000000,38645.000000,19793.000000
9962.000000,30744.000000,38612.000000,19757.000000
9910.000000,30751.000000,38608.000000,19753.000000
9909.000000,30716.000000,38601.000000,19771.000000
9914.000000,30698.000000,38591.000000,19772.000000
9871.000000,30691.000000,38585.000000,19736.000000
9882.000000,30698.000000,38550.000000,19747.000000
9864.000000,30643.000000,38576.000000,19743.000000
9829.000000,30685.000000,38566.000000,19737.000000
9865.000000,30668.000000,38525.000000,19742.000000
9819.000000,30614.000000,38544.000000,19721.000000
9809.000000,30584.000000,38534.000000,19717.000000
9813.000000,30595.000000,38536.000000,19728.000000
9751.000000,30529.000000,38478.000000,19708.000000
9727.000000,30557.000000,38483.000000,19696.000000
9733.000000,30535.000000,38473.000000,19718.000000
9701.000000,30519.000000,38503.000000,19715.000000
9688.000000,30505.000000,38459.000000,19685.000000
9629.000000,30435.000000,38461.000000,19668.000000
9632.000000,30423.000000,38403.000000,19668.000000
9600.000000,30386.000000,38417.000000,19682.000000
9519.000000,30334.000000,38390.000000,19647.000000
9533.000000,30287.000000,38362.000000,19670.000000
9522.000000,30266.000000,38357.000000,19647.000000
9483.000000,30286.000000,38357.000000,19615.000000
9418.000000,30244.000000,38339.000000,19610.000000
9455.000000,30254.000000,38298.000000,19618.000000
9445.000000,30241.000000,38295.000000,19615.000000
9446.000000,30227.000000,38321.000000,19613.000000
9432.000000,30239.000000,38304.000000,19619.000000
9428.000000,30262.000000,38332.000000,19633.000000
9499.000000,30314.000000,38357.000000,19611.000000
9501.000000,30291.000000,38376.000000,19619.000000
9498.000000,30360.000000,38358.000000,19616.000000
9523.000000,30369.000000,38394.000000,19650.000000
9601.000000,30422.000000,38421.000000,19676.000000
9635.000000,30425.000000,38435.000000,19642.000000
9628.000000,30445.000000,38435.000000,19680.000000
9686.000000,30532.000000,38486.000000,19665.000000
9866.000000,30692.000000,38593.000000,19734.000000
9906.000000,30744.000000,38644.000000,19743.000000
9963.000000,30845.000000,38662.000000,19763.000000
10016.000000,30858.000000,38709.000000,19795.000000
10288.000000,31153.000000,38856.000000,19869.000000
10293.000000,31235.000000,38887.000000,19867.000000
10385.000000,31257.000000,38915.000000,19888.000000
10413.000000,31360.000000,38952.000000,19900.000000
10523.000000,31478.000000,39033.000000,19936.000000
10550.000000,31460.000000,39018.000000,19922.000000
10543.000000,31467.000000,39026.000000,19926.000000
10543.000000,31443.000000,39013.000000,19946.000000
10475.000000,31413.000000,39012.000000,19905.000000
10479.000000,31395.000000,38966.000000,19878.000000
10412.000000,31372.000000,38962.000000,19901.000000
10414.000000,31337.000000,38929.000000,19887.000000
10328.000000,31261.000000,38932.000000,19883.000000
10360.000000,31265.000000,38899.000000,19864.000000
10318.000000,31202.000000,38896.000000,19855.000000
10308.000000,31217.000000,38918.000000,19876.000000
10273.000000,31189.000000,38839.000000,19864.000000
10242.000000,31144.000000,38844.000000,19848.000000
10251.000000,31110.000000,38850.000000,19852.000000
10251.000000,31088.000000,38807.000000,19833.000000
10214.000000,31064.000000,38797.000000,19838.000000
10184.000000,31014.000000,38806.000000,19832.000000
10158.000000,31004.000000,38744.000000,19828.000000
10114.000000,30966.000000,38738.000000,19817.000000
10097.000000,30944.000000,38739.000000,19820.000000
10112.000000,30941.000000,38694.000000,19819.000000
10045.000000,30809.000000,38663.000000,19811.000000
10016.000000,30842.000000,38638.000000,19776.000000
9970.000000,30780.000000,38655.000000,19802.000000
9980.000000,30774.000000,38639.000000,19781.000000
9957.000000,30767.000000,38633.000000,19794.000000
9932.000000,30693.000000,38597.000000,19748.000000
9902.000000,30693.000000,38603.000000,19736.000000
9905.000000,30681.000000,38569.000000,19773.000000
9833.000000,30588.000000,38550.000000,19757.000000
9803.000000,30617.000000,38496.000000,19754.000000
9776.000000,30538.000000,38478.000000,19748.000000
9788.000000,30478.000000,38471.000000,19767.000000
9778.000000,30499.000000,38491.000000,19747.000000
9746.000000,30504.000000,38469.000000,19771.000000
9748.000000,30459.000000,38466.000000,19735.000000
9761.000000,30459.000000,38457.000000,19745.000000
9744.000000,30443.000000,38428.000000,19751.000000
9702.000000,30423.000000,38428.000000,19708.000000
9713.000000,30433.000000,38426.000000,19715.000000
9676.000000,30431.000000,38439.000000,19725.000000
9667.000000,30396.000000,38412.000000,19689.000000
9676.000000,30425.000000,38390.000000,19733.000000
9598.000000,30350.000000,38398.000000,19691.000000
9643.000000,30306.000000,38404.000000,19700.000000
9606.000000,30337.000000,38384.000000,19712.000000
9611.000000,30324.000000,38384.000000,19706.000000
9598.000000,30319.000000,38378.000000,19714.000000
9588.000000,30318.000000,38353.000000,19703.000000
9583.000000,30311.000000,38342.000000,19694.000000
9577.000000,30281.000000,38346.000000,19694.000000
9495.000000,30244.000000,38293.000000,19644.000000
9471.000000,30225.000000,38303.000000,19655.000000
9459.000000,30200.000000,38300.000000,19657.000000
9411.000000,30126.000000,38249.000000,19606.000000
9388.000000,30133.000000,38245.000000,19612.000000
9363.000000,30147.000000,38256.000000,19642.000000
9402.000000,30122.000000,38256.000000,19611.000000
9378.000000,30203.000000,38307.000000,19625.000000
9405.000000,30188.000000,38301.000000,19592.000000
9433.000000,30171.000000,38280.000000,19664.000000
9409.000000,30214.000000,38330.000000,19632.000000
9525.000000,30301.000000,38365.000000,19629.000000
9536.000000,30371.000000,38374.000000,19657.000000
9556.000000,30391.000000,38392.000000,19664.000000
9591.000000,30362.000000,38435.000000,19684.000000
9753.000000,30621.000000,38556.000000,19751.000000
9829.000000,30655.000000,38577.000000,19751.000000
9890.000000,30740.000000,38604.000000,19747.000000
9917.000000,30775.000000,38615.000000,19764.000000
10073.000000,30934.000000,38745.000000,19805.000000
10105.000000,31040.000000,38774.000000,19809.000000
10405.000000,31380.000000,38992.000000,19868.000000
10495.000000,31441.000000,39016.000000,19915.000000
10528.000000,31544.000000,39037.000000,19912.000000
10605.000000,31552.000000,39082.000000,19960.000000
10699.000000,31718.000000,39160.000000,19979.000000
10730.000000,31711.000000,39192.000000,19967.000000
10768.000000,31763.000000,39214.000000,19982.000000
10778.000000,31782.000000,39232.000000,19967.000000
10744.000000,31749.000000,39195.000000,19968.000000
10729.000000,31759.000000,39203.000000,19970.000000
10713.000000,31757.000000,39181.000000,19982.000000
10696.000000,31709.000000,39212.000000,19980.000000
10681.000000,31679.000000,39161.000000,19966.000000
10665.000000,31661.000000,39159.000000,19946.000000
10631.000000,31622.000000,39160.000000,19928.000000
10583.000000,31610.000000,39096.000000,19913.000000
10574.000000,31584.000000,39096.000000,19926.000000
10552.000000,31585.000000,39086.000000,19896.000000
10552.000000,31532.000000,39103.000000,19905.000000
10500.000000,31521.000000,39077.000000,19877.000000
10516.000000,31504.000000,39092.000000,19891.000000
10437.000000,31415.000000,39013.000000,19847.000000
10389.000000,31381.000000,39005.000000,19862.000000
10379.000000,31372.000000,39010.000000,19863.000000
10342.000000,31289.000000,38918.000000,19872.000000
10304.000000,31282.000000,38927.000000,19826.000000
10299.000000,31210.000000,38893.000000,19825.000000
10313.000000,31233.000000,38895.000000,19844.000000
10239.000000,31202.000000,38904.000000,19815.000000
10238.000000,31179.000000,38890.000000,19824.000000
10207.000000,31149.000000,38897.000000,19785.000000
10139.000000,31078.000000,38835.000000,19786.000000
10144.000000,31023.000000,38815.000000,19774.000000
10097.000000,31012.000000,38775.000000,19786.000000
10030.000000,30922.000000,38748.000000,19757.000000
9987.000000,30939.000000,38736.000000,19750.000000
10012.000000,30905.000000,38708.000000,19753.000000
9982.000000,30839.000000,38691.000000,19736.000000
9901.000000,30761.000000,38666.000000,19739.000000
9879.000000,30761.000000,38649.000000,19728.000000
9845.000000,30757.000000,38640.000000,19733.000000
9843.000000,30693.000000,38618.000000,19716.000000
9831.000000,30661.000000,38626.000000,19732.000000
9815.000000,30589.000000,38573.000000,19703.000000
9798.000000,30567.000000,38543.000000,19696.000000
9780.000000,30543.000000,38492.000000,19697.000000
9722.000000,30547.000000,38501.000000,19688.000000
9664.000000,30440.000000,38432.000000,19677.000000
9604.000000,30388.000000,38435.000000,19663.000000
9613.000000,30376.000000,38412.000000,19647.000000
9585.000000,30354.000000,38399.000000,19648.000000
9517.000000,30223.000000,38362.000000,19635.000000
9515.000000,30251.000000,38342.000000,19632.000000
9429.000000,30167.000000,38308.000000,19635.000000
9417.000000,30083.000000,38226.000000,19601.000000
9349.000000,30057.000000,38221.000000,19607.000000
9346.000000,30015.000000,38222.000000,19605.000000
9352.000000,29975.000000,38179.000000,19585.000000
9317.000000,29941.000000,38175.000000,19566.000000
9315.000000,29990.000000,38179.000000,19578.000000
9302.000000,29982.000000,38199.000000,19580.000000
9346.000000,30001.000000,38202.000000,19602.000000
9354.000000,30023.000000,38212.000000,19588.000000
9395.000000,30017.000000,38210.000000,19601.000000
9482.000000,30137.000000,38304.000000,19670.000000
9502.000000,30169.000000,38305.000000,19647.000000
9560.000000,30210.000000,38305.000000,19674.000000
9585.000000,30232.000000,38328.000000,19667.000000
9695.000000,30359.000000,38423.000000,19707.000000
9753.000000,30458.000000,38461.000000,19733.000000
9907.000000,30629.000000,38553.000000,19781.000000
9987.000000,30657.000000,38599.000000,19776.000000
10206.000000,30953.000000,38758.000000,19847.000000
10229.000000,31004.000000,38782.000000,19853.000000
10283.000000,31014.000000,38776.000000,19877.000000
10312.000000,31048.000000,38801.000000,19867.000000
10296.000000,31105.000000,38867.000000,19898.000000
10328.000000,31077.000000,38834.000000,19889.000000
10302.000000,31089.000000,38833.000000,19870.000000
10284.000000,31122.000000,38850.000000,19890.000000
10285.000000,31097.000000,38858.000000,19871.000000
10289.000000,31093.000000,38833.000000,19863.000000
10261.000000,31075.000000,38825.000000,19856.000000
10269.000000,31088.000000,38829.000000,19832.000000
10245.000000,31056.000000,38813.000000,19865.000000
10245.000000,31057.000000,38813.000000,19822.000000
10260.000000,31091.000000,38801.000000,19849.000000
10246.000000,31051.000000,38798.000000,19851.000000
10218.000000,31089.000000,38816.000000,19833.000000
10198.000000,31041.000000,38828.000000,19840.000000
10245.000000,31034.000000,38797.000000,19835.000000
10150.000000,30995.000000,38770.000000,19795.000000
10142.000000,30950.000000,38770.000000,19811.000000
10180.000000,30979.000000,38751.000000,19797.000000
10089.000000,30906.000000,38715.000000,19820.000000
10096.000000,30891.000000,38709.000000,19780.000000
10107.000000,30904.000000,38718.000000,19809.000000
10062.000000,30874.000000,38731.000000,19796.000000
10032.000000,30812.000000,38686.000000,19807.000000
10006.000000,30806.000000,38644.000000,19788.000000
9978.000000,30777.000000,38660.000000,19790.000000
10004.000000,30763.000000,38636.000000,19759.000000
9982.000000,30767.000000,38627.000000,19740.000000
9972.000000,30745.000000,38613.000000,19778.000000
9947.000000,30709.000000,38598.000000,19760.000000
9941.000000,30729.000000,38605.000000,19748.000000
9837.000000,30639.000000,38586.000000,19736.000000
9889.000000,30646.000000,38586.000000,19735.000000
9848.000000,30669.000000,38551.000000,19720.000000
9863.000000,30620.000000,38571.000000,19723.000000
9863.000000,30610.000000,38546.000000,19724.000000
9855.000000,30594.000000,38534.000000,19713.000000
9820.000000,30581.000000,38526.000000,19693.000000
9816.000000,30579.000000,38523.000000,19701.000000
9803.000000,30542.000000,38515.000000,19709.000000
9772.000000,30539.000000,38504.000000,19699.000000
9746.000000,30569.000000,38507.000000,19686.000000
9727.000000,30505.000000,38492.000000,19683.000000
9707.000000,30500.000000,38497.000000,19664.000000
9701.000000,30508.000000,38455.000000,19641.000000
9691.000000,30477.000000,38476.000000,19669.000000
9657.000000,30410.000000,38436.000000,19648.000000
9626.000000,30398.000000,38449.000000,19620.000000
9636.000000,30384.000000,38419.000000,19621.000000
9561.000000,30391.000000,38442.000000,19633.000000
9535.000000,30273.000000,38388.000000,19571.000000
9523.000000,30300.000000,38389.000000,19604.000000
9414.000000,30203.000000,38284.000000,19564.000000
9387.000000,30196.000000,38289.000000,19541.000000
9370.000000,30144.000000,38311.000000,19534.000000
9335.000000,30105.000000,38295.000000,19520.000000
9287.000000,30053.000000,38244.000000,19521.000000
9254.000000,30068.000000,38213.000000,19522.000000
9258.000000,29991.000000,38200.000000,19492.000000
9214.000000,30018.000000,38183.000000,19513.000000
9237.000000,29975.000000,38195.000000,19506.000000
9228.000000,29984.000000,38187.000000,19496.000000
9261.000000,29979.000000,38172.000000,19500.000000
9263.000000,29960.000000,38165.000000,19502.000000
9233.000000,29980.000000,38160.000000,19502.000000
9258.000000,29986.000000,38193.000000,19523.000000
9342.000000,30034.000000,38223.000000,19554.000000
9354.000000,30050.000000,38212.000000,19566.000000
9318.000000,30076.000000,38243.000000,19545.000000
9375.000000,30114.000000,38263.000000,19571.000000
9560.000000,30269.000000,38348.000000,19642.000000
9611.000000,30328.000000,38399.000000,19658.000000
9670.000000,30359.000000,38394.000000,19659.000000
9686.000000,30408.000000,38444.000000,19672.000000
9821.000000,30541.000000,38507.000000,19701.000000
9883.000000,30563.000000,38534.000000,19709.000000
9884.000000,30616.000000,38583.000000,19727.000000
9911.000000,30635.000000,38534.000000,19719.000000
9887.000000,30612.000000,38544.000000,19710.000000
9876.000000,30602.000000,38556.000000,19716.000000
9865.000000,30568.000000,38507.000000,19734.000000
9838.000000,30535.000000,38510.000000,19720.000000
9776.000000,30448.000000,38448.000000,19715.000000
9738.000000,30407.000000,38433.000000,19696.000000
9747.000000,30402.000000,38429.000000,19734.000000
9737.000000,30388.000000,38453.000000,19691.000000
9745.000000,30401.000000,38415.000000,19715.000000
9699.000000,30386.000000,38420.000000,19692.000000
9686.000000,30324.000000,38359.000000,19668.000000
9681.000000,30271.000000,38394.000000,19705.000000
9664.000000,30306.000000,38351.000000,19679.000000
9633.000000,30255.000000,38379.000000,19691.000000
9628.000000,30224.000000,38329.000000,19691.000000
9592.000000,30203.000000,38283.000000,19675.000000
9581.000000,30186.000000,38333.000000,19664.000000
9593.000000,30199.000000,38281.000000,19666.000000
9528.000000,30144.000000,38276.000000,19648.000000
9496.000000,30114.000000,38303.000000,19656.000000
9521.000000,30119.000000,38237.000000,19692.000000
9506.000000,30101.000000,38266.000000,19646.000000
9437.000000,30079.000000,38227.000000,19628.000000
9443.000000,30078.000000,38238.000000,19673.000000
9429.000000,30029.000000,38202.000000,19616.000000
9450.000000,30011.000000,38217.000000,19663.000000
9429.000000,30019.000000,38208.000000,19625.000000
9426.000000,29989.000000,38221.000000,19631.000000
9422.000000,30001.000000,38188.000000,19619.000000
9375.000000,30023.000000,38207.000000,19657.000000
9349.000000,29944.000000,38182.000000,19601.000000
9339.000000,29946.000000,38144.000000,19578.000000
9312.000000,29920.000000,38152.000000,19630.000000
9345.000000,29909.000000,38171.000000,19608.000000
9299.000000,29891.000000,38131.000000,19603.000000
9322.000000,29879.000000,38124.000000,19591.000000
9296.000000,29854.000000,38108.000000,19573.000000
9314.000000,29870.000000,38100.000000,19583.000000
9250.000000,29827.000000,38114.000000,19570.000000
9285.000000,29835.000000,38109.000000,19602.000000
9235.000000,29842.000000,38151.000000,19576.000000
9298.000000,29868.000000,38134.000000,19589.000000
9282.000000,29842.000000,38104.000000,19547.000000
9247.000000,29882.000000,38136.000000,19564.000000
9283.000000,29886.000000,38118.000000,19554.000000
9236.000000,29851.000000,38108.000000,19536.000000
9222.000000,29825.000000,38123.000000,19539.000000
9224.000000,29851.000000,38099.000000,19511.000000
9219.000000,29850.000000,38109.000000,19537.000000
9208.000000,29826.000000,38088.000000,19510.000000
9175.000000,29851.000000,38124.000000,19511.000000
9192.000000,29797.000000,38085.000000,19526.000000
9151.000000,29818.000000,38085.000000,19483.000000
9135.000000,29775.000000,38103.000000,19506.000000
9144.000000,29766.000000,38091.000000,19469.000000
9055.000000,29784.000000,38040.000000,19441.000000
9055.000000,29718.000000,38047.000000,19484.000000
9056.000000,29673.000000,38000.000000,19470.000000
8985.000000,29726.000000,38010.000000,19446.000000
9012.000000,29660.000000,37992.000000,19446.000000
9009.000000,29713.000000,38026.000000,19446.000000
9003.000000,29729.000000,38039.000000,19441.000000
9045.000000,29737.000000,38038.000000,19434.000000
9048.000000,29787.000000,38069.000000,19445.000000
9075.000000,29793.000000,38036.000000,19465.000000
9086.000000,29836.000000,38071.000000,19477.000000
9128.000000,29882.000000,38119.000000,19471.000000
9170.000000,29889.000000,38149.000000,19496.000000
9245.000000,30007.000000,38207.000000,19486.000000
9243.000000,30082.000000,38234.000000,19484.000000
9382.000000,30194.000000,38294.000000,19545.000000
9420.000000,30222.000000,38328.000000,19546.000000
9433.000000,30251.000000,38320.000000,19561.000000
9536.000000,30304.000000,38362.000000,19600.000000
9742.000000,30574.000000,38538.000000,19631.000000
9813.000000,30657.000000,38572.000000,19628.000000
9817.000000,30733.000000,38643.000000,19666.000000
10078.000000,30986.000000,38748.000000,19740.000000
10128.000000,31033.000000,38782.000000,19730.000000
10144.000000,31078.000000,38802.000000,19751.000000
10193.000000,31130.000000,38819.000000,19743.000000
10196.000000,31130.000000,38865.000000,19759.000000
10198.000000,31158.000000,38844.000000,19744.000000
10206.000000,31140.000000,38872.000000,19756.000000
10180.000000,31112.000000,38824.000000,19748.000000
10174.000000,31103.000000,38804.000000,19757.000000
10120.000000,31056.000000,38820.000000,19729.000000
10084.000000,31058.000000,38778.000000,19732.000000
10075.000000,31029.000000,38776.000000,19751.000000
10069.000000,31049.000000,38792.000000,19724.000000
10039.000000,30999.000000,38769.000000,19716.000000
10037.000000,31004.000000,38765.000000,19735.000000
10009.000000,30952.000000,38749.000000,19719.000000
10019.000000,30941.000000,38751.000000,19740.000000
10007.000000,30911.000000,38714.000000,19700.000000
9965.000000,30946.000000,38711.000000,19706.000000
9977.000000,30895.000000,38689.000000,19703.000000
9954.000000,30882.000000,38701.000000,19669.000000
9952.000000,30919.000000,38675.000000,19668.000000
9935.000000,30902.000000,38687.000000,19677.000000
9856.000000,30820.000000,38684.000000,19682.000000
9874.000000,30834.000000,38644.000000,19663.000000
9881.000000,30821.000000,38647.000000,19655.000000
9860.000000,30780.000000,38647.000000,19660.000000
9863.000000,30777.000000,38631.000000,19616.000000
9833.000000,30744.000000,38638.000000,19655.000000
9819.000000,30761.000000,38624.000000,19638.000000
9814.000000,30749.000000,38609.000000,19633.000000
9742.000000,30677.000000,38593.000000,19645.000000
9735.000000,30678.000000,38578.000000,19640.000000
9740.000000,30669.000000,38558.000000,19648.000000
9709.000000,30683.000000,38552.000000,19640.000000
9729.000000,30626.000000,38543.000000,19626.000000
9687.000000,30587.000000,38512.000000,19621.000000
9655.000000,30564.000000,38512.000000,19617.000000
9673.000000,30550.000000,38508.000000,19582.000000
9628.000000,30547.000000,38507.000000,19567.000000
9574.000000,30516.000000,38478.000000,19569.000000
9560.000000,30540.000000,38475.000000,19573.000000
9573.000000,30456.000000,38460.000000,19553.000000
9564.000000,30486.000000,38453.000000,19555.000000
9538.000000,30481.000000,38434.000000,19532.000000
9526.000000,30439.000000,38425.000000,19542.000000
9508.000000,30427.000000,38416.000000,19526.000000
9440.000000,30403.000000,38415.000000,19522.000000
9474.000000,30371.000000,38410.000000,19533.000000
9401.000000,30380.000000,38390.000000,19518.000000
9442.000000,30337.000000,38372.000000,19518.000000
9430.000000,30322.000000,38356.000000,19520.000000
9400.000000,30295.000000,38358.000000,19502.000000
9375.000000,30272.000000,38336.000000,19487.000000
9332.000000,30257.000000,38345.000000,19482.000000
9306.000000,30201.000000,38298.000000,19458.000000
9245.000000,30189.000000,38311.000000,19455.000000
9234.000000,30098.000000,38233.000000,19425.000000
9175.000000,30081.000000,38237.000000,19473.000000
9178.000000,30073.000000,38226.000000,19432.000000
9118.000000,30034.000000,38238.000000,19441.000000
9159.000000,30041.000000,38199.000000,19438.000000
9144.000000,30059.000000,38213.000000,19434.000000
9144.000000,30068.000000,38247.000000,19433.000000
9210.000000,30095.000000,38238.000000,19416.000000
9195.000000,30113.000000,38251.000000,19446.000000
9211.000000,30093.000000,38271.000000,19435.000000
9217.000000,30153.000000,38229.000000,19456.000000
9286.000000,30189.000000,38280.000000,19472.000000
9342.000000,30228.000000,38301.000000,19492.000000
9471.000000,30414.000000,38416.000000,19510.000000
9484.000000,30436.000000,38421.000000,19519.000000
9526.000000,30482.000000,38470.000000,19540.000000
9595.000000,30538.000000,38478.000000,19551.000000
9709.000000,30694.000000,38561.000000,19582.000000
9726.000000,30740.000000,38639.000000,19573.000000
10015.000000,31001.000000,38742.000000,19679.000000
10088.000000,31081.000000,38791.000000,19688.000000
10100.000000,31108.000000,38834.000000,19605.000000
10116.000000,31126.000000,38830.000000,19728.000000
10198.000000,31220.000000,38852.000000,19718.000000
10177.000000,31216.000000,38895.000000,19715.000000
10181.000000,31198.000000,38858.000000,19700.000000
10181.000000,31225.000000,38847.000000,19804.000000
10134.000000,31154.000000,38840.000000,19720.000000
10121.000000,31147.000000,38857.000000,19720.000000
10127.000000,31107.000000,38818.000000,19667.000000
10070.000000,31098.000000,38819.000000,19666.000000
10045.000000,31045.000000,38812.000000,19678.000000
10033.000000,31019.000000,38762.000000,19683.000000
10008.000000,30964.000000,38746.000000,19673.000000
9973.000000,30970.000000,38764.000000,19671.000000
9919.000000,30885.000000,38723.000000,19654.000000
9913.000000,30923.000000,38691.000000,19639.000000
9911.000000,30877.000000,38673.000000,19631.000000
9894.000000,30854.000000,38624.000000,19630.000000
9855.000000,30767.000000,38646.000000,19636.000000
9801.000000,30790.000000,38641.000000,19626.000000
9794.000000,30756.000000,38627.000000,19621.000000
9790.000000,30727.000000,38576.000000,19621.000000
9746.000000,30669.000000,38581.000000,19612.000000
9752.000000,30677.000000,38567.000000,19608.000000
9663.000000,30603.000000,38542.000000,19613.000000
9700.000000,30591.000000,38527.000000,19596.000000
9657.000000,30527.000000,38490.000000,19596.000000
9644.000000,30516.000000,38471.000000,19599.000000
9628.000000,30521.000000,38492.000000,19667.000000
9619.000000,30484.000000,38476.000000,19575.000000
9551.000000,30432.000000,38472.000000,19576.000000
9565.000000,30411.000000,38423.000000,19583.000000
9487.000000,30382.000000,38398.000000,19609.000000
9508.000000,30363.000000,38386.000000,19523.000000
9486.000000,30303.000000,38337.000000,19543.000000
9462.000000,30261.000000,38358.000000,19533.000000
9414.000000,30268.000000,38309.000000,19506.000000
9421.000000,30251.000000,38318.000000,19549.000000
9353.000000,30186.000000,38298.000000,19529.000000
9339.000000,30160.000000,38260.000000,19495.000000
9329.000000,30154.000000,38284.000000,19512.000000
9267.000000,30043.000000,38223.000000,19504.000000
9275.000000,30084.000000,38217.000000,19485.000000
9214.000000,30043.000000,38216.000000,19476.000000
9233.000000,30020.000000,38203.000000,19494.000000
9156.000000,29979.000000,38151.000000,19476.000000
9182.000000,29972.000000,38151.000000,19475.000000
9152.000000,29893.000000,38128.000000,19469.000000
9139.000000,29906.000000,38119.000000,19490.000000
9131.000000,29902.000000,38112.000000,19479.000000
9106.000000,29852.000000,38117.000000,19485.000000
9071.000000,29826.000000,38070.000000,19450.000000
9049.000000,29802.000000,38065.000000,19428.000000
9022.000000,29769.000000,38057.000000,19447.000000
8959.000000,29772.000000,38046.000000,19381.000000
8984.000000,29721.000000,38021.000000,19463.000000
8960.000000,29739.000000,37996.000000,19427.000000
8919.000000,29744.000000,38009.000000,19388.000000
8941.000000,29694.000000,37991.000000,19402.000000
8938.000000,29699.000000,37993.000000,19392.000000
8931.000000,29707.000000,38010.000000,19397.000000
8947.000000,29710.000000,37999.000000,19380.000000
8988.000000,29777.000000,38022.000000,19399.000000
8958.000000,29817.000000,38060.000000,19410.000000
9018.000000,29792.000000,38055.000000,19426.000000
9010.000000,29818.000000,38070.000000,19421.000000
9067.000000,29936.000000,38128.000000,19428.000000
9107.000000,29959.000000,38140.000000,19444.000000
9191.000000,30056.000000,38185.000000,19455.000000
9195.000000,30097.000000,38212.000000,19467.000000
9347.000000,30218.000000,38309.000000,19493.000000
9325.000000,30251.000000,38309.000000,19514.000000
9488.000000,30425.000000,38430.000000,19541.000000
9560.000000,30442.000000,38451.000000,19552.000000
9725.000000,30622.000000,38546.000000,19565.000000
9873.000000,30822.000000,38635.000000,19636.000000
10034.000000,31050.000000,38765.000000,19682.000000
10269.000000,31195.000000,38848.000000,19722.000000
10211.000000,31209.000000,38878.000000,19756.000000
10219.000000,31199.000000,38880.000000,19736.000000
10166.000000,31193.000000,38870.000000,19721.000000
10136.000000,31153.000000,38807.000000,19719.000000
10153.000000,31125.000000,38808.000000,19728.000000
10129.000000,31121.000000,38831.000000,19697.000000
10090.000000,31113.000000,38823.000000,19728.000000
10063.000000,31089.000000,38795.000000,19686.000000
10066.000000,31043.000000,38793.000000,19696.000000
10083.000000,31041.000000,38776.000000,19693.000000
10065.000000,31040.000000,38802.000000,19688.000000
10050.000000,31039.000000,38763.000000,19691.000000
9991.000000,30991.000000,38747.000000,19670.000000
9994.000000,30963.000000,38758.000000,19671.000000
9963.000000,30947.000000,38725.000000,19638.000000
9914.000000,30929.000000,38663.000000,19636.000000
9897.000000,30866.000000,38693.000000,19643.000000
9901.000000,30859.000000,38679.000000,19627.000000
9848.000000,30823.000000,38672.000000,19627.000000
9787.000000,30754.000000,38660.000000,19615.000000
9791.000000,30797.000000,38623.000000,19615.000000
9800.000000,30739.000000,38640.000000,19631.000000
9724.000000,30692.000000,38593.000000,19581.000000
9705.000000,30700.000000,38551.000000,19592.000000
9798.000000,30671.000000,38564.000000,19580.000000
9727.000000,30619.000000,38552.000000,19575.000000
9618.000000,30550.000000,38524.000000,19576.000000
9592.000000,30522.000000,38497.000000,19578.000000
9601.000000,30520.000000,38470.000000,19561.000000
9592.000000,30506.000000,38460.000000,19551.000000
9573.000000,30493.000000,38448.000000,19538.000000
9531.000000,30417.000000,38449.000000,19577.000000
9534.000000,30392.000000,38409.000000,19527.000000
9487.000000,30386.000000,38423.000000,19538.000000
9508.000000,30348.000000,38382.000000,19531.000000
9449.000000,30339.000000,38346.000000,19550.000000
9399.000000,30272.000000,38397.000000,19508.000000
9417.000000,30259.000000,38339.000000,19505.000000
9360.000000,30229.000000,38304.000000,19513.000000
9346.000000,30211.000000,38317.000000,19498.000000
9357.000000,30150.000000,38313.000000,19462.000000
9336.000000,30173.000000,38279.000000,19484.000000
9239.000000,30142.000000,38251.000000,19468.000000
9266.000000,30111.000000,38244.000000,19487.000000
9290.000000,30128.000000,38207.000000,19457.000000
9241.000000,30039.000000,38193.000000,19477.000000
9241.000000,30045.000000,38190.000000,19451.000000
9185.000000,29988.000000,38177.000000,19460.000000
9184.000000,29998.000000,38180.000000,19448.000000
9147.000000,30001.000000,38180.000000,19456.000000
9118.000000,29913.000000,38134.000000,19448.000000
9076.000000,29890.000000,38122.000000,19445.000000
8999.000000,29771.000000,38064.000000,19392.000000
8994.000000,29759.000000,38036.000000,19407.000000
8952.000000,29738.000000,38061.000000,19416.000000
8958.000000,29706.000000,38040.000000,19383.000000
8842.000000,29614.000000,37985.000000,19375.000000
8849.000000,29595.000000,37969.000000,19376.000000
8906.000000,29604.000000,37953.000000,19342.000000
8867.000000,29570.000000,37961.000000,19357.000000
8856.000000,29615.000000,37972.000000,19386.000000
8867.000000,29637.000000,37993.000000,19386.000000
8905.000000,29704.000000,37963.000000,19381.000000
8951.000000,29675.000000,38017.000000,19372.000000
8977.000000,29738.000000,38032.000000,19410.000000
9080.000000,29841.000000,38104.000000,19437.000000
9120.000000,29876.000000,38128.000000,19463.000000
9168.000000,29942.000000,38162.000000,19425.000000
9197.000000,29982.000000,38188.000000,19476.000000
9386.000000,30185.000000,38314.000000,19509.000000
9448.000000,30265.000000,38337.000000,19517.000000
9482.000000,30289.000000,38396.000000,19532.000000
9550.000000,30385.000000,38402.000000,19523.000000
9742.000000,30697.000000,38576.000000,19615.000000
9844.000000,30712.000000,38585.000000,19614.000000
9864.000000,30766.000000,38622.000000,19629.000000
9894.000000,30763.000000,38650.000000,19650.000000
9991.000000,30827.000000,38738.000000,19656.000000
9927.000000,30838.000000,38685.000000,19669.000000
9918.000000,30814.000000,38657.000000,19662.000000
9945.000000,30821.000000,38616.000000,19659.000000
9930.000000,30891.000000,38684.000000,19665.000000
9918.000000,30827.000000,38632.000000,19646.000000
9888.000000,30801.000000,38642.000000,19646.000000
9914.000000,30752.000000,38639.000000,19665.000000
9897.000000,30713.000000,38648.000000,19637.000000
9861.000000,30723.000000,38618.000000,19639.000000
9870.000000,30728.000000,38616.000000,19640.000000
9815.000000,30671.000000,38607.000000,19620.000000
9842.000000,30585.000000,38573.000000,19656.000000
9800.000000,30672.000000,38600.000000,19643.000000
9771.000000,30682.000000,38564.000000,19632.000000
9790.000000,30631.000000,38547.000000,19616.000000
9835.000000,30632.000000,38584.000000,19621.000000
9795.000000,30635.000000,38563.000000,19635.000000
9789.000000,30667.000000,38565.000000,19607.000000
9769.000000,30612.000000,38545.000000,19625.000000
9709.000000,30625.000000,38519.000000,19638.000000
9703.000000,30620.000000,38517.000000,19592.000000
9718.000000,30553.000000,38527.000000,19591.000000
9677.000000,30583.000000,38524.000000,19583.000000
9672.000000,30518.000000,38499.000000,19585.000000
9670.000000,30505.000000,38512.000000,19576.000000
9652.000000,30495.000000,38499.000000,19553.000000
9605.000000,30487.000000,38431.000000,19547.000000
9601.000000,30461.000000,38487.000000,19572.000000
9567.000000,30455.000000,38460.000000,19565.000000
9626.000000,30443.000000,38476.000000,19572.000000
9566.000000,30456.000000,38457.000000,19614.000000
9575.000000,30403.000000,38447.000000,19565.000000
9543.000000,30400.000000,38426.000000,19532.000000
9534.000000,30404.000000,38417.000000,19526.000000
9525.000000,30389.000000,38422.000000,19523.000000
9506.000000,30370.000000,38394.000000,19551.000000
9458.000000,30392.000000,38403.000000,19518.000000
9465.000000,30347.000000,38396.000000,19533.000000
9476.000000,30362.000000,38400.000000,19556.000000
9469.000000,30363.000000,38389.000000,19497.000000
9437.000000,30295.000000,38355.000000,19475.000000
9411.000000,30300.000000,38361.000000,19476.000000
9378.000000,30285.000000,38394.000000,19440.000000
9355.000000,30249.000000,38328.000000,19482.000000
9300.000000,30228.000000,38323.000000,19453.000000
9355.000000,30204.000000,38304.000000,19444.000000
9302.000000,30188.000000,38235.000000,19444.000000
9276.000000,30148.000000,38295.000000,19459.000000
9257.000000,30145.000000,38303.000000,19427.000000
9223.000000,30097.000000,38263.000000,19410.000000
9209.000000,30088.000000,38270.000000,19440.000000
9199.000000,30060.000000,38243.000000,19413.000000
9184.000000,30068.000000,38231.000000,19439.000000
9120.000000,29991.000000,38200.000000,19411.000000
9121.000000,29959.000000,38188.000000,19371.000000
9101.000000,29947.000000,38147.000000,19408.000000
9058.000000,29901.000000,38129.000000,19383.000000
9058.000000,29890.000000,38133.000000,19360.000000
9025.000000,29893.000000,38140.000000,19342.000000
9054.000000,29906.000000,38139.000000,19391.000000
9043.000000,29910.000000,38133.000000,19370.000000
9029.000000,29906.000000,38150.000000,19367.000000
9060.000000,29916.000000,38172.000000,19383.000000
9064.000000,29938.000000,38191.000000,19385.000000
9132.000000,29999.000000,38205.000000,19414.000000
9183.000000,30030.000000,38191.000000,19422.000000
9307.000000,30195.000000,38283.000000,19461.000000
9335.000000,30235.000000,38328.000000,19438.000000
9387.000000,30276.000000,38342.000000,19457.000000
9444.000000,30331.000000,38384.000000,19463.000000
9538.000000,30457.000000,38489.000000,19503.000000
9614.000000,30516.000000,38483.000000,19533.000000
9723.000000,30678.000000,38590.000000,19561.000000
9791.000000,30740.000000,38643.000000,19579.000000
10019.000000,30989.000000,38826.000000,19644.000000
10049.000000,31048.000000,38820.000000,19641.000000
10117.000000,31112.000000,38852.000000,19661.000000
10136.000000,31117.000000,38870.000000,19688.000000
10141.000000,31114.000000,38857.000000,19682.000000
10108.000000,31121.000000,38843.000000,19676.000000
10120.000000,31135.000000,38828.000000,19660.000000
10071.000000,31067.000000,38807.000000,19676.000000
10045.000000,31067.000000,38805.000000,19614.000000
10080.000000,31052.000000,38814.000000,19668.000000
10023.000000,31022.000000,38806.000000,19660.000000
9996.000000,30952.000000,38770.000000,19615.000000
10030.000000,30968.000000,38770.000000,19630.000000
9937.000000,30938.000000,38723.000000,19596.000000
9906.000000,30935.000000,38738.000000,19613.000000
9910.000000,30915.000000,38706.000000,19602.000000
9902.000000,30909.000000,38725.000000,19612.000000
9924.000000,30874.000000,38687.000000,19603.000000
9877.000000,30834.000000,38678.000000,19606.000000
9885.000000,30875.000000,38691.000000,19611.000000
9883.000000,30817.000000,38685.000000,19600.000000
9882.000000,30785.000000,38665.000000,19609.000000
9846.000000,30797.000000,38668.000000,19599.000000
9832.000000,30775.000000,38635.000000,19601.000000
9816.000000,30754.000000,38640.000000,19598.000000
9794.000000,30739.000000,38637.000000,19577.000000
9788.000000,30696.000000,38579.000000,19595.000000
9717.000000,30663.000000,38577.000000,19585.000000
9721.000000,30619.000000,38563.000000,19526.000000
9695.000000,30647.000000,38562.000000,19574.000000
9678.000000,30640.000000,38569.000000,19560.000000
9679.000000,30600.000000,38540.000000,19555.000000
9597.000000,30574.000000,38537.000000,19541.000000
9630.000000,30559.000000,38511.000000,19522.000000
9618.000000,30557.000000,38508.000000,19537.000000
9618.000000,30514.000000,38496.000000,19540.000000
9536.000000,30505.000000,38481.000000,19522.000000
9560.000000,30502.000000,38464.000000,19605.000000
9525.000000,30498.000000,38461.000000,19520.000000
9544.000000,30475.000000,38454.000000,19497.000000
9522.000000,30442.000000,38474.000000,19517.000000
9457.000000,30475.000000,38478.000000,19494.000000
9491.000000,30386.000000,38448.000000,19496.000000
9444.000000,30413.000000,38400.000000,19484.000000
9401.000000,30358.000000,38427.000000,19467.000000
9416.000000,30336.000000,38376.000000,19471.000000
9402.000000,30327.000000,38380.000000,19460.000000
9366.000000,30344.000000,38405.000000,19431.000000
9310.000000,30275.000000,38336.000000,19462.000000
9304.000000,30239.000000,38330.000000,19440.000000
9286.000000,30233.000000,38321.000000,19447.000000
9315.000000,30202.000000,38317.000000,19431.000000
9283.000000,30201.000000,38287.000000,19442.000000
9220.000000,30119.000000,38245.000000,19423.000000
9207.000000,30130.000000,38260.000000,19428.000000
9207.000000,30098.000000,38261.000000,19421.000000
9175.000000,30095.000000,38248.000000,19401.000000
9096.000000,30023.000000,38222.000000,19379.000000
9079.000000,30032.000000,38184.000000,19391.000000
9060.000000,29955.000000,38146.000000,19373.000000
9026.000000,29943.000000,38117.000000,19378.000000
9025.000000,29914.000000,38117.000000,19361.000000
9009.000000,29874.000000,38125.000000,19371.000000
8954.000000,29897.000000,38110.000000,19352.000000
9006.000000,29874.000000,38144.000000,19365.000000
9022.000000,29950.000000,38128.000000,19362.000000
9033.000000,29935.000000,38141.000000,19353.000000
9059.000000,29981.000000,38175.000000,19389.000000
9062.000000,29951.000000,38175.000000,19391.000000
9164.000000,30114.000000,38249.000000,19433.000000
9197.000000,30137.000000,38277.000000,19419.000000
9201.000000,30163.000000,38291.000000,19432.000000
9314.000000,30236.000000,38302.000000,19441.000000
9470.000000,30381.000000,38366.000000,19472.000000
9412.000000,30381.000000,38432.000000,19491.000000
9709.000000,30696.000000,38574.000000,19573.000000
9726.000000,30740.000000,38617.000000,19569.000000
9783.000000,30795.000000,38633.000000,19592.000000
9848.000000,30885.000000,38652.000000,19575.000000
10001.000000,31048.000000,38786.000000,19610.000000
10150.000000,31210.000000,38880.000000,19669.000000
10132.000000,31220.000000,38875.000000,19672.000000
10169.000000,31209.000000,38882.000000,19701.000000
10156.000000,31220.000000,38868.000000,19688.000000
10158.000000,31183.000000,38922.000000,19649.000000
10096.000000,31155.000000,38869.000000,19662.000000
10102.000000,31141.000000,38856.000000,19671.000000
10076.000000,31183.000000,38852.000000,19672.000000
10089.000000,31067.000000,38861.000000,19650.000000
10101.000000,31114.000000,38808.000000,19655.000000
10046.000000,31120.000000,38811.000000,19637.000000
9978.000000,31061.000000,38804.000000,19649.000000
10042.000000,31059.000000,38795.000000,19644.000000
9977.000000,31009.000000,38796.000000,19628.000000
9981.000000,31022.000000,38809.000000,19634.000000
9901.000000,30972.000000,38737.000000,19626.000000
9884.000000,30970.000000,38723.000000,19593.000000
9889.000000,30953.000000,38704.000000,19593.000000
9878.000000,30938.000000,38748.000000,19616.000000
9894.000000,30942.000000,38738.000000,19575.000000
9816.000000,30846.000000,38654.000000,19572.000000
9839.000000,30847.000000,38659.000000,19578.000000
9808.000000,30854.000000,38653.000000,19600.000000
9814.000000,30823.000000,38646.000000,19558.000000
9761.000000,30815.000000,38637.000000,19561.000000
9735.000000,30806.000000,38646.000000,19550.000000
9685.000000,30719.000000,38594.000000,19509.000000
9673.000000,30696.000000,38555.000000,19546.000000
9656.000000,30670.000000,38554.000000,19522.000000
9630.000000,30616.000000,38542.000000,19538.000000
9566.000000,30572.000000,38486.000000,19509.000000
9549.000000,30555.000000,38495.000000,19517.000000
9552.000000,30524.000000,38501.000000,19512.000000
9522.000000,30554.000000,38465.000000,19505.000000
9527.000000,30488.000000,38456.000000,19495.000000
9505.000000,30475.000000,38457.000000,19503.000000
9488.000000,30478.000000,38433.000000,19508.000000
9475.000000,30462.000000,38425.000000,19496.000000
9347.000000,30381.000000,38391.000000,19438.000000
9416.000000,30370.000000,38378.000000,19463.000000
9365.000000,30352.000000,38388.000000,19460.000000
9369.000000,30331.000000,38366.000000,19459.000000
9368.000000,30317.000000,38356.000000,19438.000000
9303.000000,30260.000000,38307.000000,19428.000000
9298.000000,30247.000000,38318.000000,19435.000000
9264.000000,30203.000000,38291.000000,19403.000000
9222.000000,30163.000000,38271.000000,19406.000000
9226.000000,30156.000000,38247.000000,19402.000000
9185.000000,30165.000000,38245.000000,19393.000000
9144.000000,30087.000000,38223.000000,19402.000000
9117.000000,30058.000000,38196.000000,19402.000000
9089.000000,30049.000000,38194.000000,19390.000000
9065.000000,30009.000000,38189.000000,19387.000000
9017.000000,29930.000000,38148.000000,19352.000000
8951.000000,29930.000000,38106.000000,19362.000000
8949.000000,29864.000000,38090.000000,19321.000000
8966.000000,29835.000000,38068.000000,19336.000000
8945.000000,29835.000000,38029.000000,19330.000000
8930.000000,29821.000000,38068.000000,19340.000000
8913.000000,29837.000000,38062.000000,19333.000000
8916.000000,29873.000000,38114.000000,19321.000000
8942.000000,29904.000000,38087.000000,19341.000000
8981.000000,29886.000000,38083.000000,19347.000000
8989.000000,29884.000000,38114.000000,19344.000000
8979.000000,29916.000000,38132.000000,19347.000000
9031.000000,29934.000000,38128.000000,19355.000000
9157.000000,30086.000000,38211.000000,19389.000000
9184.000000,30119.000000,38258.000000,19401.000000
9213.000000,30184.000000,38306.000000,19400.000000
9258.000000,30243.000000,38297.000000,19425.000000
9474.000000,30468.000000,38439.000000,19472.000000
9539.000000,30549.000000,38480.000000,19496.000000
9580.000000,30573.000000,38500.000000,19496.000000
9617.000000,30643.000000,38530.000000,19500.000000
9773.000000,30831.000000,38662.000000,19567.000000
9854.000000,30882.000000,38694.000000,19572.000000
9975.000000,31077.000000,38815.000000,19627.000000
10046.000000,31161.000000,38844.000000,19624.000000
10180.000000,31298.000000,38936.000000,19656.000000
10169.000000,31320.000000,38910.000000,19639.000000
10165.000000,31275.000000,38917.000000,19653.000000
10150.000000,31303.000000,38921.000000,19641.000000
10071.000000,31247.000000,38887.000000,19618.000000
10128.000000,31234.000000,38876.000000,19643.000000
10007.000000,31144.000000,38802.000000,19596.000000
9980.000000,31134.000000,38799.000000,19624.000000
9948.000000,31123.000000,38791.000000,19589.000000
9981.000000,31069.000000,38788.000000,19613.000000
9910.000000,30983.000000,38743.000000,19562.000000
9885.000000,30971.000000,38743.000000,19572.000000
9902.000000,30963.000000,38725.000000,19562.000000
9851.000000,30957.000000,38715.000000,19558.000000
9790.000000,30870.000000,38656.000000,19571.000000
9771.000000,30829.000000,38666.000000,19559.000000
9687.000000,30757.000000,38570.000000,19541.000000
9715.000000,30739.000000,38586.000000,19536.000000
9700.000000,30713.000000,38582.000000,19561.000000
9698.000000,30725.000000,38548.000000,19515.000000
9676.000000,30684.000000,38517.000000,19538.000000
9594.000000,30605.000000,38505.000000,19517.000000
9586.000000,30595.000000,38526.000000,19514.000000
9573.000000,30563.000000,38500.000000,19522.000000
9583.000000,30535.000000,38473.000000,19520.000000
9657.000000,30501.000000,38494.000000,19515.000000
9520.000000,30473.000000,38422.000000,19492.000000
9498.000000,30464.000000,38465.000000,19513.000000
9525.000000,30452.000000,38408.000000,19532.000000
9473.000000,30470.000000,38444.000000,19517.000000
9461.000000,30383.000000,38396.000000,19523.000000
9457.000000,30432.000000,38412.000000,19471.000000
9430.000000,30422.000000,38386.000000,19486.000000
9457.000000,30353.000000,38390.000000,19506.000000
9392.000000,30331.000000,38357.000000,19464.000000
9385.000000,30314.000000,38369.000000,19448.000000
9377.000000,30353.000000,38349.000000,19474.000000
9358.000000,30304.000000,38346.000000,19448.000000
9335.000000,30303.000000,38327.000000,19446.000000
9369.000000,30286.000000,38335.000000,19430.000000
9309.000000,30221.000000,38335.000000,19442.000000
9270.000000,30261.000000,38308.000000,19422.000000
9295.000000,30221.000000,38291.000000,19427.000000
9201.000000,30131.000000,38257.000000,19417.000000
9189.000000,30165.000000,38242.000000,19406.000000
9155.000000,30141.000000,38241.000000,19396.000000
9172.000000,30112.000000,38234.000000,19407.000000
9123.000000,30059.000000,38180.000000,19384.000000
9091.000000,30029.000000,38217.000000,19376.000000
9039.000000,29959.000000,38163.000000,19386.000000
9028.000000,29959.000000,38143.000000,19377.000000
9012.000000,29947.000000,38140.000000,19344.000000
8969.000000,29930.000000,38085.000000,19360.000000
8998.000000,29924.000000,38122.000000,19376.000000
8934.000000,29912.000000,38120.000000,19341.000000
8978.000000,29991.000000,38150.000000,19344.000000
8996.000000,29957.000000,38148.000000,19363.000000
9058.000000,29999.000000,38188.000000,19347.000000
9099.000000,30035.000000,38188.000000,19372.000000
9057.000000,30073.000000,38229.000000,19373.000000
9112.000000,30089.000000,38212.000000,19378.000000
9124.000000,30150.000000,38255.000000,19400.000000
9235.000000,30272.000000,38281.000000,19388.000000
9298.000000,30288.000000,38337.000000,19417.000000
9452.000000,30515.000000,38483.000000,19482.000000
9471.000000,30570.000000,38489.000000,19470.000000
9557.000000,30597.000000,38503.000000,19485.000000
9623.000000,30654.000000,38547.000000,19491.000000
9742.000000,30878.000000,38662.000000,19548.000000
10038.000000,31186.000000,38836.000000,19636.000000
10109.000000,31257.000000,38854.000000,19653.000000
10149.000000,31291.000000,38879.000000,19633.000000
10200.000000,31377.000000,38969.000000,19704.000000
10229.000000,31371.000000,38943.000000,19684.000000
10231.000000,31419.000000,38968.000000,19653.000000
10179.000000,31409.000000,38963.000000,19680.000000
10241.000000,31397.000000,38910.000000,19672.000000
10201.000000,31393.000000,38945.000000,19674.000000
10203.000000,31393.000000,38946.000000,19656.000000
10139.000000,31334.000000,38933.000000,19650.000000
10107.000000,31375.000000,38921.000000,19628.000000
10133.000000,31332.000000,38928.000000,19636.000000
10118.000000,31316.000000,38915.000000,19633.000000
10059.000000,31316.000000,38903.000000,19606.000000
10073.000000,31239.000000,38865.000000,19624.000000
10055.000000,31243.000000,38883.000000,19603.000000
10053.000000,31216.000000,38863.000000,19600.000000
10003.000000,31187.000000,38842.000000,19593.000000
10055.000000,31177.000000,38860.000000,19630.000000
9994.000000,31149.000000,38820.000000,19631.000000
9957.000000,31165.000000,38811.000000,19598.000000
9953.000000,31126.000000,38806.000000,19594.000000
10000.000000,31132.000000,38802.000000,19585.000000
9954.000000,31123.000000,38788.000000,19595.000000
10008.000000,31117.000000,38806.000000,19578.000000
9921.000000,31088.000000,38792.000000,19590.000000
9911.000000,31112.000000,38784.000000,19569.000000
9850.000000,31063.000000,38797.000000,19557.000000
9874.000000,31071.000000,38729.000000,19528.000000
9924.000000,31079.000000,38729.000000,19523.000000
9854.000000,31038.000000,38751.000000,19571.000000
9795.000000,30981.000000,38720.000000,19521.000000
9771.000000,30960.000000,38747.000000,19531.000000
9729.000000,31022.000000,38715.000000,19505.000000
9765.000000,30916.000000,38693.000000,19474.000000
9721.000000,30936.000000,38709.000000,19478.000000
9691.000000,30878.000000,38666.000000,19493.000000
9690.000000,30896.000000,38650.000000,19477.000000
9639.000000,30833.000000,38633.000000,19478.000000
9647.000000,30854.000000,38633.000000,19493.000000
9629.000000,30806.000000,38622.000000,19472.000000
9608.000000,30817.000000,38638.000000,19461.000000
9593.000000,30790.000000,38595.000000,19460.000000
9569.000000,30770.000000,38538.000000,19443.000000
9552.000000,30729.000000,38573.000000,19455.000000
9491.000000,30687.000000,38541.000000,19398.000000
9494.000000,30690.000000,38545.000000,19422.000000
9456.000000,30698.000000,38588.000000,19419.000000
9443.000000,30633.000000,38524.000000,19416.000000
9464.000000,30596.000000,38482.000000,19417.000000
9360.000000,30534.000000,38467.000000,19378.000000
9355.000000,30538.000000,38440.000000,19386.000000
9309.000000,30540.000000,38452.000000,19367.000000
9329.000000,30492.000000,38446.000000,19370.000000
9264.000000,30400.000000,38421.000000,19332.000000
9269.000000,30410.000000,38399.000000,19348.000000
9277.000000,30454.000000,38409.000000,19373.000000
9257.000000,30461.000000,38401.000000,19348.000000
9277.000000,30450.000000,38415.000000,19344.000000
9259.000000,30475.000000,38420.000000,19350.000000
9283.000000,30498.000000,38429.000000,19336.000000
9315.000000,30503.000000,38445.000000,19386.000000
9342.000000,30541.000000,38473.000000,19339.000000
9351.000000,30592.000000,38500.000000,19355.000000
9490.000000,30753.000000,38577.000000,19383.000000
9494.000000,30737.000000,38561.000000,19410.000000
9559.000000,30798.000000,38569.000000,19402.000000
9568.000000,30830.000000,38627.000000,19415.000000
9727.000000,30961.000000,38698.000000,19460.000000
9734.000000,31008.000000,38732.000000,19473.000000
10056.000000,31337.000000,38898.000000,19556.000000
10104.000000,31373.000000,38942.000000,19555.000000
10151.000000,31438.000000,38993.000000,19598.000000
10216.000000,31526.000000,39041.000000,19584.000000
10393.000000,31694.000000,39105.000000,19627.000000
10408.000000,31738.000000,39163.000000,19650.000000
10457.000000,31810.000000,39162.000000,19665.000000
10503.000000,31839.000000,39210.000000,19661.000000
10521.000000,31880.000000,39247.000000,19680.000000
10567.000000,31899.000000,39235.000000,19670.000000
10555.000000,31921.000000,39219.000000,19681.000000
10505.000000,31855.000000,39237.000000,19667.000000
10474.000000,31815.000000,39175.000000,19676.000000
10470.000000,31798.000000,39182.000000,19660.000000
10466.000000,31787.000000,39183.000000,19647.000000
10443.000000,31749.000000,39204.000000,19662.000000
10374.000000,31725.000000,39163.000000,19649.000000
10381.000000,31739.000000,39129.000000,19633.000000
10292.000000,31660.000000,39127.000000,19636.000000
10300.000000,31616.000000,39098.000000,19635.000000
10295.000000,31611.000000,39080.000000,19633.000000
10254.000000,31638.000000,39090.000000,19640.000000
10301.000000,31590.000000,39070.000000,19621.000000
10254.000000,31552.000000,39028.000000,19611.000000
10233.000000,31544.000000,39040.000000,19596.000000
10179.000000,31495.000000,38962.000000,19576.000000
10161.000000,31455.000000,38992.000000,19609.000000
10155.000000,31448.000000,38980.000000,19550.000000
10132.000000,31470.000000,38979.000000,19601.000000
10134.000000,31400.000000,38963.000000,19583.000000
10108.000000,31367.000000,38963.000000,19546.000000
10091.000000,31399.000000,38941.000000,19580.000000
10073.000000,31348.000000,38935.000000,19575.000000
10033.000000,31302.000000,38871.000000,19545.000000
9983.000000,31291.000000,38902.000000,19538.000000
9965.000000,31248.000000,38882.000000,19534.000000
9985.000000,31230.000000,38883.000000,19510.000000
9944.000000,31168.000000,38827.000000,19507.000000
9882.000000,31143.000000,38830.000000,19493.000000
9877.000000,31142.000000,38811.000000,19510.000000
9868.000000,31146.000000,38798.000000,19506.000000
9877.000000,31123.000000,38800.000000,19521.000000
9828.000000,31087.000000,38777.000000,19493.000000
9818.000000,31040.000000,38767.000000,19494.000000
9782.000000,31030.000000,38722.000000,19479.000000
9729.000000,31043.000000,38747.000000,19469.000000
9694.000000,30925.000000,38724.000000,19449.000000
9691.000000,31018.000000,38696.000000,19443.000000
9685.000000,30997.000000,38671.000000,19459.000000
9636.000000,30912.000000,38669.000000,19451.000000
9654.000000,30896.000000,38675.000000,19443.000000
9632.000000,30813.000000,38629.000000,19433.000000
9650.000000,30834.000000,38629.000000,19497.000000
9611.000000,30814.000000,38635.000000,19408.000000
9565.000000,30834.000000,38618.000000,19422.000000
9570.000000,30756.000000,38583.000000,19398.000000
9555.000000,30782.000000,38620.000000,19401.000000
9506.000000,30748.000000,38583.000000,19405.000000
9478.000000,30737.000000,38578.000000,19402.000000
9510.000000,30717.000000,38586.000000,19400.000000
9484.000000,30668.000000,38577.000000,19357.000000
9458.000000,30655.000000,38530.000000,19356.000000
9370.000000,30593.000000,38520.000000,19347.000000
9370.000000,30559.000000,38511.000000,19345.000000
9372.000000,30592.000000,38508.000000,19356.000000
9307.000000,30483.000000,38428.000000,19326.000000
9255.000000,30472.000000,38414.000000,19328.000000
9279.000000,30420.000000,38419.000000,19320.000000
9236.000000,30498.000000,38424.000000,19300.000000
9187.000000,30395.000000,38393.000000,19281.000000
9217.000000,30395.000000,38396.000000,19296.000000
9205.000000,30432.000000,38396.000000,19289.000000
9219.000000,30377.000000,38401.000000,19338.000000
9262.000000,30427.000000,38411.000000,19319.000000
9255.000000,30452.000000,38416.000000,19329.000000
9288.000000,30459.000000,38449.000000,19320.000000
9423.000000,30653.000000,38541.000000,19411.000000
9467.000000,30626.000000,38547.000000,19383.000000
9495.000000,30701.000000,38574.000000,19383.000000
9533.000000,30754.000000,38615.000000,19434.000000
9639.000000,30892.000000,38689.000000,19425.000000
9809.000000,31016.000000,38847.000000,19478.000000
9861.000000,31083.000000,38795.000000,19475.000000
9995.000000,31285.000000,38874.000000,19520.000000
10342.000000,31606.000000,39079.000000,19632.000000
10362.000000,31645.000000,39124.000000,19636.000000
10408.000000,31692.000000,39147.000000,19685.000000
10441.000000,31729.000000,39165.000000,19647.000000
10490.000000,31788.000000,39208.000000,19684.000000
10468.000000,31805.000000,39201.000000,19673.000000
10460.000000,31779.000000,39200.000000,19660.000000
10455.000000,31785.000000,39187.000000,19647.000000
10451.000000,31778.000000,39142.000000,19676.000000
10396.000000,31685.000000,39158.000000,19651.000000
10390.000000,31689.000000,39106.000000,19637.000000
10362.000000,31671.000000,39162.000000,19621.000000
10352.000000,31672.000000,39071.000000,19644.000000
10305.000000,31627.000000,39078.000000,19618.000000
10328.000000,31599.000000,39087.000000,19626.000000
10346.000000,31578.000000,39054.000000,19660.000000
10280.000000,31576.000000,39103.000000,19649.000000
10321.000000,31554.000000,39064.000000,19634.000000
10260.000000,31531.000000,39036.000000,19618.000000
10241.000000,31538.000000,39053.000000,19616.000000
10252.000000,31531.000000,39062.000000,19601.000000
10228.000000,31510.000000,39038.000000,19585.000000
10233.000000,31476.000000,39017.000000,19606.000000
10221.000000,31516.000000,38980.000000,19574.000000
10175.000000,31446.000000,38988.000000,19582.000000
10146.000000,31452.000000,38983.000000,19561.000000
10142.000000,31393.000000,38980.000000,19560.000000
10093.000000,31372.000000,38948.000000,19544.000000
10120.000000,31371.000000,38949.000000,19538.000000
10024.000000,31282.000000,38915.000000,19540.000000
10001.000000,31283.000000,38871.000000,19502.000000
9996.000000,31273.000000,38860.000000,19492.000000
9999.000000,31251.000000,38877.000000,19531.000000
9940.000000,31223.000000,38840.000000,19497.000000
9902.000000,31185.000000,38841.000000,19500.000000
9862.000000,31119.000000,38768.000000,19493.000000
9846.000000,31086.000000,38780.000000,19492.000000
9829.000000,31080.000000,38826.000000,19459.000000
9800.000000,31063.000000,38756.000000,19461.000000
9777.000000,31026.000000,38773.000000,19467.000000
9815.000000,30976.000000,38795.000000,19449.000000
9747.000000,30935.000000,38687.000000,19443.000000
9710.000000,30984.000000,38681.000000,19436.000000
9709.000000,30933.000000,38703.000000,19438.000000
9677.000000,30951.000000,38715.000000,19435.000000
9639.000000,30890.000000,38699.000000,19429.000000
9635.000000,30863.000000,38658.000000,19421.000000
9565.000000,30828.000000,38637.000000,19398.000000
9587.000000,30788.000000,38592.000000,19411.000000
9560.000000,30750.000000,38570.000000,19361.000000
9535.000000,30745.000000,38557.000000,19379.000000
9506.000000,30691.000000,38557.000000,19370.000000
9481.000000,30694.000000,38560.000000,19388.000000
9453.000000,30630.000000,38521.000000,19382.000000
9463.000000,30581.000000,38493.000000,19355.000000
9352.000000,30538.000000,38453.000000,19327.000000
9342.000000,30540.000000,38453.000000,19334.000000
9288.000000,30467.000000,38422.000000,19328.000000
9294.000000,30460.000000,38444.000000,19359.000000
9276.000000,30507.000000,38442.000000,19364.000000
9261.000000,30401.000000,38411.000000,19322.000000
9267.000000,30456.000000,38402.000000,19345.000000
9302.000000,30457.000000,38439.000000,19326.000000
9292.000000,30454.000000,38417.000000,19332.000000
9352.000000,30448.000000,38423.000000,19313.000000
9349.000000,30512.000000,38509.000000,19351.000000
9393.000000,30603.000000,38542.000000,19355.000000
9481.000000,30714.000000,38596.000000,19393.000000
9623.000000,30846.000000,38647.000000,19421.000000
9866.000000,31143.000000,38851.000000,19491.000000
9941.000000,31216.000000,38846.000000,19487.000000
9963.000000,31271.000000,38888.000000,19505.000000
10049.000000,31348.000000,38952.000000,19520.000000
10366.000000,31725.000000,39164.000000,19609.000000
10463.000000,31772.000000,39211.000000,19631.000000
10484.000000,31856.000000,39217.000000,19650.000000
10555.000000,31912.000000,39296.000000,19669.000000
10810.000000,32174.000000,39437.000000,19747.000000
10806.000000,32227.000000,39445.000000,19717.000000
10831.000000,32238.000000,39458.000000,19755.000000
10818.000000,32251.000000,39452.000000,19751.000000
10795.000000,32205.000000,39453.000000,19720.000000
10838.000000,32209.000000,39403.000000,19727.000000
10764.000000,32213.000000,39461.000000,19720.000000
10785.000000,32182.000000,39404.000000,19728.000000
10769.000000,32183.000000,39407.000000,19726.000000
10745.000000,32165.000000,39410.000000,19716.000000
10758.000000,32150.000000,39396.000000,19699.000000
10731.000000,32177.000000,39417.000000,19709.000000
10726.000000,32145.000000,39392.000000,19713.000000
10728.000000,32130.000000,39367.000000,19677.000000
10696.000000,32114.000000,39395.000000,19689.000000
10718.000000,32126.000000,39385.000000,19688.000000
10674.000000,32100.000000,39326.000000,19675.000000
10646.000000,32070.000000,39372.000000,19655.000000
10589.000000,32014.000000,39337.000000,19634.000000
10614.000000,32038.000000,39321.000000,19632.000000
10580.000000,31999.000000,39321.000000,19611.000000
10530.000000,31966.000000,39280.000000,19625.000000
10445.000000,31904.000000,39258.000000,19604.000000
10479.000000,31860.000000,39275.000000,19597.000000
10452.000000,31972.000000,39264.000000,19620.000000
10420.000000,31881.000000,39257.000000,19584.000000
10343.000000,31798.000000,39204.000000,19541.000000
10364.000000,31791.000000,39188.000000,19536.000000
10303.000000,31783.000000,39166.000000,19507.000000
10311.000000,31737.000000,39153.000000,19564.000000
10241.000000,31631.000000,39107.000000,19520.000000
10180.000000,31624.000000,39115.000000,19513.000000
10228.000000,31572.000000,39097.000000,19526.000000
10176.000000,31603.000000,39080.000000,19502.000000
10090.000000,31501.000000,38999.000000,19478.000000
10054.000000,31482.000000,39012.000000,19480.000000
10055.000000,31471.000000,39022.000000,19447.000000
10036.000000,31452.000000,39020.000000,19479.000000
10002.000000,31377.000000,38973.000000,19475.000000
10008.000000,31396.000000,38939.000000,19437.000000
9982.000000,31359.000000,38946.000000,19463.000000
9968.000000,31315.000000,38955.000000,19449.000000
9956.000000,31321.000000,38922.000000,19434.000000
9941.000000,31291.000000,38924.000000,19449.000000
9904.000000,31293.000000,38884.000000,19442.000000
9810.000000,31240.000000,38861.000000,19420.000000
9819.000000,31206.000000,38866.000000,19436.000000
9815.000000,31183.000000,38848.000000,19403.000000
9789.000000,31175.000000,38830.000000,19381.000000
9774.000000,31164.000000,38814.000000,19386.000000
9746.000000,31077.000000,38781.000000,19389.000000
9703.000000,31074.000000,38778.000000,19375.000000
9672.000000,31030.000000,38789.000000,19373.000000
9683.000000,31043.000000,38755.000000,19387.000000
9593.000000,30986.000000,38719.000000,19356.000000
9615.000000,30942.000000,38692.000000,19348.000000
9582.000000,30949.000000,38695.000000,19353.000000
9578.000000,30933.000000,38681.000000,19339.000000
9548.000000,30949.000000,38683.000000,19352.000000
9617.000000,30922.000000,38681.000000,19366.000000
9607.000000,30926.000000,38689.000000,19337.000000
9596.000000,30966.000000,38730.000000,19354.000000
9615.000000,31009.000000,38753.000000,19367.000000
9624.000000,31031.000000,38756.000000,19360.000000
9771.000000,31148.000000,38827.000000,19365.000000
9785.000000,31180.000000,38869.000000,19413.000000
9802.000000,31201.000000,38862.000000,19400.000000
9864.000000,31282.000000,38923.000000,19399.000000
9925.000000,31302.000000,38937.000000,19423.000000
10050.000000,31458.000000,39008.000000,19459.000000
10386.000000,31785.000000,39216.000000,19590.000000
10447.000000,31851.000000,39262.000000,19595.000000
10485.000000,31896.000000,39292.000000,19605.000000
10556.000000,32005.000000,39307.000000,19589.000000
10739.000000,32201.000000,39450.000000,19668.000000
10785.000000,32261.000000,39464.000000,19690.000000
10945.000000,32404.000000,39552.000000,19726.000000
10930.000000,32465.000000,39577.000000,19722.000000
10992.000000,32495.000000,39636.000000,19752.000000
11015.000000,32510.000000,39607.000000,19746.000000
10987.000000,32494.000000,39577.000000,19736.000000
10978.000000,32454.000000,39613.000000,19713.000000
10958.000000,32409.000000,39531.000000,19728.000000
10909.000000,32431.000000,39570.000000,19736.000000
10902.000000,32408.000000,39529.000000,19725.000000
10884.000000,32356.000000,39534.000000,19715.000000
10890.000000,32382.000000,39521.000000,19711.000000
10864.000000,32337.000000,39538.000000,19712.000000
10849.000000,32309.000000,39496.000000,19718.000000
10824.000000,32316.000000,39461.000000,19701.000000
10827.000000,32297.000000,39521.000000,19707.000000
10790.000000,32264.000000,39483.000000,19690.000000
10790.000000,32258.000000,39458.000000,19666.000000
10820.000000,32227.000000,39483.000000,19677.000000
10792.000000,32228.000000,39462.000000,19680.000000
10723.000000,32219.000000,39441.000000,19694.000000
10727.000000,32170.000000,39445.000000,19664.000000
10711.000000,32192.000000,39386.000000,19673.000000
10679.000000,32182.000000,39435.000000,19653.000000
10615.000000,32113.000000,39375.000000,19615.000000
10593.000000,32071.000000,39363.000000,19607.000000
10581.000000,32068.000000,39352.000000,19606.000000
10573.000000,32017.000000,39369.000000,19603.000000
10569.000000,32012.000000,39319.000000,19604.000000
10547.000000,32036.000000,39315.000000,19595.000000
10467.000000,31928.000000,39345.000000,19561.000000
10459.000000,31904.000000,39264.000000,19576.000000
10418.000000,31913.000000,39271.000000,19546.000000
10419.000000,31887.000000,39269.000000,19579.000000
10411.000000,31863.000000,39217.000000,19545.000000
10365.000000,31825.000000,39204.000000,19536.000000
10348.000000,31762.000000,39198.000000,19541.000000
10319.000000,31749.000000,39185.000000,19516.000000
10279.000000,31724.000000,39151.000000,19503.000000
10253.000000,31709.000000,39155.000000,19513.000000
10265.000000,31717.000000,39148.000000,19492.000000
10250.000000,31667.000000,39143.000000,19491.000000
10235.000000,31693.000000,39160.000000,19481.000000
10207.000000,31637.000000,39098.000000,19481.000000
10194.000000,31577.000000,39073.000000,19485.000000
10153.000000,31565.000000,39072.000000,19457.000000
10110.000000,31532.000000,39074.000000,19452.000000
10049.000000,31487.000000,39015.000000,19420.000000
10079.000000,31456.000000,39001.000000,19436.000000
10019.000000,31485.000000,39001.000000,19420.000000
10016.000000,31411.000000,38975.000000,19418.000000
9998.000000,31415.000000,38991.000000,19405.000000
9990.000000,31369.000000,38970.000000,19423.000000
9951.000000,31409.000000,38974.000000,19428.000000
9871.000000,31302.000000,38919.000000,19424.000000
9871.000000,31287.000000,38919.000000,19407.000000
9871.000000,31251.000000,38903.000000,19377.000000
9817.000000,31247.000000,38876.000000,19392.000000
9762.000000,31153.000000,38858.000000,19381.000000
9761.000000,31121.000000,38831.000000,19339.000000
9688.000000,31068.000000,38797.000000,19348.000000
9675.000000,31070.000000,38774.000000,19350.000000
9634.000000,31056.000000,38790.000000,19334.000000
9656.000000,31048.000000,38794.000000,19364.000000
9654.000000,31076.000000,38802.000000,19354.000000
9712.000000,31093.000000,38800.000000,19367.000000
9718.000000,31097.000000,38801.000000,19366.000000
9753.000000,31173.000000,38842.000000,19374.000000
9820.000000,31235.000000,38909.000000,19372.000000
9891.000000,31313.000000,38908.000000,19406.000000
10104.000000,31570.000000,39071.000000,19452.000000
10171.000000,31654.000000,39072.000000,19501.000000
10237.000000,31692.000000,39145.000000,19510.000000
10257.000000,31762.000000,39187.000000,19508.000000
10582.000000,32098.000000,39337.000000,19580.000000
10633.000000,32151.000000,39397.000000,19623.000000
10745.000000,32203.000000,39438.000000,19622.000000
10780.000000,32283.000000,39489.000000,19661.000000
10841.000000,32363.000000,39538.000000,19671.000000
11096.000000,32654.000000,39701.000000,19740.000000
11159.000000,32705.000000,39714.000000,19735.000000
11127.000000,32735.000000,39757.000000,19720.000000
11162.000000,32752.000000,39735.000000,19757.000000
11149.000000,32718.000000,39727.000000,19736.000000
11116.000000,32712.000000,39719.000000,19739.000000
11121.000000,32670.000000,39702.000000,19762.000000
11095.000000,32657.000000,39711.000000,19710.000000
11043.000000,32627.000000,39656.000000,19748.000000
11047.000000,32599.000000,39645.000000,19723.000000
10973.000000,32527.000000,39594.000000,19713.000000
10972.000000,32473.000000,39627.000000,19704.000000
10919.000000,32467.000000,39602.000000,19716.000000
10968.000000,32466.000000,39583.000000,19705.000000
10858.000000,32393.000000,39502.000000,19684.000000
10834.000000,32365.000000,39553.000000,19677.000000
10826.000000,32342.000000,39492.000000,19689.000000
10812.000000,32364.000000,39487.000000,19665.000000
10767.000000,32309.000000,39494.000000,19660.000000
10765.000000,32244.000000,39507.000000,19659.000000
10733.000000,32229.000000,39453.000000,19653.000000
10685.000000,32168.000000,39438.000000,19611.000000
10668.000000,32124.000000,39377.000000,19621.000000
10621.000000,32135.000000,39353.000000,19622.000000
10549.000000,32010.000000,39326.000000,19587.000000
10547.000000,31949.000000,39328.000000,19579.000000
10517.000000,31939.000000,39291.000000,19582.000000
10470.000000,31927.000000,39289.000000,19573.000000
10370.000000,31825.000000,39202.000000,19547.000000
10372.000000,31803.000000,39214.000000,19540.000000
10349.000000,31786.000000,39162.000000,19532.000000
10346.000000,31768.000000,39204.000000,19543.000000
10225.000000,31664.000000,39138.000000,19516.000000
10259.000000,31667.000000,39113.000000,19507.000000
10220.000000,31674.000000,39113.000000,19504.000000
10180.000000,31572.000000,39064.000000,19509.000000
10185.000000,31572.000000,39056.000000,19503.000000
10147.000000,31582.000000,39070.000000,19501.000000
10105.000000,31475.000000,39034.000000,19477.000000
10077.000000,31469.000000,38984.000000,19457.000000
10024.000000,31422.000000,38975.000000,19445.000000
10016.000000,31399.000000,38974.000000,19473.000000
10055.000000,31360.000000,38965.000000,19445.000000
9905.000000,31312.000000,38911.000000,19448.000000
9892.000000,31311.000000,38921.000000,19430.000000
9894.000000,31281.000000,38907.000000,19415.000000
9891.000000,31259.000000,38900.000000,19420.000000
9906.000000,31208.000000,38875.000000,19422.000000
9794.000000,31144.000000,38821.000000,19401.000000
9789.000000,31184.000000,38808.000000,19396.000000
9761.000000,31112.000000,38809.000000,19389.000000
9772.000000,31061.000000,38815.000000,19382.000000
9688.000000,31013.000000,38748.000000,19359.000000
9662.000000,30999.000000,38755.000000,19366.000000
9621.000000,30900.000000,38706.000000,19345.000000
9575.000000,30922.000000,38713.000000,19348.000000
9516.000000,30880.000000,38680.000000,19357.000000
9552.000000,30837.000000,38648.000000,19357.000000
9510.000000,30884.000000,38674.000000,19331.000000
9527.000000,30801.000000,38651.000000,19331.000000
9570.000000,30820.000000,38640.000000,19333.000000
9575.000000,30917.000000,38698.000000,19374.000000
9629.000000,30928.000000,38669.000000,19365.000000
9695.000000,31008.000000,38741.000000,19389.000000
9720.000000,31071.000000,38761.000000,19397.000000
9776.000000,31130.000000,38821.000000,19405.000000
9821.000000,31162.000000,38837.000000,19444.000000
10032.000000,31419.000000,38976.000000,19498.000000
10113.000000,31475.000000,39016.000000,19472.000000
10148.000000,31541.000000,39060.000000,19513.000000
10230.000000,31617.000000,39113.000000,19525.000000
10546.000000,31971.000000,39284.000000,19623.000000
10594.000000,32069.000000,39330.000000,19619.000000
10646.000000,32087.000000,39374.000000,19664.000000
10744.000000,32196.000000,39427.000000,19651.000000
10946.000000,32455.000000,39559.000000,19724.000000
11020.000000,32466.000000,39589.000000,19744.000000
11067.000000,32558.000000,39622.000000,19755.000000
11190.000000,32748.000000,39724.000000,19783.000000
11205.000000,32742.000000,39786.000000,19798.000000
11251.000000,32763.000000,39762.000000,19815.000000
11202.000000,32772.000000,39754.000000,19790.000000
11204.000000,32732.000000,39759.000000,19781.000000
11220.000000,32723.000000,39716.000000,19779.000000
11150.000000,32714.000000,39762.000000,19767.000000
11130.000000,32688.000000,39735.000000,19775.000000
11151.000000,32711.000000,39719.000000,19770.000000
11093.000000,32631.000000,39702.000000,19740.000000
11034.000000,32622.000000,39667.000000,19751.000000
11040.000000,32629.000000,39689.000000,19742.000000
11036.000000,32582.000000,39666.000000,19712.000000
10964.000000,32538.000000,39606.000000,19721.000000
10969.000000,32525.000000,39626.000000,19714.000000
10867.000000,32393.000000,39559.000000,19706.000000
10905.000000,32408.000000,39532.000000,19687.000000
10858.000000,32398.000000,39537.000000,19692.000000
10854.000000,32376.000000,39526.000000,19681.000000
10761.000000,32268.000000,39464.000000,19652.000000
10745.000000,32254.000000,39459.000000,19633.000000
10720.000000,32237.000000,39443.000000,19655.000000
10691.000000,32168.000000,39439.000000,19634.000000
10678.000000,32180.000000,39418.000000,19612.000000
10657.000000,32193.000000,39400.000000,19621.000000
10656.000000,32151.000000,39408.000000,19609.000000
10535.000000,32063.000000,39334.000000,19590.000000
10499.000000,32039.000000,39351.000000,19570.000000
10492.000000,32014.000000,39328.000000,19594.000000
10451.000000,31951.000000,39286.000000,19570.000000
10436.000000,31956.000000,39286.000000,19519.000000
10411.000000,31899.000000,39260.000000,19546.000000
10420.000000,31901.000000,39238.000000,19541.000000
10348.000000,31830.000000,39202.000000,19519.000000
10349.000000,31805.000000,39210.000000,19511.000000
10285.000000,31775.000000,39210.000000,19517.000000
10277.000000,31762.000000,39169.000000,19518.000000
10231.000000,31694.000000,39147.000000,19486.000000
10211.000000,31682.000000,39127.000000,19484.000000
10215.000000,31623.000000,39090.000000,19490.000000
10117.000000,31614.000000,39071.000000,19477.000000
10087.000000,31533.000000,39078.000000,19457.000000
10071.000000,31508.000000,39029.000000,19456.000000
10042.000000,31480.000000,39026.000000,19473.000000
10030.000000,31471.000000,39001.000000,19450.000000
9954.000000,31388.000000,38968.000000,19431.000000
9989.000000,31352.000000,38920.000000,19457.000000
9955.000000,31359.000000,38938.000000,19438.000000
9929.000000,31316.000000,38960.000000,19433.000000
9903.000000,31281.000000,38899.000000,19407.000000
9871.000000,31270.000000,38892.000000,19387.000000
9789.000000,31152.000000,38801.000000,19386.000000
9750.000000,31118.000000,38830.000000,19388.000000
9728.000000,31141.000000,38813.000000,19372.000000
9680.000000,31112.000000,38783.000000,19376.000000
9666.000000,31031.000000,38765.000000,19365.000000
9702.000000,31020.000000,38759.000000,19354.000000
9659.000000,31040.000000,38771.000000,19343.000000
9679.000000,31059.000000,38748.000000,19368.000000
9712.000000,31116.000000,38811.000000,19380.000000
9730.000000,31139.000000,38835.000000,19361.000000
9772.000000,31168.000000,38805.000000,19371.000000
9777.000000,31139.000000,38822.000000,19386.000000
9796.000000,31170.000000,38818.000000,19406.000000
9941.000000,31326.000000,38961.000000,19437.000000
9970.000000,31391.000000,38956.000000,19435.000000
10027.000000,31427.000000,38988.000000,19462.000000
10055.000000,31475.000000,39010.000000,19453.000000
10171.000000,31665.000000,39101.000000,19498.000000
10210.000000,31687.000000,39155.000000,19494.000000
10324.000000,31741.000000,39140.000000,19529.000000
10484.000000,31963.000000,39276.000000,19586.000000
10514.000000,32028.000000,39352.000000,19597.000000
10821.000000,32374.000000,39545.000000,19709.000000
10943.000000,32437.000000,39547.000000,19672.000000
10945.000000,32507.000000,39602.000000,19711.000000
10977.000000,32524.000000,39587.000000,19734.000000
11130.000000,32651.000000,39696.000000,19781.000000
11072.000000,32646.000000,39697.000000,19736.000000
11104.000000,32632.000000,39669.000000,19737.000000
11072.000000,32659.000000,39644.000000,19759.000000
11046.000000,32602.000000,39657.000000,19736.000000
11009.000000,32565.000000,39636.000000,19704.000000
10998.000000,32546.000000,39606.000000,19743.000000
10950.000000,32503.000000,39599.000000,19726.000000
10963.000000,32515.000000,39595.000000,19708.000000
10896.000000,32515.000000,39569.000000,19698.000000
10880.000000,32486.000000,39530.000000,19677.000000
10807.000000,32399.000000,39531.000000,19683.000000
10816.000000,32408.000000,39525.000000,19680.000000
10781.000000,32343.000000,39469.000000,19647.000000
10761.000000,32324.000000,39487.000000,19658.000000
10721.000000,32246.000000,39435.000000,19634.000000
10664.000000,32266.000000,39404.000000,19645.000000
10626.000000,32206.000000,39427.000000,19633.000000
10613.000000,32194.000000,39411.000000,19641.000000
10545.000000,32086.000000,39341.000000,19632.000000
10520.000000,32146.000000,39351.000000,19610.000000
10498.000000,32062.000000,39322.000000,19622.000000
10525.000000,32024.000000,39325.000000,19605.000000
10487.000000,32025.000000,39310.000000,19612.000000
10450.000000,31973.000000,39294.000000,19583.000000
10440.000000,32016.000000,39291.000000,19600.000000
10411.000000,31931.000000,39224.000000,19549.000000
10363.000000,31912.000000,39256.000000,19554.000000
10360.000000,31900.000000,39232.000000,19572.000000
10382.000000,31908.000000,39225.000000,19545.000000
10329.000000,31860.000000,39205.000000,19555.000000
10355.000000,31878.000000,39211.000000,19537.000000
10355.000000,31864.000000,39198.000000,19562.000000
10323.000000,31847.000000,39204.000000,19521.000000
10269.000000,31804.000000,39166.000000,19532.000000
10265.000000,31807.000000,39168.000000,19500.000000
10204.000000,31768.000000,39151.000000,19493.000000
10209.000000,31732.000000,39146.000000,19489.000000
10182.000000,31748.000000,39133.000000,19473.000000
10171.000000,31716.000000,39136.000000,19485.000000
10169.000000,31690.000000,39097.000000,19498.000000
10117.000000,31650.000000,39126.000000,19448.000000
10080.000000,31652.000000,39098.000000,19464.000000
10046.000000,31575.000000,39065.000000,19430.000000
10075.000000,31589.000000,39065.000000,19482.000000
10023.000000,31571.000000,39052.000000,19421.000000
10012.000000,31528.000000,39020.000000,19442.000000
9976.000000,31490.000000,38985.000000,19418.000000
9957.000000,31508.000000,38988.000000,19434.000000
9872.000000,31416.000000,38961.000000,19405.000000
9876.000000,31376.000000,38938.000000,19400.000000
9848.000000,31328.000000,38910.000000,19378.000000
9786.000000,31302.000000,38904.000000,19401.000000
9773.000000,31255.000000,38875.000000,19403.000000
9737.000000,31253.000000,38869.000000,19378.000000
9722.000000,31223.000000,38824.000000,19361.000000
9751.000000,31170.000000,38821.000000,19365.000000
9690.000000,31197.000000,38811.000000,19360.000000
9646.000000,31166.000000,38816.000000,19371.000000
9670.000000,31159.000000,38794.000000,19330.000000
9645.000000,31154.000000,38830.000000,19355.000000
9691.000000,31183.000000,38822.000000,19371.000000
9754.000000,31205.000000,38845.000000,19401.000000
9821.000000,31349.000000,38920.000000,19423.000000
9878.000000,31383.000000,38955.000000,19432.000000
9923.000000,31416.000000,38941.000000,19441.000000
9977.000000,31444.000000,38979.000000,19419.000000
10155.000000,31692.000000,39118.000000,19502.000000
10159.000000,31786.000000,39172.000000,19524.000000
10266.000000,31822.000000,39174.000000,19550.000000
10303.000000,31888.000000,39238.000000,19547.000000
10624.000000,32226.000000,39405.000000,19605.000000
10661.000000,32273.000000,39463.000000,19631.000000
10753.000000,32349.000000,39517.000000,19648.000000
10808.000000,32444.000000,39507.000000,19676.000000
10874.000000,32498.000000,39578.000000,19711.000000
10954.000000,32586.000000,39607.000000,19703.000000
11241.000000,32904.000000,39802.000000,19804.000000
11258.000000,32925.000000,39841.000000,19805.000000
11299.000000,32948.000000,39851.000000,19801.000000
11287.000000,32961.000000,39831.000000,19838.000000
11267.000000,32946.000000,39855.000000,19830.000000
11303.000000,32942.000000,39821.000000,19824.000000
11245.000000,32959.000000,39825.000000,19806.000000
11252.000000,32920.000000,39844.000000,19818.000000
11267.000000,32911.000000,39822.000000,19805.000000
11157.000000,32827.000000,39759.000000,19763.000000
11133.000000,32794.000000,39786.000000,19795.000000
11160.000000,32807.000000,39751.000000,19784.000000
11119.000000,32799.000000,39725.000000,19793.000000
11106.000000,32736.000000,39743.000000,19766.000000
11089.000000,32697.000000,39682.000000,19743.000000
11042.000000,32702.000000,39680.000000,19727.000000
11009.000000,32641.000000,39643.000000,19730.000000
10991.000000,32590.000000,39679.000000,19722.000000
10994.000000,32610.000000,39628.000000,19729.000000
10913.000000,32595.000000,39610.000000,19695.000000
10908.000000,32502.000000,39605.000000,19712.000000
10854.000000,32482.000000,39579.000000,19697.000000
10816.000000,32441.000000,39557.000000,19659.000000
10736.000000,32351.000000,39459.000000,19626.000000
10685.000000,32336.000000,39475.000000,19634.000000
10658.000000,32254.000000,39477.000000,19608.000000
10656.000000,32241.000000,39437.000000,19609.000000
10604.000000,32241.000000,39433.000000,19602.000000
10629.000000,32211.000000,39417.000000,19598.000000
10564.000000,32191.000000,39405.000000,19593.000000
10531.000000,32110.000000,39392.000000,19584.000000
10524.000000,32121.000000,39355.000000,19568.000000
10432.000000,31969.000000,39296.000000,19553.000000
10398.000000,32016.000000,39284.000000,19549.000000
10409.000000,31937.000000,39268.000000,19552.000000
10413.000000,31956.000000,39264.000000,19535.000000
10327.000000,31921.000000,39203.000000,19573.000000
10335.000000,31865.000000,39243.000000,19570.000000
10271.000000,31782.000000,39197.000000,19528.000000
10250.000000,31755.000000,39192.000000,19521.000000
10221.000000,31790.000000,39177.000000,19504.000000
10221.000000,31726.000000,39161.000000,19519.000000
10168.000000,31694.000000,39119.000000,19509.000000
10116.000000,31667.000000,39089.000000,19491.000000
10117.000000,31639.000000,39062.000000,19521.000000
10094.000000,31556.000000,39058.000000,19496.000000
10047.000000,31526.000000,39040.000000,19465.000000
10048.000000,31521.000000,39005.000000,19452.000000
9976.000000,31456.000000,39028.000000,19444.000000
9972.000000,31473.000000,38980.000000,19443.000000
9880.000000,31346.000000,38905.000000,19425.000000
9852.000000,31356.000000,38928.000000,19405.000000
9863.000000,31316.000000,38912.000000,19409.000000
9825.000000,31349.000000,38916.000000,19414.000000
9772.000000,31289.000000,38886.000000,19392.000000
9798.000000,31271.000000,38894.000000,19389.000000
9829.000000,31327.000000,38896.000000,19407.000000
9813.000000,31350.000000,38931.000000,19395.000000
9880.000000,31330.000000,38931.000000,19427.000000
9838.000000,31378.000000,38941.000000,19406.000000
9934.000000,31433.000000,38989.000000,19434.000000
9936.000000,31499.000000,39013.000000,19424.000000
10134.000000,31647.000000,39087.000000,19469.000000
10156.000000,31729.000000,39129.000000,19473.000000
10159.000000,31734.000000,39145.000000,19513.000000
10206.000000,31767.000000,39179.000000,19496.000000
10251.000000,31823.000000,39210.000000,19521.000000
10545.000000,32136.000000,39375.000000,19607.000000
10610.000000,32209.000000,39413.000000,19600.000000
10683.000000,32281.000000,39474.000000,19637.000000
10896.000000,32504.000000,39594.000000,19687.000000
11000.000000,32566.000000,39615.000000,19725.000000
11052.000000,32665.000000,39716.000000,19714.000000
11243.000000,32917.000000,39858.000000,19810.000000
11334.000000,32999.000000,39871.000000,19814.000000
11466.000000,33162.000000,39951.000000,19858.000000
11451.000000,33205.000000,40000.000000,19882.000000
11552.000000,33226.000000,40020.000000,19882.000000
11558.000000,33278.000000,40018.000000,19885.000000
11490.000000,33227.000000,40025.000000,19861.000000
11483.000000,33214.000000,39998.000000,19864.000000
11437.000000,33175.000000,39979.000000,19847.000000
11440.000000,33124.000000,39946.000000,19849.000000
11426.000000,33123.000000,39976.000000,19863.000000
11407.000000,33080.000000,39953.000000,19848.000000
11405.000000,33137.000000,39950.000000,19826.000000
11286.000000,33009.000000,39904.000000,19803.000000
11360.000000,33015.000000,39884.000000,19830.000000
11296.000000,33020.000000,39856.000000,19810.000000
11279.000000,32964.000000,39864.000000,19813.000000
11231.000000,32902.000000,39839.000000,19798.000000
11206.000000,32920.000000,39813.000000,19777.000000
11194.000000,32875.000000,39796.000000,19781.000000
11215.000000,32834.000000,39805.000000,19798.000000
11157.000000,32780.000000,39770.000000,19774.000000
11111.000000,32803.000000,39758.000000,19783.000000
11085.000000,32750.000000,39708.000000,19775.000000
11092.000000,32703.000000,39706.000000,19773.000000
11047.000000,32669.000000,39703.000000,19742.000000
11028.000000,32638.000000,39711.000000,19746.000000
10924.000000,32562.000000,39625.000000,19721.000000
10906.000000,32544.000000,39642.000000,19701.000000
10930.000000,32517.000000,39614.000000,19713.000000
10902.000000,32528.000000,39569.000000,19719.000000
10832.000000,32466.000000,39546.000000,19703.000000
10807.000000,32399.000000,39526.000000,19697.000000
10790.000000,32455.000000,39534.000000,19690.000000
10779.000000,32423.000000,39527.000000,19672.000000
10780.000000,32372.000000,39538.000000,19668.000000
10699.000000,32311.000000,39473.000000,19670.000000
10726.000000,32294.000000,39468.000000,19651.000000
10667.000000,32289.000000,39505.000000,19649.000000
10610.000000,32185.000000,39422.000000,19629.000000
10598.000000,32170.000000,39406.000000,19601.000000
10558.000000,32203.000000,39401.000000,19603.000000
10490.000000,32058.000000,39355.000000,19599.000000
10480.000000,32089.000000,39334.000000,19595.000000
10457.000000,32050.000000,39362.000000,19610.000000
10466.000000,32009.000000,39313.000000,19580.000000
10395.000000,32005.000000,39316.000000,19571.000000
10362.000000,31929.000000,39288.000000,19559.000000
10294.000000,31824.000000,39205.000000,19555.000000
10290.000000,31857.000000,39194.000000,19506.000000
10285.000000,31840.000000,39226.000000,19532.000000
10301.000000,31813.000000,39197.000000,19526.000000
10231.000000,31810.000000,39194.000000,19527.000000
10194.000000,31766.000000,39166.000000,19506.000000
10175.000000,31752.000000,39155.000000,19504.000000
10090.000000,31670.000000,39141.000000,19469.000000
10112.000000,31684.000000,39097.000000,19485.000000
10039.000000,31582.000000,39070.000000,19439.000000
10027.000000,31599.000000,39061.000000,19447.000000
10052.000000,31563.000000,39067.000000,19448.000000
10067.000000,31638.000000,39100.000000,19474.000000
10082.000000,31640.000000,39117.000000,19455.000000
10068.000000,31629.000000,39109.000000,19457.000000
10065.000000,31692.000000,39116.000000,19479.000000
10151.000000,31730.000000,39154.000000,19501.000000
10203.000000,31748.000000,39165.000000,19476.000000
10304.000000,31947.000000,39263.000000,19533.000000
10350.000000,31957.000000,39271.000000,19576.000000
10385.000000,31996.000000,39315.000000,19540.000000
10458.000000,32052.000000,39351.000000,19591.000000
10716.000000,32338.000000,39505.000000,19656.000000
10744.000000,32417.000000,39533.000000,19641.000000
10817.000000,32449.000000,39594.000000,19681.000000
10903.000000,32529.000000,39619.000000,19704.000000
11091.000000,32793.000000,39765.000000,19748.000000
11260.000000,33009.000000,39894.000000,19813.000000
11398.000000,33069.000000,39928.000000,19855.000000
11427.000000,33154.000000,39954.000000,19856.000000
11487.000000,33210.000000,40015.000000,19882.000000
11548.000000,33257.000000,40033.000000,19868.000000
11648.000000,33411.000000,40124.000000,19925.000000
11675.000000,33403.000000,40156.000000,19927.000000
11698.000000,33463.000000,40141.000000,19924.000000
11667.000000,33414.000000,40131.000000,19909.000000
11645.000000,33447.000000,40118.000000,19917.000000
11643.000000,33398.000000,40120.000000,19927.000000
11668.000000,33407.000000,40133.000000,19904.000000
11603.000000,33397.000000,40101.000000,19904.000000
11598.000000,33363.000000,40071.000000,19896.000000
11574.000000,33309.000000,40068.000000,19881.000000
11526.000000,33318.000000,40055.000000,19863.000000
11492.000000,33266.000000,40057.000000,19896.000000
11497.000000,33218.000000,40035.000000,19900.000000
11422.000000,33157.000000,39987.000000,19844.000000
11443.000000,33173.000000,39990.000000,19844.000000
11423.000000,33150.000000,39991.000000,19853.000000
11389.000000,33146.000000,39990.000000,19867.000000
11355.000000,33066.000000,39924.000000,19835.000000
11318.000000,33040.000000,39935.000000,19817.000000
11308.000000,33030.000000,39913.000000,19829.000000
11281.000000,33018.000000,39900.000000,19828.000000
11249.000000,32977.000000,39868.000000,19803.000000
11218.000000,32919.000000,39861.000000,19804.000000
11169.000000,32949.000000,39841.000000,19773.000000
11138.000000,32883.000000,39866.000000,19761.000000
11192.000000,32886.000000,39825.000000,19775.000000
11082.000000,32851.000000,39795.000000,19761.000000
11094.000000,32788.000000,39796.000000,19734.000000
11074.000000,32744.000000,39738.000000,19721.000000
11009.000000,32728.000000,39742.000000,19721.000000
10990.000000,32684.000000,39709.000000,19720.000000
10969.000000,32683.000000,39697.000000,19684.000000
10872.000000,32569.000000,39645.000000,19678.000000
10848.000000,32559.000000,39647.000000,19681.000000
10838.000000,32551.000000,39646.000000,19671.000000
10813.000000,32545.000000,39624.000000,19678.000000
10827.000000,32525.000000,39603.000000,19663.000000
10716.000000,32385.000000,39564.000000,19615.000000
10702.000000,32392.000000,39544.000000,19642.000000
10705.000000,32384.000000,39527.000000,19613.000000
10622.000000,32333.000000,39492.000000,19614.000000
10561.000000,32288.000000,39486.000000,19584.000000
10574.000000,32238.000000,39451.000000,19571.000000
10529.000000,32220.000000,39414.000000,19572.000000
10558.000000,32160.000000,39427.000000,19571.000000
10523.000000,32151.000000,39428.000000,19563.000000
10456.000000,32138.000000,39367.000000,19571.000000
10438.000000,32119.000000,39404.000000,19569.000000
10421.000000,32095.000000,39354.000000,19542.000000
10366.000000,32050.000000,39337.000000,19541.000000
10333.000000,31962.000000,39343.000000,19536.000000
10252.000000,31907.000000,39272.000000,19507.000000
10278.000000,31888.000000,39248.000000,19522.000000
10234.000000,31846.000000,39240.000000,19501.000000
10263.000000,31854.000000,39235.000000,19538.000000
10220.000000,31891.000000,39243.000000,19531.000000
10282.000000,31877.000000,39260.000000,19526.000000
10281.000000,31889.000000,39284.000000,19553.000000
10291.000000,31927.000000,39271.000000,19563.000000
10384.000000,32003.000000,39328.000000,19576.000000
10466.000000,32087.000000,39374.000000,19565.000000
10471.000000,32127.000000,39388.000000,19598.000000
10589.000000,32232.000000,39454.000000,19623.000000
10608.000000,32267.000000,39492.000000,19642.000000
10673.000000,32352.000000,39525.000000,19622.000000
10713.000000,32392.000000,39564.000000,19654.000000
10996.000000,32665.000000,39704.000000,19719.000000
11053.000000,32760.000000,39775.000000,19736.000000
11136.000000,32836.000000,39796.000000,19772.000000
11168.000000,32888.000000,39803.000000,19739.000000
11352.000000,33145.000000,39968.000000,19825.000000
11457.000000,33173.000000,40012.000000,19855.000000
11806.000000,33619.000000,40239.000000,19928.000000
11856.000000,33637.000000,40266.000000,19957.000000
11864.000000,33687.000000,40304.000000,19963.000000
11872.000000,33670.000000,40306.000000,19943.000000
11884.000000,33664.000000,40332.000000,19997.000000
11891.000000,33709.000000,40336.000000,19964.000000
11834.000000,33686.000000,40311.000000,19957.000000
11872.000000,33660.000000,40276.000000,19960.000000
11784.000000,33561.000000,40232.000000,19936.000000
11770.000000,33584.000000,40228.000000,19911.000000
11763.000000,33533.000000,40229.000000,19920.000000
11689.000000,33506.000000,40178.000000,19952.000000
11643.000000,33423.000000,40159.000000,19908.000000
11606.000000,33408.000000,40154.000000,19897.000000
11615.000000,33393.000000,40132.000000,19898.000000
11583.000000,33360.000000,40131.000000,19907.000000
11545.000000,33303.000000,40050.000000,19875.000000
11466.000000,33281.000000,40071.000000,19868.000000
11510.000000,33290.000000,40033.000000,19865.000000
11451.000000,33255.000000,40033.000000,19862.000000
11404.000000,33156.000000,40005.000000,19843.000000
11409.000000,33150.000000,40005.000000,19834.000000
11298.000000,33048.000000,39933.000000,19814.000000
11294.000000,33039.000000,39927.000000,19796.000000
11243.000000,32994.000000,39932.000000,19781.000000
11250.000000,32981.000000,39891.000000,19758.000000
11188.000000,32975.000000,39860.000000,19774.000000
11125.000000,32924.000000,39876.000000,19755.000000
11047.000000,32794.000000,39804.000000,19701.000000
11066.000000,32773.000000,39765.000000,19712.000000
11016.000000,32773.000000,39760.000000,19730.000000
11018.000000,32759.000000,39758.000000,19731.000000
10932.000000,32635.000000,39706.000000,19708.000000
10926.000000,32642.000000,39686.000000,19693.000000
10819.000000,32519.000000,39631.000000,19681.000000
10816.000000,32471.000000,39604.000000,19675.000000
10802.000000,32460.000000,39583.000000,19640.000000
10729.000000,32450.000000,39594.000000,19655.000000
10689.000000,32362.000000,39560.000000,19619.000000
10674.000000,32303.000000,39488.000000,19630.000000
10596.000000,32236.000000,39430.000000,19596.000000
10513.000000,32203.000000,39425.000000,19599.000000
10480.000000,32103.000000,39391.000000,19570.000000
10475.000000,32112.000000,39373.000000,19564.000000
10421.000000,32052.000000,39341.000000,19564.000000
10304.000000,31993.000000,39312.000000,19538.000000
10267.000000,31898.000000,39256.000000,19552.000000
10209.000000,31806.000000,39242.000000,19580.000000
10187.000000,31780.000000,39180.000000,19538.000000
10093.000000,31706.000000,39145.000000,19515.000000
10067.000000,31709.000000,39142.000000,19511.000000
10022.000000,31629.000000,39117.000000,19492.000000
10033.000000,31627.000000,39099.000000,19486.000000
9998.000000,31618.000000,39100.000000,19499.000000
10040.000000,31621.000000,39111.000000,19478.000000
10021.000000,31639.000000,39095.000000,19454.000000
10051.000000,31675.000000,39116.000000,19491.000000
10077.000000,31694.000000,39123.000000,19510.000000
10105.000000,31702.000000,39139.000000,19505.000000
10123.000000,31741.000000,39183.000000,19515.000000
10245.000000,31800.000000,39231.000000,19539.000000
10227.000000,31918.000000,39249.000000,19544.000000
10355.000000,31966.000000,39319.000000,19553.000000
10377.000000,32021.000000,39331.000000,19600.000000
10638.000000,32322.000000,39492.000000,19666.000000
10713.000000,32463.000000,39527.000000,19693.000000
10783.000000,32451.000000,39589.000000,19696.000000
10955.000000,32656.000000,39686.000000,19765.000000
11000.000000,32756.000000,39750.000000,19776.000000
11116.000000,32808.000000,39759.000000,19778.000000
11176.000000,32902.000000,39808.000000,19815.000000
11450.000000,33184.000000,39988.000000,19884.000000
11478.000000,33276.000000,40026.000000,19906.000000
11583.000000,33381.000000,40124.000000,19958.000000
11667.000000,33399.000000,40111.000000,19955.000000
11630.000000,33415.000000,40134.000000,19964.000000
11640.000000,33424.000000,40144.000000,19963.000000
11633.000000,33371.000000,40083.000000,19947.000000
11589.000000,33334.000000,40083.000000,19929.000000
11525.000000,33329.000000,40065.000000,19912.000000
11500.000000,33267.000000,40073.000000,19904.000000
11467.000000,33255.000000,40035.000000,19947.000000
11487.000000,33275.000000,40004.000000,19895.000000
11479.000000,33239.000000,39997.000000,19919.000000
11437.000000,33203.000000,40006.000000,19907.000000
11396.000000,33157.000000,39963.000000,19886.000000
11375.000000,33132.000000,39988.000000,19880.000000
11382.000000,33128.000000,39964.000000,19874.000000
11338.000000,33127.000000,39928.000000,19873.000000
11287.000000,33053.000000,39872.000000,19865.000000
11257.000000,32993.000000,39896.000000,19842.000000
11259.000000,33010.000000,39878.000000,19838.000000
11213.000000,32977.000000,39873.000000,19837.000000
11168.000000,32898.000000,39819.000000,19851.000000
11155.000000,32872.000000,39786.000000,19845.000000
11138.000000,32867.000000,39817.000000,19821.000000
11132.000000,32861.000000,39777.000000,19820.000000
11073.000000,32785.000000,39754.000000,19806.000000
11064.000000,32820.000000,39763.000000,19810.000000
11023.000000,32699.000000,39763.000000,19808.000000
11042.000000,32732.000000,39715.000000,19756.000000
10980.000000,32702.000000,39710.000000,19774.000000
10912.000000,32642.000000,39705.000000,19752.000000
10881.000000,32578.000000,39626.000000,19737.000000
10851.000000,32594.000000,39631.000000,19724.000000
10807.000000,32523.000000,39595.000000,19708.000000
10761.000000,32518.000000,39607.000000,19744.000000
10714.000000,32413.000000,39558.000000,19684.000000
10682.000000,32403.000000,39527.000000,19697.000000
10639.000000,32353.000000,39517.000000,19665.000000
10591.000000,32338.000000,39488.000000,19651.000000
10607.000000,32271.000000,39454.000000,19670.000000
10594.000000,32274.000000,39434.000000,19655.000000
10495.000000,32202.000000,39408.000000,19631.000000
10476.000000,32147.000000,39413.000000,19622.000000
10478.000000,32184.000000,39368.000000,19627.000000
10445.000000,32140.000000,39380.000000,19604.000000
10422.000000,32122.000000,39369.000000,19612.000000
10369.000000,32058.000000,39319.000000,19587.000000
10373.000000,32041.000000,39321.000000,19571.000000
10282.000000,31954.000000,39305.000000,19578.000000
10283.000000,31941.000000,39272.000000,19558.000000
10227.000000,31889.000000,39229.000000,19572.000000
10163.000000,31822.000000,39175.000000,19554.000000
10080.000000,31762.000000,39160.000000,19541.000000
9993.000000,31698.000000,39126.000000,19521.000000
10045.000000,31629.000000,39075.000000,19508.000000
9983.000000,31617.000000,39085.000000,19493.000000
10018.000000,31594.000000,39063.000000,19501.000000
9960.000000,31571.000000,39057.000000,19491.000000
9981.000000,31637.000000,39076.000000,19507.000000
9984.000000,31619.000000,39068.000000,19522.000000
10051.000000,31712.000000,39140.000000,19527.000000
10120.000000,31747.000000,39141.000000,19526.000000
10083.000000,31739.000000,39155.000000,19508.000000
10131.000000,31787.000000,39203.000000,19566.000000
10170.000000,31808.000000,39182.000000,19546.000000
10363.000000,32000.000000,39295.000000,19629.000000
10388.000000,32078.000000,39289.000000,19629.000000
10450.000000,32140.000000,39376.000000,19643.000000
10514.000000,32166.000000,39384.000000,19665.000000
10675.000000,32359.000000,39515.000000,19699.000000
10724.000000,32410.000000,39521.000000,19736.000000
11036.000000,32829.000000,39735.000000,19782.000000
11126.000000,32853.000000,39786.000000,19821.000000
11206.000000,32933.000000,39790.000000,19838.000000
11249.000000,32983.000000,39870.000000,19875.000000
11515.000000,33270.000000,40038.000000,19922.000000
11569.000000,33318.000000,40014.000000,19936.000000
11563.000000,33380.000000,40030.000000,19961.000000
11568.000000,33351.000000,40073.000000,19949.000000
11476.000000,33257.000000,40035.000000,19944.000000
11533.000000,33266.000000,40013.000000,19975.000000
11467.000000,33226.000000,40002.000000,19922.000000
11379.000000,33159.000000,39943.000000,19937.000000
11369.000000,33114.000000,39941.000000,19924.000000
11344.000000,33113.000000,39889.000000,19890.000000
11297.000000,33042.000000,39891.000000,19892.000000
11274.000000,33036.000000,39874.000000,19890.000000
11274.000000,33042.000000,39854.000000,19890.000000
11227.000000,32996.000000,39860.000000,19895.000000
11156.000000,32882.000000,39798.000000,19882.000000
11151.000000,32882.000000,39805.000000,19853.000000
11108.000000,32880.000000,39769.000000,19844.000000
11111.000000,32821.000000,39780.000000,19838.000000
11058.000000,32804.000000,39724.000000,19815.000000
11017.000000,32749.000000,39725.000000,19800.000000
10998.000000,32674.000000,39689.000000,19808.000000
10978.000000,32708.000000,39673.000000,19791.000000
10887.000000,32571.000000,39583.000000,19785.000000
10852.000000,32530.000000,39584.000000,19767.000000
10785.000000,32530.000000,39579.000000,19780.000000
10781.000000,32501.000000,39546.000000,19760.000000
10809.000000,32466.000000,39555.000000,19755.000000
10732.000000,32395.000000,39484.000000,19749.000000
10704.000000,32361.000000,39484.000000,19719.000000
10588.000000,32287.000000,39432.000000,19699.000000
10596.000000,32247.000000,39420.000000,19723.000000
10605.000000,32233.000000,39397.000000,19737.000000
10555.000000,32200.000000,39419.000000,19708.000000
10455.000000,32110.000000,39394.000000,19703.000000
10478.000000,32079.000000,39326.000000,19705.000000
10409.000000,32093.000000,39286.000000,19679.000000
10423.000000,32021.000000,39296.000000,19691.000000
10392.000000,31980.000000,39282.000000,19681.000000
10386.000000,32010.000000,39264.000000,19680.000000
10379.000000,31931.000000,39274.000000,19679.000000
10340.000000,31928.000000,39223.000000,19640.000000
10326.000000,31872.000000,39191.000000,19637.000000
10271.000000,31866.000000,39182.000000,19649.000000
10283.000000,31882.000000,39192.000000,19643.000000
10231.000000,31866.000000,39173.000000,19612.000000
10220.000000,31785.000000,39157.000000,19634.000000
10179.000000,31746.000000,39160.000000,19624.000000
10186.000000,31750.000000,39125.000000,19605.000000
10115.000000,31677.000000,39063.000000,19596.000000
10084.000000,31665.000000,39063.000000,19589.000000
10057.000000,31648.000000,39061.000000,19573.000000
10007.000000,31591.000000,39039.000000,19574.000000
9972.000000,31558.000000,39019.000000,19553.000000
9940.000000,31539.000000,39001.000000,19530.000000
9953.000000,31525.000000,39009.000000,19561.000000
9895.000000,31453.000000,38944.000000,19544.000000
9881.000000,31428.000000,38973.000000,19524.000000
9869.000000,31407.000000,38937.000000,19532.000000
9852.000000,31413.000000,38952.000000,19533.000000
9879.000000,31446.000000,38942.000000,19516.000000
9858.000000,31429.000000,38965.000000,19530.000000
9886.000000,31462.000000,38954.000000,19557.000000
9923.000000,31519.000000,38986.000000,19562.000000
10035.000000,31652.000000,39057.000000,19569.000000
10059.000000,31632.000000,39111.000000,19589.000000
10101.000000,31683.000000,39084.000000,19583.000000
10111.000000,31747.000000,39121.000000,19582.000000
10160.000000,31763.000000,39132.000000,19594.000000
10258.000000,31877.000000,39188.000000,19630.000000
10298.000000,31947.000000,39267.000000,19623.000000
10442.000000,32158.000000,39330.000000,19678.000000
10528.000000,32159.000000,39371.000000,19704.000000
10582.000000,32274.000000,39401.000000,19703.000000
10774.000000,32475.000000,39535.000000,19776.000000
10838.000000,32500.000000,39536.000000,19810.000000
11170.000000,32887.000000,39785.000000,19894.000000
11255.000000,32983.000000,39811.000000,19869.000000
11293.000000,33013.000000,39857.000000,19901.000000
11392.000000,33146.000000,39941.000000,19936.000000
11442.000000,33197.000000,39937.000000,19945.000000
11398.000000,33159.000000,39969.000000,19945.000000
11420.000000,33156.000000,39944.000000,19949.000000
11336.000000,33098.000000,39929.000000,19907.000000
11332.000000,33064.000000,39872.000000,19910.000000
11293.000000,33076.000000,39885.000000,19907.000000
11260.000000,32966.000000,39855.000000,19908.000000
11252.000000,32940.000000,39816.000000,19911.000000
11171.000000,32880.000000,39792.000000,19863.000000
11147.000000,32839.000000,39770.000000,19848.000000
11057.000000,32766.000000,39735.000000,19869.000000
11012.000000,32661.000000,39670.000000,19840.000000
11010.000000,32641.000000,39650.000000,19855.000000
11002.000000,32632.000000,39660.000000,19865.000000
10968.000000,32536.000000,39585.000000,19851.000000
10899.000000,32537.000000,39584.000000,19818.000000
10843.000000,32501.000000,39560.000000,19832.000000
10844.000000,32472.000000,39551.000000,19799.000000
10806.000000,32441.000000,39539.000000,19800.000000
10747.000000,32406.000000,39486.000000,19763.000000
