660nm,730nm,850nm,940nm
22575.000000,17617.000000,29178.000000,20719.000000
22567.000000,17613.000000,29166.000000,20712.000000
22549.000000,17607.000000,29152.000000,20712.000000
22528.000000,17586.000000,29122.000000,20695.000000
22519.000000,17567.000000,29093.000000,20668.000000
22513.000000,17562.000000,29080.000000,20649.000000
22492.000000,17556.000000,29064.000000,20621.000000
22461.000000,17539.000000,29035.000000,20568.000000
22437.000000,17519.000000,29006.000000,20522.000000
22413.000000,17503.000000,28982.000000,20501.000000
22381.000000,17484.000000,28952.000000,20474.000000
22357.000000,17460.000000,28912.000000,20428.000000
22345.000000,17442.000000,28878.000000,20390.000000
22327.000000,17434.000000,28854.000000,20370.000000
22293.000000,17420.000000,28821.000000,20338.000000
22259.000000,17399.000000,28775.000000,20289.000000
22241.000000,17384.000000,28735.000000,20253.000000
22223.000000,17378.000000,28708.000000,20239.000000
22195.000000,17364.000000,28676.000000,20214.000000
22171.000000,17340.000000,28636.000000,20171.000000
22159.000000,17321.000000,28606.000000,20144.000000
22142.000000,17309.000000,28586.000000,20133.000000
22112.000000,17291.000000,28554.000000,20102.000000
22087.000000,17268.000000,28509.000000,20053.000000
22074.000000,17255.000000,28475.000000,20020.000000
22057.000000,17247.000000,28450.000000,20002.000000
22026.000000,17230.000000,28416.000000,19963.000000
21997.000000,17208.000000,28376.000000,19905.000000
21977.000000,17195.000000,28348.000000,19864.000000
21951.000000,17183.000000,28326.000000,19837.000000
21914.000000,17155.000000,28288.000000,19793.000000
21883.000000,17121.000000,28242.000000,19748.000000
21866.000000,17103.000000,28209.000000,19732.000000
21842.000000,17096.000000,28183.000000,19722.000000
21808.000000,17082.000000,28146.000000,19677.000000
21780.000000,17067.000000,28111.000000,19617.000000
21762.000000,17064.000000,28092.000000,19584.000000
21735.000000,17060.000000,28076.000000,19568.000000
21699.000000,17043.000000,28039.000000,19533.000000
21678.000000,17025.000000,27998.000000,19495.000000
21677.000000,17020.000000,27974.000000,19478.000000
21672.000000,17018.000000,27959.000000,19460.000000
21657.000000,17005.000000,27931.000000,19416.000000
21645.000000,16991.000000,27899.000000,19374.000000
21639.000000,16986.000000,27881.000000,19364.000000
21625.000000,16981.000000,27863.000000,19362.000000
21606.000000,16965.000000,27829.000000,19342.000000
21597.000000,16951.000000,27794.000000,19319.000000
21593.000000,16952.000000,27775.000000,19310.000000
21578.000000,16952.000000,27755.000000,19293.000000
21554.000000,16936.000000,27723.000000,19250.000000
21538.000000,16920.000000,27697.000000,19213.000000
21523.000000,16911.000000,27684.000000,19201.000000
21498.000000,16900.000000,27666.000000,19183.000000
21474.000000,16885.000000,27638.000000,19145.000000
21462.000000,16876.000000,27619.000000,19121.000000
21447.000000,16876.000000,27613.000000,19118.000000
21415.000000,16867.000000,27595.000000,19102.000000
21387.000000,16845.000000,27559.000000,19069.000000
21379.000000,16830.000000,27529.000000,19049.000000
21375.000000,16826.000000,27512.000000,19045.000000
21357.000000,16815.000000,27489.000000,19027.000000
21339.000000,16795.000000,27458.000000,18990.000000
21334.000000,16781.000000,27435.000000,18972.000000
21328.000000,16774.000000,27421.000000,18974.000000
21310.000000,16763.000000,27399.000000,18957.000000
21296.000000,16747.000000,27371.000000,18918.000000
21290.000000,16741.000000,27352.000000,18889.000000
21279.000000,16740.000000,27340.000000,18871.000000
21257.000000,16733.000000,27316.000000,18837.000000
21239.000000,16720.000000,27282.000000,18794.000000
21233.000000,16718.000000,27261.000000,18778.000000
21224.000000,16722.000000,27249.000000,18778.000000
21208.000000,16717.000000,27226.000000,18754.000000
21201.000000,16708.000000,27200.000000,18713.000000
21205.000000,16712.000000,27192.000000,18695.000000
21201.000000,16719.000000,27191.000000,18688.000000
21182.000000,16711.000000,27171.000000,18655.000000
21168.000000,16695.000000,27143.000000,18621.000000
21166.000000,16690.000000,27130.000000,18619.000000
21161.000000,16688.000000,27120.000000,18624.000000
21148.000000,16673.000000,27094.000000,18601.000000
21143.000000,16658.000000,27066.000000,18571.000000
21147.000000,16660.000000,27061.000000,18570.000000
21146.000000,16668.000000,27066.000000,18585.000000
21145.000000,16673.000000,27064.000000,18586.000000
21167.000000,16689.000000,27075.000000,18590.000000
21211.000000,16726.000000,27117.000000,18627.000000
21262.000000,16772.000000,27178.000000,18680.000000
21324.000000,16816.000000,27243.000000,18727.000000
21406.000000,16867.000000,27325.000000,18798.000000
21503.000000,16936.000000,27438.000000,18908.000000
21605.000000,17011.000000,27568.000000,19033.000000
21716.000000,17082.000000,27702.000000,19162.000000
21844.000000,17161.000000,27854.000000,19310.000000
21979.000000,17254.000000,28032.000000,19483.000000
22103.000000,17344.000000,28214.000000,19651.000000
22226.000000,17426.000000,28387.000000,19808.000000
22360.000000,17514.000000,28567.000000,19986.000000
22490.000000,17608.000000,28757.000000,20189.000000
22606.000000,17697.000000,28937.000000,20381.000000
22723.000000,17777.000000,29099.000000,20551.000000
22850.000000,17860.000000,29262.000000,20721.000000
22967.000000,17943.000000,29426.000000,20891.000000
23060.000000,18011.000000,29567.000000,21032.000000
23142.000000,18062.000000,29682.000000,21138.000000
23223.000000,18109.000000,29788.000000,21239.000000
23286.000000,18152.000000,29887.000000,21340.000000
23327.000000,18182.000000,29962.000000,21418.000000
23365.000000,18201.000000,30016.000000,21480.000000
23409.000000,18222.000000,30070.000000,21548.000000
23442.000000,18243.000000,30123.000000,21610.000000
23457.000000,18250.000000,30155.000000,21636.000000
23468.000000,18248.000000,30170.000000,21643.000000
23478.000000,18246.000000,30184.000000,21666.000000
23475.000000,18244.000000,30194.000000,21694.000000
23460.000000,18232.000000,30183.000000,21697.000000
23451.000000,18218.000000,30165.000000,21686.000000
23448.000000,18217.000000,30164.000000,21688.000000
23433.000000,18216.000000,30165.000000,21683.000000
23402.000000,18199.000000,30142.000000,21643.000000
23373.000000,18176.000000,30103.000000,21595.000000
23349.000000,18161.000000,30069.000000,21571.000000
23318.000000,18148.000000,30037.000000,21554.000000
23286.000000,18126.000000,29992.000000,21512.000000
23267.000000,18103.000000,29949.000000,21465.000000
23253.000000,18090.000000,29924.000000,21437.000000
23223.000000,18074.000000,29901.000000,21410.000000
23180.000000,18045.000000,29862.000000,21359.000000
23147.000000,18017.000000,29825.000000,21318.000000
23123.000000,18002.000000,29804.000000,21311.000000
23094.000000,17991.000000,29786.000000,21304.000000
23068.000000,17973.000000,29758.000000,21277.000000
23058.000000,17961.000000,29737.000000,21254.000000
23055.000000,17960.000000,29732.000000,21247.000000
23045.000000,17956.000000,29723.000000,21231.000000
23033.000000,17943.000000,29701.000000,21196.000000
23033.000000,17936.000000,29685.000000,21174.000000
23033.000000,17934.000000,29678.000000,21175.000000
23020.000000,17926.000000,29661.000000,21161.000000
23010.000000,17912.000000,29631.000000,21123.000000
23013.000000,17907.000000,29609.000000,21097.000000
23010.000000,17911.000000,29599.000000,21089.000000
22990.000000,17907.000000,29579.000000,21069.000000
22972.000000,17893.000000,29545.000000,21034.000000
22968.000000,17886.000000,29520.000000,21013.000000
22964.000000,17888.000000,29507.000000,21010.000000
22950.000000,17885.000000,29488.000000,20995.000000
22944.000000,17879.000000,29464.000000,20964.000000
22947.000000,17880.000000,29454.000000,20947.000000
22944.000000,17883.000000,29455.000000,20942.000000
22930.000000,17872.000000,29445.000000,20919.000000
22922.000000,17855.000000,29427.000000,20889.000000
22928.000000,17851.000000,29421.000000,20891.000000
22933.000000,17854.000000,29426.000000,20913.000000
22932.000000,17852.000000,29422.000000,20916.000000
22939.000000,17849.000000,29418.000000,20904.000000
22956.000000,17860.000000,29431.000000,20916.000000
22968.000000,17873.000000,29451.000000,20944.000000
22970.000000,17877.000000,29457.000000,20956.000000
22985.000000,17882.000000,29458.000000,20966.000000
23017.000000,17905.000000,29478.000000,21002.000000
23044.000000,17932.000000,29505.000000,21039.000000
23056.000000,17943.000000,29519.000000,21043.000000
23070.000000,17947.000000,29529.000000,21039.000000
23091.000000,17961.000000,29553.000000,21057.000000
23100.000000,17973.000000,29576.000000,21078.000000
23100.000000,17976.000000,29582.000000,21077.000000
23109.000000,17982.000000,29587.000000,21073.000000
23124.000000,18000.000000,29608.000000,21089.000000
23128.000000,18017.000000,29628.000000,21101.000000
23125.000000,18020.000000,29628.000000,21086.000000
23127.000000,18020.000000,29623.000000,21076.000000
23130.000000,18026.000000,29627.000000,21093.000000
23123.000000,18028.000000,29628.000000,21107.000000
23114.000000,18015.000000,29614.000000,21100.000000
23111.000000,18004.000000,29601.000000,21095.000000
23105.000000,18007.000000,29599.000000,21100.000000
23084.000000,18004.000000,29586.000000,21086.000000
23063.000000,17987.000000,29555.000000,21046.000000
23056.000000,17971.000000,29527.000000,21017.000000
23047.000000,17961.000000,29509.000000,21010.000000
23022.000000,17945.000000,29482.000000,20985.000000
22997.000000,17921.000000,29445.000000,20935.000000
22984.000000,17907.000000,29420.000000,20893.000000
22969.000000,17902.000000,29407.000000,20868.000000
22938.000000,17886.000000,29379.000000,20833.000000
22908.000000,17860.000000,29337.000000,20787.000000
22892.000000,17845.000000,29305.000000,20759.000000
22876.000000,17837.000000,29284.000000,20749.000000
22850.000000,17821.000000,29250.000000,20726.000000
22831.000000,17797.000000,29209.000000,20686.000000
22822.000000,17780.000000,29177.000000,20656.000000
22804.000000,17771.000000,29149.000000,20634.000000
22772.000000,17754.000000,29111.000000,20595.000000
22748.000000,17733.000000,29067.000000,20551.000000
22735.000000,17723.000000,29036.000000,20534.000000
22715.000000,17719.000000,29013.000000,20523.000000
22689.000000,17709.000000,28982.000000,20482.000000
22670.000000,17696.000000,28948.000000,20424.000000
22658.000000,17690.000000,28926.000000,20388.000000
22636.000000,17682.000000,28907.000000,20366.000000
22605.000000,17660.000000,28873.000000,20320.000000
22584.000000,17636.000000,28837.000000,20269.000000
22577.000000,17626.000000,28818.000000,20243.000000
22566.000000,17621.000000,28805.000000,20221.000000
22548.000000,17606.000000,28776.000000,20175.000000
22536.000000,17587.000000,28744.000000,20132.000000
22528.000000,17578.000000,28723.000000,20119.000000
22510.000000,17568.000000,28699.000000,20112.000000
22485.000000,17546.000000,28659.000000,20080.000000
22470.000000,17528.000000,28619.000000,20047.000000
22463.000000,17526.000000,28595.000000,20041.000000
22448.000000,17526.000000,28572.000000,20037.000000
22429.000000,17515.000000,28537.000000,20005.000000
22417.000000,17501.000000,28500.000000,19976.000000
22404.000000,17494.000000,28473.000000,19968.000000
22380.000000,17485.000000,28442.000000,19953.000000
22354.000000,17464.000000,28399.000000,19917.000000
22344.000000,17446.000000,28364.000000,19889.000000
22337.000000,17440.000000,28344.000000,19878.000000
22314.000000,17430.000000,28321.000000,19848.000000
22287.000000,17411.000000,28291.000000,19794.000000
22270.000000,17399.000000,28268.000000,19757.000000
22248.000000,17396.000000,28254.000000,19746.000000
22209.000000,17388.000000,28233.000000,19724.000000
22172.000000,17372.000000,28201.000000,19685.000000
22155.000000,17364.000000,28178.000000,19663.000000
22147.000000,17363.000000,28166.000000,19655.000000
22127.000000,17352.000000,28144.000000,19627.000000
22108.000000,17332.000000,28112.000000,19577.000000
22100.000000,17319.000000,28089.000000,19544.000000
22091.000000,17312.000000,28073.000000,19533.000000
22070.000000,17296.000000,28043.000000,19510.000000
22053.000000,17276.000000,28004.000000,19471.000000
22045.000000,17266.000000,27979.000000,19448.000000
22031.000000,17263.000000,27966.000000,19434.000000
22002.000000,17252.000000,27942.000000,19400.000000
21973.000000,17236.000000,27911.000000,19356.000000
21956.000000,17228.000000,27890.000000,19341.000000
21935.000000,17222.000000,27872.000000,19339.000000
21908.000000,17209.000000,27840.000000,19316.000000
21888.000000,17197.000000,27809.000000,19282.000000
21881.000000,17199.000000,27798.000000,19267.000000
21869.000000,17200.000000,27791.000000,19255.000000
21845.000000,17184.000000,27765.000000,19218.000000
21824.000000,17161.000000,27730.000000,19179.000000
21811.000000,17149.000000,27710.000000,19167.000000
21793.000000,17140.000000,27695.000000,19163.000000
21769.000000,17123.000000,27667.000000,19136.000000
21758.000000,17108.000000,27640.000000,19099.000000
21757.000000,17106.000000,27630.000000,19081.000000
21745.000000,17103.000000,27624.000000,19070.000000
21723.000000,17086.000000,27601.000000,19045.000000
21713.000000,17071.000000,27577.000000,19024.000000
21714.000000,17071.000000,27566.000000,19023.000000
21711.000000,17069.000000,27554.000000,19010.000000
21705.000000,17056.000000,27531.000000,18970.000000
21702.000000,17042.000000,27507.000000,18937.000000
21690.000000,17036.000000,27491.000000,18924.000000
21660.000000,17023.000000,27463.000000,18902.000000
21627.000000,16996.000000,27415.000000,18867.000000
21607.000000,16974.000000,27377.000000,18843.000000
21589.000000,16968.000000,27357.000000,18834.000000
21559.000000,16957.000000,27332.000000,18806.000000
21533.000000,16939.000000,27298.000000,18758.000000
21523.000000,16931.000000,27272.000000,18724.000000
21510.000000,16934.000000,27258.000000,18710.000000
21488.000000,16934.000000,27237.000000,18690.000000
21479.000000,16932.000000,27214.000000,18665.000000
21498.000000,16943.000000,27212.000000,18664.000000
21528.000000,16971.000000,27240.000000,18689.000000
21558.000000,17001.000000,27279.000000,18713.000000
21607.000000,17033.000000,27327.000000,18741.000000
21684.000000,17083.000000,27404.000000,18806.000000
21772.000000,17149.000000,27509.000000,18910.000000
21865.000000,17213.000000,27624.000000,19022.000000
21977.000000,17276.000000,27751.000000,19142.000000
22110.000000,17354.000000,27908.000000,19296.000000
22244.000000,17444.000000,28088.000000,19474.000000
22373.000000,17528.000000,28265.000000,19640.000000
22508.000000,17612.000000,28441.000000,19799.000000
22647.000000,17705.000000,28632.000000,19983.000000
22772.000000,17797.000000,28825.000000,20178.000000
22880.000000,17874.000000,28999.000000,20353.000000
22992.000000,17947.000000,29164.000000,20524.000000
23114.000000,18033.000000,29339.000000,20716.000000
23232.000000,18122.000000,29514.000000,20904.000000
23340.000000,18197.000000,29666.000000,21056.000000
23449.000000,18265.000000,29805.000000,21190.000000
23558.000000,18340.000000,29942.000000,21332.000000
23646.000000,18409.000000,30066.000000,21467.000000
23714.000000,18455.000000,30159.000000,21567.000000
23779.000000,18491.000000,30237.000000,21653.000000
23842.000000,18533.000000,30318.000000,21748.000000
23888.000000,18572.000000,30391.000000,21826.000000
23919.000000,18593.000000,30441.000000,21867.000000
23944.000000,18603.000000,30479.000000,21901.000000
23959.000000,18616.000000,30515.000000,21943.000000
23953.000000,18621.000000,30534.000000,21967.000000
23940.000000,18609.000000,30529.000000,21964.000000
23937.000000,18595.000000,30523.000000,21962.000000
23935.000000,18589.000000,30526.000000,21973.000000
23916.000000,18579.000000,30519.000000,21966.000000
23895.000000,18561.000000,30496.000000,21929.000000
23881.000000,18546.000000,30478.000000,21893.000000
23858.000000,18535.000000,30467.000000,21873.000000
23818.000000,18513.000000,30439.000000,21844.000000
23777.000000,18480.000000,30392.000000,21800.000000
23751.000000,18458.000000,30351.000000,21771.000000
23730.000000,18451.000000,30326.000000,21758.000000
23702.000000,18442.000000,30296.000000,21733.000000
23680.000000,18425.000000,30260.000000,21695.000000
23673.000000,18415.000000,30234.000000,21674.000000
23664.000000,18410.000000,30219.000000,21666.000000
23647.000000,18398.000000,30195.000000,21643.000000
23636.000000,18379.000000,30161.000000,21611.000000
23637.000000,18370.000000,30138.000000,21601.000000
23634.000000,18369.000000,30126.000000,21604.000000
23623.000000,18365.000000,30105.000000,21591.000000
23619.000000,18358.000000,30075.000000,21567.000000
23621.000000,18362.000000,30057.000000,21559.000000
23611.000000,18370.000000,30048.000000,21552.000000
23588.000000,18366.000000,30027.000000,21520.000000
23568.000000,18353.000000,29998.000000,21482.000000
23554.000000,18346.000000,29982.000000,21469.000000
23531.000000,18339.000000,29971.000000,21464.000000
23497.000000,18318.000000,29946.000000,21435.000000
23475.000000,18295.000000,29918.000000,21394.000000
23467.000000,18288.000000,29905.000000,21375.000000
23453.000000,18284.000000,29894.000000,21370.000000
23430.000000,18270.000000,29869.000000,21348.000000
23421.000000,18258.000000,29843.000000,21323.000000
23427.000000,18263.000000,29836.000000,21318.000000
23429.000000,18272.000000,29836.000000,21311.000000
23430.000000,18273.000000,29831.000000,21277.000000
23442.000000,18272.000000,29828.000000,21246.000000
23459.000000,18276.000000,29841.000000,21245.000000
23470.000000,18280.000000,29851.000000,21250.000000
23479.000000,18277.000000,29846.000000,21243.000000
23499.000000,18281.000000,29845.000000,21242.000000
23523.000000,18296.000000,29863.000000,21258.000000
23536.000000,18307.000000,29877.000000,21263.000000
23543.000000,18307.000000,29877.000000,21244.000000
23560.000000,18308.000000,29882.000000,21238.000000
23578.000000,18318.000000,29900.000000,21263.000000
23583.000000,18326.000000,29912.000000,21281.000000
23587.000000,18326.000000,29913.000000,21276.000000
23603.000000,18334.000000,29925.000000,21281.000000
23617.000000,18354.000000,29951.000000,21304.000000
23616.000000,18367.000000,29967.000000,21320.000000
23613.000000,18365.000000,29967.000000,21322.000000
23620.000000,18364.000000,29970.000000,21338.000000
23623.000000,18367.000000,29982.000000,21369.000000
23611.000000,18358.000000,29985.000000,21379.000000
23599.000000,18339.000000,29975.000000,21364.000000
23597.000000,18327.000000,29970.000000,21354.000000
23588.000000,18323.000000,29971.000000,21352.000000
23562.000000,18309.000000,29957.000000,21336.000000
23534.000000,18286.000000,29928.000000,21309.000000
23515.000000,18270.000000,29904.000000,21300.000000
23493.000000,18262.000000,29888.000000,21302.000000
23463.000000,18248.000000,29862.000000,21281.000000
23438.000000,18230.000000,29829.000000,21244.000000
23419.000000,18221.000000,29809.000000,21227.000000
23395.000000,18213.000000,29792.000000,21222.000000
23366.000000,18195.000000,29760.000000,21199.000000
23348.000000,18177.000000,29720.000000,21165.000000
23341.000000,18171.000000,29696.000000,21144.000000
23322.000000,18167.000000,29679.000000,21123.000000
23288.000000,18147.000000,29643.000000,21079.000000
23253.000000,18118.000000,29598.000000,21033.000000
23223.000000,18100.000000,29566.000000,21008.000000
23189.000000,18085.000000,29536.000000,20983.000000
23152.000000,18059.000000,29490.000000,20928.000000
23120.000000,18029.000000,29438.000000,20868.000000
23089.000000,18005.000000,29397.000000,20834.000000
23051.000000,17979.000000,29356.000000,20809.000000
23007.000000,17943.000000,29302.000000,20764.000000
22973.000000,17911.000000,29250.000000,20712.000000
22940.000000,17895.000000,29214.000000,20672.000000
22894.000000,17877.000000,29178.000000,20625.000000
22844.000000,17845.000000,29127.000000,20556.000000
22807.000000,17815.000000,29077.000000,20496.000000
22775.000000,17796.000000,29039.000000,20466.000000
22734.000000,17776.000000,28997.000000,20427.000000
22697.000000,17749.000000,28947.000000,20366.000000
22671.000000,17725.000000,28906.000000,20315.000000
22641.000000,17708.000000,28878.000000,20284.000000
22595.000000,17683.000000,28842.000000,20248.000000
22552.000000,17649.000000,28791.000000,20201.000000
22529.000000,17624.000000,28751.000000,20170.000000
22510.000000,17614.000000,28727.000000,20158.000000
22479.000000,17600.000000,28696.000000,20131.000000
22450.000000,17578.000000,28652.000000,20087.000000
22432.000000,17562.000000,28616.000000,20060.000000
22406.000000,17551.000000,28588.000000,20051.000000
22368.000000,17535.000000,28555.000000,20028.000000
22339.000000,17514.000000,28519.000000,19986.000000
22326.000000,17500.000000,28497.000000,19955.000000
22311.000000,17492.000000,28485.000000,19934.000000
22283.000000,17474.000000,28457.000000,19895.000000
22258.000000,17450.000000,28416.000000,19846.000000
22245.000000,17437.000000,28384.000000,19819.000000
22233.000000,17433.000000,28363.000000,19801.000000
22215.000000,17423.000000,28334.000000,19762.000000
22207.000000,17413.000000,28305.000000,19712.000000
22206.000000,17412.000000,28291.000000,19689.000000
22194.000000,17412.000000,28282.000000,19680.000000
22171.000000,17398.000000,28255.000000,19653.000000
22156.000000,17381.000000,28224.000000,19622.000000
22157.000000,17380.000000,28213.000000,19613.000000
22153.000000,17387.000000,28213.000000,19606.000000
22137.000000,17384.000000,28196.000000,19575.000000
22124.000000,17374.000000,28171.000000,19544.000000
22117.000000,17372.000000,28156.000000,19541.000000
22104.000000,17367.000000,28141.000000,19545.000000
22086.000000,17349.000000,28107.000000,19527.000000
22078.000000,17333.000000,28073.000000,19501.000000
22077.000000,17332.000000,28056.000000,19492.000000
22065.000000,17332.000000,28041.000000,19479.000000
22045.000000,17321.000000,28014.000000,19440.000000
22033.000000,17309.000000,27987.000000,19407.000000
22021.000000,17304.000000,27970.000000,19399.000000
22000.000000,17297.000000,27953.000000,19386.000000
21977.000000,17282.000000,27921.000000,19355.000000
21963.000000,17267.000000,27895.000000,19331.000000
21951.000000,17258.000000,27886.000000,19319.000000
21930.000000,17244.000000,27873.000000,19292.000000
21909.000000,17222.000000,27847.000000,19245.000000
21902.000000,17208.000000,27826.000000,19217.000000
21891.000000,17201.000000,27813.000000,19218.000000
21865.000000,17191.000000,27791.000000,19208.000000
21843.000000,17176.000000,27756.000000,19177.000000
21841.000000,17170.000000,27729.000000,19150.000000
21842.000000,17174.000000,27716.000000,19134.000000
21829.000000,17170.000000,27697.000000,19102.000000
21813.000000,17156.000000,27667.000000,19058.000000
21806.000000,17146.000000,27646.000000,19034.000000
21795.000000,17139.000000,27634.000000,19032.000000
21774.000000,17127.000000,27611.000000,19018.000000
21761.000000,17111.000000,27579.000000,18990.000000
21761.000000,17106.000000,27558.000000,18977.000000
21755.000000,17108.000000,27550.000000,18973.000000
21738.000000,17105.000000,27533.000000,18949.000000
21726.000000,17095.000000,27507.000000,18912.000000
21724.000000,17092.000000,27490.000000,18897.000000
21717.000000,17095.000000,27481.000000,18897.000000
21704.000000,17092.000000,27465.000000,18880.000000
21703.000000,17093.000000,27450.000000,18858.000000
21716.000000,17108.000000,27457.000000,18859.000000
21724.000000,17129.000000,27474.000000,18868.000000
21726.000000,17139.000000,27482.000000,18860.000000
21745.000000,17151.000000,27494.000000,18862.000000
21786.000000,17184.000000,27535.000000,18909.000000
21835.000000,17229.000000,27597.000000,18982.000000
21893.000000,17276.000000,27664.000000,19051.000000
21980.000000,17336.000000,27753.000000,19130.000000
22094.000000,17418.000000,27882.000000,19251.000000
22212.000000,17506.000000,28033.000000,19395.000000
22334.000000,17586.000000,28184.000000,19532.000000
22471.000000,17668.000000,28343.000000,19684.000000
22615.000000,17763.000000,28520.000000,19872.000000
22753.000000,17858.000000,28705.000000,20064.000000
22887.000000,17943.000000,28884.000000,20239.000000
23027.000000,18027.000000,29067.000000,20420.000000
23161.000000,18118.000000,29259.000000,20613.000000
23273.000000,18202.000000,29439.000000,20792.000000
23376.000000,18270.000000,29596.000000,20946.000000
23482.000000,18336.000000,29747.000000,21103.000000
23579.000000,18405.000000,29898.000000,21273.000000
23655.000000,18464.000000,30032.000000,21417.000000
23727.000000,18512.000000,30150.000000,21520.000000
23808.000000,18565.000000,30267.000000,21621.000000
23880.000000,18623.000000,30383.000000,21731.000000
23930.000000,18666.000000,30475.000000,21821.000000
23971.000000,18690.000000,30541.000000,21887.000000
24015.000000,18714.000000,30600.000000,21955.000000
24046.000000,18737.000000,30655.000000,22029.000000
24052.000000,18745.000000,30687.000000,22075.000000
24053.000000,18741.000000,30696.000000,22088.000000
24062.000000,18740.000000,30703.000000,22100.000000
24059.000000,18739.000000,30710.000000,22107.000000
24038.000000,18724.000000,30698.000000,22082.000000
24017.000000,18699.000000,30671.000000,22039.000000
24003.000000,18680.000000,30649.000000,22016.000000
23985.000000,18668.000000,30630.000000,22009.000000
23959.000000,18647.000000,30600.000000,21982.000000
23941.000000,18623.000000,30568.000000,21940.000000
23929.000000,18608.000000,30552.000000,21914.000000
23907.000000,18597.000000,30539.000000,21897.000000
23872.000000,18576.000000,30507.000000,21862.000000
23841.000000,18553.000000,30460.000000,21825.000000
23821.000000,18540.000000,30424.000000,21815.000000
23796.000000,18530.000000,30394.000000,21808.000000
23764.000000,18511.000000,30352.000000,21771.000000
23742.000000,18493.000000,30308.000000,21721.000000
23728.000000,18485.000000,30278.000000,21693.000000
23701.000000,18475.000000,30247.000000,21678.000000
23665.000000,18454.000000,30201.000000,21648.000000
23646.000000,18435.000000,30159.000000,21619.000000
23642.000000,18432.000000,30140.000000,21612.000000
23636.000000,18432.000000,30127.000000,21602.000000
23624.000000,18422.000000,30100.000000,21566.000000
23616.000000,18412.000000,30072.000000,21526.000000
23606.000000,18410.000000,30056.000000,21499.000000
23584.000000,18403.000000,30037.000000,21467.000000
23557.000000,18380.000000,30001.000000,21422.000000
23538.000000,18361.000000,29969.000000,21385.000000
23524.000000,18355.000000,29955.000000,21363.000000
23498.000000,18346.000000,29938.000000,21332.000000
23469.000000,18327.000000,29908.000000,21280.000000
23451.000000,18311.000000,29887.000000,21243.000000
23430.000000,18302.000000,29877.000000,21230.000000
23398.000000,18287.000000,29857.000000,21210.000000
23374.000000,18268.000000,29826.000000,21175.000000
23371.000000,18259.000000,29807.000000,21157.000000
23373.000000,18260.000000,29807.000000,21157.000000
23363.000000,18255.000000,29801.000000,21141.000000
23355.000000,18240.000000,29781.000000,21110.000000
23359.000000,18231.000000,29771.000000,21103.000000
23362.000000,18233.000000,29772.000000,21122.000000
23357.000000,18230.000000,29767.000000,21136.000000
23355.000000,18225.000000,29755.000000,21141.000000
23366.000000,18233.000000,29760.000000,21159.000000
23376.000000,18251.000000,29783.000000,21182.000000
23375.000000,18262.000000,29802.000000,21183.000000
23375.000000,18265.000000,29814.000000,21172.000000
23386.000000,18273.000000,29834.000000,21186.000000
23392.000000,18283.000000,29857.000000,21214.000000
23390.000000,18279.000000,29864.000000,21224.000000
23394.000000,18271.000000,29867.000000,21228.000000
23407.000000,18276.000000,29887.000000,21253.000000
23414.000000,18285.000000,29910.000000,21278.000000
23407.000000,18282.000000,29914.000000,21273.000000
23404.000000,18275.000000,29910.000000,21263.000000
23407.000000,18279.000000,29917.000000,21279.000000
23399.000000,18284.000000,29923.000000,21304.000000
23377.000000,18274.000000,29908.000000,21305.000000
23363.000000,18262.000000,29891.000000,21295.000000
23356.000000,18260.000000,29889.000000,21298.000000
23340.000000,18257.000000,29888.000000,21292.000000
23317.000000,18242.000000,29871.000000,21258.000000
23301.000000,18228.000000,29850.000000,21227.000000
23288.000000,18224.000000,29838.000000,21219.000000
23268.000000,18217.000000,29823.000000,21207.000000
23242.000000,18195.000000,29792.000000,21173.000000
23222.000000,18172.000000,29757.000000,21137.000000
23200.000000,18158.000000,29736.000000,21113.000000
23163.000000,18143.000000,29709.000000,21075.000000
23124.000000,18119.000000,29667.000000,21015.000000
23100.000000,18098.000000,29624.000000,20967.000000
23075.000000,18084.000000,29590.000000,20948.000000
23040.000000,18063.000000,29551.000000,20925.000000
23009.000000,18034.000000,29502.000000,20886.000000
22993.000000,18011.000000,29464.000000,20854.000000
22975.000000,17998.000000,29445.000000,20834.000000
22940.000000,17977.000000,29417.000000,20795.000000
22902.000000,17949.000000,29371.000000,20738.000000
22876.000000,17931.000000,29326.000000,20698.000000
22850.000000,17920.000000,29287.000000,20677.000000
22809.000000,17900.000000,29237.000000,20642.000000
22768.000000,17870.000000,29179.000000,20591.000000
22739.000000,17846.000000,29136.000000,20549.000000
22705.000000,17828.000000,29105.000000,20512.000000
22661.000000,17801.000000,29063.000000,20457.000000
22624.000000,17769.000000,29014.000000,20393.000000
22602.000000,17748.000000,28974.000000,20351.000000
22575.000000,17733.000000,28940.000000,20327.000000
22537.000000,17710.000000,28895.000000,20288.000000
22505.000000,17682.000000,28847.000000,20240.000000
22486.000000,17663.000000,28817.000000,20215.000000
22463.000000,17650.000000,28795.000000,20194.000000
22431.000000,17628.000000,28761.000000,20146.000000
22405.000000,17604.000000,28723.000000,20092.000000
22390.000000,17594.000000,28700.000000,20066.000000
22370.000000,17590.000000,28682.000000,20052.000000
22346.000000,17575.000000,28650.000000,20020.000000
22330.000000,17560.000000,28617.000000,19978.000000
22320.000000,17557.000000,28598.000000,19957.000000
22300.000000,17553.000000,28581.000000,19943.000000
22268.000000,17535.000000,28547.000000,19908.000000
22246.000000,17511.000000,28511.000000,19874.000000
22230.000000,17495.000000,28487.000000,19864.000000
22207.000000,17481.000000,28464.000000,19850.000000
22182.000000,17464.000000,28430.000000,19809.000000
22166.000000,17453.000000,28397.000000,19768.000000
22152.000000,17454.000000,28380.000000,19751.000000
22130.000000,17451.000000,28363.000000,19735.000000
22106.000000,17435.000000,28332.000000,19704.000000
22097.000000,17421.000000,28304.000000,19682.000000
22092.000000,17417.000000,28287.000000,19685.000000
22078.000000,17410.000000,28265.000000,19675.000000
22065.000000,17396.000000,28233.000000,19633.000000
22059.000000,17388.000000,28207.000000,19593.000000
22049.000000,17384.000000,28193.000000,19573.000000
22024.000000,17372.000000,28170.000000,19549.000000
21999.000000,17349.000000,28134.000000,19514.000000
21989.000000,17333.000000,28107.000000,19497.000000
21980.000000,17327.000000,28097.000000,19494.000000
21958.000000,17319.000000,28081.000000,19471.000000
21938.000000,17307.000000,28057.000000,19427.000000
21931.000000,17301.000000,28042.000000,19398.000000
21921.000000,17299.000000,28032.000000,19388.000000
21900.000000,17288.000000,28009.000000,19366.000000
21881.000000,17272.000000,27976.000000,19334.000000
21874.000000,17266.000000,27954.000000,19321.000000
21866.000000,17264.000000,27942.000000,19321.000000
21850.000000,17255.000000,27923.000000,19303.000000
21843.000000,17243.000000,27899.000000,19269.000000
21846.000000,17242.000000,27887.000000,19252.000000
21842.000000,17245.000000,27883.000000,19242.000000
21827.000000,17238.000000,27863.000000,19208.000000
21816.000000,17226.000000,27834.000000,19168.000000
21813.000000,17221.000000,27818.000000,19158.000000
21803.000000,17219.000000,27808.000000,19158.000000
21786.000000,17210.000000,27782.000000,19130.000000
21781.000000,17202.000000,27751.000000,19085.000000
21782.000000,17208.000000,27734.000000,19061.000000
21769.000000,17210.000000,27718.000000,19048.000000
21743.000000,17194.000000,27687.000000,19015.000000
21721.000000,17171.000000,27653.000000,18985.000000
21710.000000,17162.000000,27639.000000,18985.000000
21705.000000,17165.000000,27637.000000,18994.000000
21710.000000,17170.000000,27634.000000,18987.000000
21739.000000,17183.000000,27646.000000,18986.000000
21787.000000,17217.000000,27691.000000,19019.000000
21838.000000,17260.000000,27759.000000,19071.000000
21899.000000,17300.000000,27833.000000,19125.000000
21980.000000,17349.000000,27925.000000,19211.000000
22077.000000,17414.000000,28046.000000,19347.000000
22180.000000,17486.000000,28180.000000,19502.000000
22300.000000,17558.000000,28318.000000,19658.000000
22443.000000,17642.000000,28478.000000,19837.000000
22592.000000,17743.000000,28666.000000,20036.000000
22734.000000,17844.000000,28859.000000,20226.000000
22880.000000,17939.000000,29049.000000,20397.000000
23038.000000,18039.000000,29253.000000,20576.000000
23188.000000,18147.000000,29466.000000,20773.000000
23317.000000,18247.000000,29665.000000,20961.000000
23443.000000,18332.000000,29843.000000,21133.000000
23574.000000,18417.000000,30021.000000,21315.000000
23696.000000,18504.000000,30200.000000,21505.000000
23795.000000,18580.000000,30356.000000,21668.000000
23885.000000,18644.000000,30487.000000,21801.000000
23975.000000,18709.000000,30615.000000,21934.000000
24051.000000,18770.000000,30743.000000,22069.000000
24109.000000,18813.000000,30851.000000,22180.000000
24166.000000,18844.000000,30935.000000,22267.000000
24227.000000,18878.000000,31014.000000,22356.000000
24279.000000,18915.000000,31088.000000,22438.000000
24314.000000,18942.000000,31140.000000,22484.000000
24342.000000,18958.000000,31174.000000,22504.000000
24366.000000,18974.000000,31206.000000,22534.000000
24373.000000,18983.000000,31229.000000,22565.000000
24363.000000,18977.000000,31227.000000,22570.000000
24358.000000,18967.000000,31212.000000,22565.000000
24363.000000,18967.000000,31208.000000,22576.000000
24357.000000,18969.000000,31206.000000,22583.000000
24335.000000,18957.000000,31186.000000,22559.000000
24312.000000,18938.000000,31155.000000,22528.000000
24292.000000,18925.000000,31132.000000,22520.000000
24264.000000,18910.000000,31110.000000,22516.000000
24233.000000,18883.000000,31072.000000,22487.000000
24217.000000,18860.000000,31036.000000,22448.000000
24211.000000,18853.000000,31016.000000,22425.000000
24195.000000,18847.000000,30999.000000,22401.000000
24170.000000,18828.000000,30969.000000,22353.000000
24149.000000,18806.000000,30934.000000,22307.000000
24133.000000,18793.000000,30907.000000,22285.000000
24115.000000,18782.000000,30878.000000,22265.000000
24097.000000,18766.000000,30839.000000,22232.000000
24090.000000,18756.000000,30806.000000,22203.000000
24085.000000,18757.000000,30789.000000,22188.000000
24069.000000,18754.000000,30768.000000,22159.000000
24052.000000,18742.000000,30737.000000,22104.000000
24043.000000,18734.000000,30714.000000,22062.000000
24032.000000,18730.000000,30703.000000,22047.000000
24011.000000,18719.000000,30683.000000,22023.000000
23995.000000,18699.000000,30650.000000,21982.000000
23992.000000,18689.000000,30626.000000,21951.000000
23989.000000,18689.000000,30614.000000,21936.000000
23973.000000,18683.000000,30594.000000,21913.000000
23959.000000,18669.000000,30563.000000,21878.000000
23959.000000,18663.000000,30543.000000,21861.000000
23955.000000,18662.000000,30532.000000,21865.000000
23939.000000,18654.000000,30515.000000,21860.000000
23931.000000,18643.000000,30492.000000,21849.000000
23937.000000,18644.000000,30487.000000,21856.000000
23941.000000,18655.000000,30495.000000,21872.000000
23934.000000,18659.000000,30497.000000,21871.000000
23934.000000,18658.000000,30493.000000,21855.000000
23947.000000,18666.000000,30502.000000,21853.000000
23955.000000,18678.000000,30520.000000,21865.000000
23957.000000,18680.000000,30528.000000,21865.000000
23968.000000,18678.000000,30531.000000,21866.000000
23988.000000,18690.000000,30549.000000,21894.000000
24001.000000,18709.000000,30577.000000,21933.000000
24007.000000,18719.000000,30595.000000,21950.000000
24024.000000,18725.000000,30611.000000,21958.000000
24052.000000,18740.000000,30642.000000,21989.000000
24067.000000,18754.000000,30672.000000,22024.000000
24070.000000,18756.000000,30681.000000,22037.000000
24080.000000,18757.000000,30682.000000,22049.000000
24100.000000,18768.000000,30697.000000,22084.000000
24116.000000,18784.000000,30718.000000,22116.000000
24127.000000,18792.000000,30727.000000,22118.000000
24140.000000,18798.000000,30732.000000,22112.000000
24152.000000,18807.000000,30745.000000,22121.000000
24148.000000,18809.000000,30751.000000,22128.000000
24132.000000,18795.000000,30735.000000,22113.000000
24121.000000,18779.000000,30716.000000,22099.000000
24111.000000,18773.000000,30711.000000,22109.000000
24092.000000,18766.000000,30707.000000,22114.000000
24071.000000,18753.000000,30694.000000,22093.000000
24057.000000,18741.000000,30682.000000,22068.000000
24041.000000,18735.000000,30681.000000,22051.000000
24012.000000,18721.000000,30668.000000,22020.000000
23980.000000,18696.000000,30636.000000,21971.000000
23962.000000,18679.000000,30606.000000,21938.000000
23944.000000,18670.000000,30584.000000,21926.000000
23910.000000,18652.000000,30551.000000,21896.000000
23874.000000,18624.000000,30506.000000,21843.000000
23851.000000,18604.000000,30470.000000,21799.000000
23827.000000,18596.000000,30445.000000,21771.000000
23792.000000,18582.000000,30410.000000,21735.000000
23759.000000,18558.000000,30362.000000,21689.000000
23738.000000,18541.000000,30323.000000,21657.000000
23715.000000,18530.000000,30294.000000,21635.000000
23684.000000,18511.000000,30257.000000,21595.000000
23661.000000,18487.000000,30212.000000,21540.000000
23650.000000,18474.000000,30180.000000,21495.000000
23635.000000,18468.000000,30161.000000,21461.000000
23607.000000,18453.000000,30132.000000,21410.000000
23581.000000,18428.000000,30095.000000,21352.000000
23561.000000,18409.000000,30066.000000,21317.000000
23533.000000,18392.000000,30038.000000,21297.000000
23497.000000,18365.000000,29996.000000,21262.000000
23472.000000,18340.000000,29952.000000,21220.000000
23457.000000,18331.000000,29925.000000,21196.000000
23434.000000,18324.000000,29901.000000,21173.000000
23397.000000,18302.000000,29858.000000,21124.000000
23363.000000,18270.000000,29802.000000,21071.000000
23337.000000,18248.000000,29758.000000,21045.000000
23305.000000,18232.000000,29720.000000,21031.000000
23268.000000,18210.000000,29672.000000,20999.000000
23242.000000,18188.000000,29625.000000,20959.000000
23223.000000,18178.000000,29591.000000,20934.000000
23191.000000,18166.000000,29557.000000,20908.000000
23153.000000,18140.000000,29505.000000,20859.000000
23124.000000,18114.000000,29454.000000,20807.000000
23102.000000,18100.000000,29423.000000,20777.000000
23075.000000,18088.000000,29400.000000,20739.000000
23051.000000,18069.000000,29369.000000,20672.000000
23036.000000,18051.000000,29340.000000,20615.000000
23022.000000,18043.000000,29324.000000,20590.000000
23001.000000,18034.000000,29303.000000,20567.000000
22982.000000,18015.000000,29269.000000,20531.000000
22973.000000,18000.000000,29241.000000,20506.000000
22962.000000,17994.000000,29226.000000,20501.000000
22938.000000,17985.000000,29204.000000,20480.000000
22916.000000,17969.000000,29171.000000,20433.000000
22904.000000,17956.000000,29142.000000,20397.000000
22887.000000,17945.000000,29121.000000,20383.000000
22853.000000,17926.000000,29089.000000,20362.000000
22822.000000,17901.000000,29048.000000,20325.000000
22806.000000,17888.000000,29018.000000,20300.000000
22792.000000,17884.000000,29000.000000,20289.000000
22769.000000,17874.000000,28974.000000,20264.000000
22751.000000,17857.000000,28940.000000,20219.000000
22740.000000,17848.000000,28917.000000,20187.000000
22725.000000,17848.000000,28904.000000,20172.000000
22701.000000,17840.000000,28882.000000,20150.000000
22683.000000,17827.000000,28853.000000,20121.000000
22680.000000,17824.000000,28838.000000,20111.000000
22674.000000,17826.000000,28830.000000,20109.000000
22655.000000,17818.000000,28807.000000,20080.000000
22638.000000,17803.000000,28777.000000,20034.000000
22628.000000,17793.000000,28755.000000,20007.000000
22612.000000,17784.000000,28735.000000,19996.000000
22584.000000,17765.000000,28700.000000,19969.000000
22563.000000,17743.000000,28662.000000,19933.000000
22554.000000,17735.000000,28641.000000,19915.000000
22540.000000,17730.000000,28625.000000,19899.000000
22514.000000,17714.000000,28595.000000,19860.000000
22491.000000,17694.000000,28559.000000,19816.000000
22477.000000,17683.000000,28537.000000,19800.000000
22462.000000,17677.000000,28522.000000,19797.000000
22443.000000,17666.000000,28497.000000,19776.000000
22434.000000,17656.000000,28474.000000,19749.000000
22435.000000,17659.000000,28466.000000,19741.000000
22423.000000,17661.000000,28456.000000,19733.000000
22402.000000,17649.000000,28430.000000,19704.000000
22391.000000,17635.000000,28399.000000,19676.000000
22386.000000,17630.000000,28380.000000,19669.000000
22370.000000,17624.000000,28361.000000,19655.000000
22346.000000,17610.000000,28330.000000,19619.000000
22324.000000,17600.000000,28303.000000,19588.000000
22301.000000,17600.000000,28289.000000,19571.000000
22269.000000,17595.000000,28269.000000,19546.000000
22241.000000,17578.000000,28236.000000,19511.000000
22233.000000,17569.000000,28214.000000,19494.000000
22239.000000,17575.000000,28217.000000,19510.000000
22247.000000,17583.000000,28231.000000,19527.000000
22272.000000,17596.000000,28256.000000,19533.000000
22326.000000,17631.000000,28311.000000,19565.000000
22397.000000,17688.000000,28400.000000,19636.000000
22476.000000,17747.000000,28504.000000,19725.000000
22579.000000,17811.000000,28620.000000,19832.000000
22712.000000,17894.000000,28771.000000,19983.000000
22857.000000,17995.000000,28954.000000,20171.000000
23002.000000,18097.000000,29147.000000,20364.000000
23157.000000,18196.000000,29341.000000,20557.000000
23326.000000,18303.000000,29550.000000,20772.000000
23493.000000,18419.000000,29771.000000,21006.000000
23652.000000,18526.000000,29986.000000,21225.000000
23815.000000,18630.000000,30194.000000,21435.000000
23980.000000,18743.000000,30415.000000,21663.000000
24135.000000,18859.000000,30643.000000,21895.000000
24274.000000,18962.000000,30856.000000,22097.000000
24412.000000,19054.000000,31054.000000,22286.000000
24550.000000,19148.000000,31254.000000,22495.000000
24672.000000,19236.000000,31445.000000,22706.000000
24776.000000,19309.000000,31611.000000,22881.000000
24880.000000,19377.000000,31761.000000,23030.000000
24983.000000,19453.000000,31913.000000,23181.000000
25067.000000,19520.000000,32052.000000,23315.000000
25130.000000,19565.000000,32156.000000,23409.000000
25189.000000,19598.000000,32236.000000,23489.000000
25248.000000,19634.000000,32312.000000,23578.000000
25292.000000,19664.000000,32376.000000,23655.000000
25323.000000,19682.000000,32417.000000,23695.000000
25351.000000,19698.000000,32448.000000,23717.000000
25377.000000,19722.000000,32484.000000,23743.000000
25385.000000,19738.000000,32510.000000,23759.000000
25382.000000,19734.000000,32511.000000,23751.000000
25382.000000,19726.000000,32502.000000,23744.000000
25383.000000,19727.000000,32499.000000,23761.000000
25373.000000,19722.000000,32490.000000,23769.000000
25358.000000,19705.000000,32468.000000,23743.000000
25348.000000,19690.000000,32448.000000,23715.000000
25335.000000,19682.000000,32441.000000,23702.000000
25311.000000,19669.000000,32426.000000,23680.000000
25289.000000,19644.000000,32396.000000,23647.000000
25280.000000,19628.000000,32373.000000,23632.000000
25274.000000,19626.000000,32363.000000,23638.000000
25254.000000,19620.000000,32347.000000,23627.000000
25233.000000,19607.000000,32320.000000,23590.000000
25228.000000,19602.000000,32302.000000,23569.000000
25224.000000,19608.000000,32294.000000,23569.000000
25208.000000,19608.000000,32275.000000,23555.000000
25196.000000,19602.000000,32248.000000,23524.000000
25198.000000,19603.000000,32235.000000,23507.000000
25199.000000,19608.000000,32234.000000,23505.000000
25189.000000,19604.000000,32224.000000,23490.000000
25180.000000,19591.000000,32204.000000,23464.000000
25179.000000,19583.000000,32191.000000,23456.000000
25173.000000,19579.000000,32182.000000,23460.000000
25158.000000,19567.000000,32161.000000,23449.000000
25151.000000,19553.000000,32138.000000,23428.000000
25153.000000,19551.000000,32132.000000,23423.000000
25147.000000,19551.000000,32133.000000,23418.000000
25129.000000,19538.000000,32119.000000,23389.000000
25114.000000,19519.000000,32095.000000,23359.000000
25107.000000,19512.000000,32081.000000,23359.000000
25095.000000,19511.000000,32074.000000,23367.000000
25076.000000,19501.000000,32059.000000,23347.000000
25067.000000,19493.000000,32045.000000,23315.000000
25070.000000,19500.000000,32048.000000,23305.000000
25067.000000,19511.000000,32055.000000,23310.000000
25058.000000,19512.000000,32051.000000,23304.000000
25059.000000,19510.000000,32049.000000,23305.000000
25071.000000,19517.000000,32065.000000,23334.000000
25078.000000,19525.000000,32085.000000,23361.000000
25079.000000,19526.000000,32092.000000,23359.000000
25086.000000,19528.000000,32099.000000,23357.000000
25096.000000,19539.000000,32116.000000,23379.000000
25095.000000,19547.000000,32130.000000,23402.000000
25089.000000,19544.000000,32131.000000,23404.000000
25096.000000,19544.000000,32138.000000,23406.000000
25113.000000,19557.000000,32164.000000,23429.000000
25122.000000,19564.000000,32183.000000,23442.000000
25125.000000,19558.000000,32188.000000,23433.000000
25135.000000,19553.000000,32195.000000,23436.000000
25142.000000,19555.000000,32207.000000,23470.000000
25134.000000,19551.000000,32208.000000,23496.000000
25128.000000,19542.000000,32197.000000,23494.000000
25133.000000,19545.000000,32198.000000,23491.000000
25135.000000,19558.000000,32212.000000,23495.000000
25121.000000,19559.000000,32218.000000,23487.000000
25102.000000,19544.000000,32208.000000,23468.000000
25092.000000,19533.000000,32204.000000,23469.000000
25080.000000,19527.000000,32207.000000,23487.000000
25057.000000,19511.000000,32200.000000,23486.000000
25034.000000,19486.000000,32179.000000,23462.000000
25020.000000,19469.000000,32164.000000,23447.000000
25005.000000,19459.000000,32156.000000,23444.000000
24982.000000,19441.000000,32133.000000,23423.000000
24963.000000,19420.000000,32095.000000,23387.000000
24950.000000,19409.000000,32065.000000,23361.000000
24927.000000,19400.000000,32039.000000,23342.000000
24888.000000,19378.000000,31998.000000,23303.000000
24850.000000,19347.000000,31948.000000,23256.000000
24822.000000,19324.000000,31909.000000,23230.000000
24792.000000,19308.000000,31874.000000,23205.000000
24754.000000,19284.000000,31827.000000,23148.000000
24720.000000,19259.000000,31775.000000,23074.000000
24693.000000,19242.000000,31734.000000,23017.000000
24654.000000,19225.000000,31694.000000,22974.000000
24604.000000,19194.000000,31640.000000,22918.000000
24561.000000,19160.000000,31582.000000,22862.000000
24529.000000,19139.000000,31540.000000,22827.000000
24495.000000,19121.000000,31503.000000,22788.000000
24457.000000,19094.000000,31452.000000,22723.000000
24428.000000,19066.000000,31400.000000,22658.000000
24404.000000,19047.000000,31362.000000,22617.000000
24369.000000,19026.000000,31322.000000,22584.000000
24328.000000,18992.000000,31264.000000,22536.000000
24299.000000,18961.000000,31209.000000,22490.000000
24275.000000,18946.000000,31174.000000,22461.000000
24242.000000,18932.000000,31145.000000,22427.000000
24208.000000,18909.000000,31105.000000,22373.000000
24186.000000,18890.000000,31069.000000,22334.000000
24165.000000,18878.000000,31042.000000,22324.000000
24130.000000,18860.000000,31007.000000,22306.000000
24092.000000,18835.000000,30962.000000,22267.000000
24071.000000,18817.000000,30931.000000,22232.000000
24057.000000,18805.000000,30915.000000,22202.000000
24029.000000,18783.000000,30888.000000,22154.000000
23998.000000,18751.000000,30842.000000,22092.000000
23981.000000,18727.000000,30800.000000,22049.000000
23962.000000,18713.000000,30768.000000,22031.000000
23930.000000,18692.000000,30730.000000,22002.000000
23900.000000,18665.000000,30683.000000,21959.000000
23883.000000,18648.000000,30650.000000,21933.000000
23866.000000,18644.000000,30632.000000,21923.000000
23838.000000,18634.000000,30603.000000,21895.000000
23811.000000,18613.000000,30560.000000,21849.000000
23794.000000,18599.000000,30526.000000,21814.000000
23773.000000,18590.000000,30500.000000,21789.000000
23741.000000,18572.000000,30463.000000,21749.000000
23713.000000,18549.000000,30419.000000,21699.000000
23693.000000,18533.000000,30386.000000,21668.000000
23668.000000,18521.000000,30359.000000,21646.000000
23634.000000,18499.000000,30318.000000,21602.000000
23608.000000,18475.000000,30271.000000,21554.000000
23591.000000,18462.000000,30242.000000,21532.000000
23570.000000,18454.000000,30222.000000,21517.000000
23545.000000,18439.000000,30195.000000,21477.000000
23531.000000,18424.000000,30166.000000,21429.000000
23523.000000,18419.000000,30149.000000,21406.000000
23502.000000,18411.000000,30133.000000,21397.000000
23470.000000,18390.000000,30103.000000,21373.000000
23452.000000,18369.000000,30069.000000,21347.000000
23444.000000,18363.000000,30049.000000,21339.000000
23426.000000,18361.000000,30029.000000,21325.000000
23399.000000,18350.000000,29998.000000,21282.000000
23377.000000,18336.000000,29965.000000,21243.000000
23356.000000,18327.000000,29940.000000,21230.000000
23325.000000,18315.000000,29909.000000,21218.000000
23292.000000,18290.000000,29860.000000,21183.000000
23270.000000,18266.000000,29814.000000,21146.000000
23252.000000,18253.000000,29788.000000,21118.000000
23223.000000,18238.000000,29763.000000,21080.000000
23191.000000,18213.000000,29727.000000,21024.000000
23170.000000,18192.000000,29695.000000,20980.000000
23152.000000,18180.000000,29674.000000,20963.000000
23122.000000,18162.000000,29645.000000,20938.000000
23094.000000,18135.000000,29606.000000,20891.000000
23080.000000,18117.000000,29579.000000,20859.000000
23063.000000,18110.000000,29567.000000,20850.000000
23030.000000,18096.000000,29546.000000,20832.000000
23000.000000,18073.000000,29510.000000,20799.000000
22986.000000,18059.000000,29480.000000,20776.000000
22972.000000,18053.000000,29461.000000,20763.000000
22945.000000,18039.000000,29430.000000,20733.000000
22921.000000,18019.000000,29389.000000,20691.000000
22908.000000,18005.000000,29359.000000,20664.000000
22889.000000,17995.000000,29339.000000,20655.000000
22858.000000,17977.000000,29309.000000,20631.000000
22833.000000,17955.000000,29270.000000,20595.000000
22822.000000,17946.000000,29242.000000,20574.000000
22809.000000,17947.000000,29227.000000,20564.000000
22792.000000,17944.000000,29208.000000,20533.000000
22790.000000,17942.000000,29193.000000,20496.000000
22808.000000,17952.000000,29202.000000,20495.000000
22834.000000,17974.000000,29231.000000,20527.000000
22868.000000,17998.000000,29268.000000,20564.000000
22928.000000,18034.000000,29330.000000,20617.000000
23017.000000,18098.000000,29433.000000,20715.000000
23113.000000,18179.000000,29565.000000,20845.000000
23212.000000,18260.000000,29703.000000,20982.000000
23328.000000,18346.000000,29856.000000,21143.000000
23467.000000,18449.000000,30040.000000,21353.000000
23614.000000,18559.000000,30246.000000,21581.000000
23765.000000,18665.000000,30454.000000,21796.000000
23931.000000,18774.000000,30673.000000,22008.000000
24106.000000,18894.000000,30914.000000,22239.000000
24270.000000,19012.000000,31157.000000,22478.000000
24425.000000,19116.000000,31382.000000,22704.000000
24589.000000,19220.000000,31603.000000,22923.000000
24757.000000,19332.000000,31833.000000,23155.000000
24908.000000,19439.000000,32056.000000,23370.000000
25046.000000,19530.000000,32258.000000,23552.000000
25182.000000,19614.000000,32453.000000,23734.000000
25305.000000,19699.000000,32643.000000,23926.000000
25406.000000,19772.000000,32807.000000,24095.000000
25498.000000,19826.000000,32941.000000,24230.000000
25590.000000,19878.000000,33067.000000,24358.000000
25672.000000,19933.000000,33192.000000,24481.000000
25730.000000,19972.000000,33290.000000,24576.000000
25775.000000,19994.000000,33358.000000,24643.000000
25821.000000,20016.000000,33422.000000,24708.000000
25857.000000,20042.000000,33485.000000,24777.000000
25875.000000,20061.000000,33527.000000,24822.000000
25890.000000,20070.000000,33545.000000,24839.000000
25911.000000,20081.000000,33560.000000,24859.000000
25919.000000,20089.000000,33572.000000,24886.000000
25907.000000,20083.000000,33563.000000,24893.000000
25896.000000,20067.000000,33539.000000,24881.000000
25893.000000,20055.000000,33523.000000,24878.000000
25884.000000,20050.000000,33515.000000,24881.000000
25863.000000,20038.000000,33496.000000,24860.000000
25847.000000,20022.000000,33469.000000,24821.000000
25841.000000,20011.000000,33452.000000,24799.000000
25829.000000,20003.000000,33439.000000,24788.000000
25805.000000,19983.000000,33410.000000,24757.000000
25788.000000,19962.000000,33377.000000,24717.000000
25782.000000,19953.000000,33358.000000,24697.000000
25767.000000,19947.000000,33346.000000,24681.000000
25738.000000,19931.000000,33317.000000,24641.000000
25713.000000,19913.000000,33284.000000,24599.000000
25699.000000,19910.000000,33269.000000,24592.000000
25679.000000,19911.000000,33261.000000,24600.000000
25653.000000,19900.000000,33238.000000,24585.000000
25641.000000,19886.000000,33213.000000,24558.000000
25642.000000,19885.000000,33202.000000,24547.000000
25635.000000,19884.000000,33193.000000,24538.000000
25621.000000,19868.000000,33171.000000,24511.000000
25613.000000,19851.000000,33149.000000,24487.000000
25608.000000,19843.000000,33141.000000,24486.000000
25592.000000,19834.000000,33133.000000,24479.000000
25572.000000,19817.000000,33111.000000,24450.000000
25558.000000,19801.000000,33089.000000,24425.000000
25542.000000,19793.000000,33078.000000,24415.000000
25513.000000,19784.000000,33063.000000,24399.000000
25482.000000,19767.000000,33032.000000,24367.000000
25466.000000,19760.000000,33007.000000,24347.000000
25457.000000,19764.000000,32999.000000,24349.000000
25442.000000,19763.000000,32989.000000,24338.000000
25435.000000,19754.000000,32975.000000,24306.000000
25447.000000,19751.000000,32970.000000,24288.000000
25455.000000,19754.000000,32975.000000,24295.000000
25449.000000,19752.000000,32971.000000,24298.000000
25448.000000,19742.000000,32957.000000,24292.000000
25461.000000,19741.000000,32955.000000,24301.000000
25471.000000,19750.000000,32967.000000,24323.000000
25465.000000,19753.000000,32972.000000,24330.000000
25459.000000,19749.000000,32969.000000,24318.000000
25466.000000,19752.000000,32976.000000,24320.000000
25470.000000,19762.000000,32993.000000,24342.000000
25464.000000,19763.000000,33001.000000,24356.000000
25468.000000,19758.000000,33003.000000,24362.000000
25488.000000,19765.000000,33018.000000,24379.000000
25502.000000,19778.000000,33041.000000,24403.000000
25503.000000,19779.000000,33053.000000,24408.000000
25508.000000,19771.000000,33055.000000,24406.000000
25519.000000,19768.000000,33066.000000,24428.000000
25519.000000,19765.000000,33078.000000,24456.000000
25506.000000,19752.000000,33075.000000,24456.000000
25499.000000,19741.000000,33069.000000,24435.000000
25504.000000,19744.000000,33078.000000,24430.000000
25500.000000,19748.000000,33089.000000,24433.000000
25481.000000,19737.000000,33080.000000,24413.000000
25466.000000,19723.000000,33064.000000,24389.000000
25460.000000,19722.000000,33061.000000,24388.000000
25444.000000,19725.000000,33056.000000,24385.000000
25416.000000,19712.000000,33028.000000,24346.000000
25388.000000,19693.000000,32990.000000,24302.000000
25360.000000,19680.000000,32962.000000,24285.000000
25320.000000,19663.000000,32933.000000,24275.000000
25273.000000,19629.000000,32885.000000,24243.000000
25236.000000,19595.000000,32836.000000,24196.000000
25207.000000,19575.000000,32802.000000,24154.000000
25168.000000,19556.000000,32766.000000,24107.000000
25125.000000,19525.000000,32718.000000,24044.000000
25092.000000,19492.000000,32667.000000,23991.000000
25058.000000,19465.000000,32623.000000,23961.000000
25015.000000,19434.000000,32574.000000,23922.000000
24978.000000,19398.000000,32516.000000,23862.000000
24952.000000,19371.000000,32464.000000,23812.000000
24921.000000,19351.000000,32423.000000,23781.000000
24873.000000,19322.000000,32372.000000,23740.000000
24820.000000,19282.000000,32306.000000,23683.000000
24780.000000,19251.000000,32247.000000,23636.000000
24742.000000,19231.000000,32197.000000,23606.000000
24696.000000,19206.000000,32140.000000,23562.000000
24659.000000,19174.000000,32075.000000,23496.000000
24636.000000,19147.000000,32019.000000,23440.000000
24606.000000,19125.000000,31971.000000,23401.000000
24561.000000,19095.000000,31914.000000,23354.000000
24523.000000,19061.000000,31851.000000,23300.000000
24498.000000,19035.000000,31802.000000,23266.000000
24466.000000,19018.000000,31768.000000,23241.000000
24422.000000,18994.000000,31730.000000,23194.000000
24383.000000,18964.000000,31686.000000,23130.000000
24354.000000,18937.000000,31650.000000,23085.000000
24322.000000,18913.000000,31620.000000,23057.000000
24280.000000,18882.000000,31575.000000,23015.000000
24243.000000,18849.000000,31524.000000,22967.000000
24217.000000,18830.000000,31486.000000,22936.000000
24184.000000,18817.000000,31453.000000,22905.000000
24141.000000,18793.000000,31408.000000,22844.000000
24102.000000,18764.000000,31359.000000,22773.000000
24071.000000,18743.000000,31325.000000,22729.000000
24032.000000,18721.000000,31293.000000,22704.000000
23987.000000,18689.000000,31248.000000,22665.000000
23959.000000,18660.000000,31204.000000,22620.000000
23944.000000,18646.000000,31178.000000,22593.000000
23920.000000,18636.000000,31155.000000,22564.000000
23888.000000,18617.000000,31117.000000,22513.000000
23860.000000,18598.000000,31076.000000,22467.000000
23838.000000,18589.000000,31048.000000,22449.000000
23812.000000,18582.000000,31024.000000,22431.000000
23783.000000,18567.000000,30985.000000,22391.000000
23761.000000,18551.000000,30944.000000,22349.000000
23740.000000,18538.000000,30914.000000,22321.000000
23705.000000,18521.000000,30878.000000,22289.000000
23663.000000,18493.000000,30826.000000,22240.000000
23634.000000,18471.000000,30781.000000,22201.000000
23610.000000,18462.000000,30754.000000,22184.000000
23579.000000,18450.000000,30725.000000,22156.000000
23553.000000,18431.000000,30684.000000,22107.000000
23540.000000,18417.000000,30649.000000,22069.000000
23522.000000,18406.000000,30623.000000,22051.000000
23493.000000,18386.000000,30586.000000,22027.000000
23475.000000,18361.000000,30540.000000,21991.000000
23473.000000,18345.000000,30506.000000,21965.000000
23464.000000,18340.000000,30488.000000,21952.000000
23437.000000,18329.000000,30465.000000,21925.000000
23413.000000,18311.000000,30434.000000,21888.000000
23402.000000,18299.000000,30411.000000,21870.000000
23387.000000,18291.000000,30393.000000,21865.000000
23357.000000,18274.000000,30361.000000,21840.000000
23328.000000,18252.000000,30319.000000,21794.000000
23304.000000,18238.000000,30286.000000,21758.000000
23273.000000,18228.000000,30259.000000,21734.000000
23230.000000,18207.000000,30220.000000,21697.000000
23193.000000,18181.000000,30175.000000,21652.000000
23166.000000,18165.000000,30145.000000,21625.000000
23139.000000,18155.000000,30126.000000,21602.000000
23104.000000,18133.000000,30097.000000,21558.000000
23073.000000,18106.000000,30059.000000,21510.000000
23050.000000,18085.000000,30031.000000,21488.000000
23021.000000,18067.000000,30007.000000,21473.000000
22988.000000,18041.000000,29967.000000,21430.000000
22968.000000,18016.000000,29923.000000,21373.000000
22957.000000,18006.000000,29895.000000,21335.000000
22934.000000,17998.000000,29870.000000,21305.000000
22896.000000,17977.000000,29829.000000,21261.000000
22866.000000,17951.000000,29784.000000,21222.000000
22846.000000,17933.000000,29752.000000,21206.000000
22824.000000,17918.000000,29725.000000,21190.000000
22802.000000,17898.000000,29688.000000,21154.000000
22790.000000,17881.000000,29653.000000,21122.000000
22785.000000,17874.000000,29636.000000,21112.000000
22777.000000,17869.000000,29626.000000,21108.000000
22776.000000,17862.000000,29615.000000,21093.000000
22797.000000,17868.000000,29622.000000,21094.000000
22832.000000,17895.000000,29663.000000,21129.000000
22869.000000,17928.000000,29721.000000,21176.000000
22921.000000,17965.000000,29791.000000,21230.000000
23003.000000,18019.000000,29890.000000,21325.000000
23105.000000,18094.000000,30024.000000,21474.000000
23216.000000,18179.000000,30177.000000,21637.000000
23348.000000,18272.000000,30344.000000,21799.000000
23508.000000,18385.000000,30542.000000,21992.000000
23677.000000,18513.000000,30765.000000,22214.000000
23831.000000,18634.000000,30984.000000,22431.000000
23982.000000,18741.000000,31190.000000,22639.000000
24146.000000,18849.000000,31405.000000,22864.000000
24309.000000,18960.000000,31631.000000,23103.000000
24455.000000,19058.000000,31847.000000,23315.000000
24594.000000,19143.000000,32047.000000,23499.000000
24731.000000,19231.000000,32248.000000,23686.000000
24855.000000,19323.000000,32447.000000,23877.000000
24961.000000,19402.000000,32624.000000,24045.000000
25064.000000,19471.000000,32777.000000,24200.000000
25167.000000,19543.000000,32928.000000,24365.000000
25254.000000,19614.000000,33071.000000,24521.000000
25322.000000,19668.000000,33186.000000,24635.000000
25381.000000,19705.000000,33275.000000,24722.000000
25433.000000,19737.000000,33358.000000,24819.000000
25468.000000,19763.000000,33429.000000,24913.000000
25487.000000,19772.000000,33476.000000,24971.000000
25507.000000,19775.000000,33510.000000,25002.000000
25529.000000,19787.000000,33549.000000,25035.000000
25533.000000,19797.000000,33579.000000,25061.000000
25520.000000,19791.000000,33585.000000,25058.000000
25509.000000,19778.000000,33578.000000,25051.000000
25502.000000,19772.000000,33574.000000,25069.000000
25486.000000,19770.000000,33568.000000,25087.000000
25465.000000,19758.000000,33546.000000,25078.000000
25451.000000,19746.000000,33521.000000,25051.000000
25441.000000,19741.000000,33507.000000,25026.000000
25417.000000,19732.000000,33488.000000,24993.000000
25383.000000,19706.000000,33450.000000,24934.000000
25357.000000,19678.000000,33406.000000,24882.000000
25335.000000,19660.000000,33368.000000,24858.000000
25304.000000,19642.000000,33329.000000,24831.000000
25272.000000,19619.000000,33283.000000,24785.000000
25250.000000,19603.000000,33245.000000,24740.000000
25230.000000,19598.000000,33222.000000,24711.000000
25198.000000,19586.000000,33192.000000,24681.000000
25167.000000,19562.000000,33150.000000,24643.000000
25151.000000,19542.000000,33117.000000,24621.000000
25138.000000,19531.000000,33099.000000,24621.000000
25114.000000,19514.000000,33077.000000,24605.000000
25093.000000,19492.000000,33048.000000,24567.000000
25085.000000,19481.000000,33028.000000,24538.000000
25074.000000,19478.000000,33018.000000,24522.000000
25048.000000,19465.000000,32996.000000,24492.000000
25025.000000,19443.000000,32960.000000,24449.000000
25014.000000,19428.000000,32934.000000,24423.000000
25003.000000,19421.000000,32919.000000,24417.000000
24981.000000,19403.000000,32897.000000,24397.000000
24959.000000,19377.000000,32866.000000,24359.000000
24944.000000,19360.000000,32841.000000,24331.000000
24920.000000,19350.000000,32823.000000,24315.000000
24884.000000,19331.000000,32791.000000,24283.000000
24856.000000,19309.000000,32751.000000,24243.000000
24844.000000,19300.000000,32730.000000,24227.000000
24834.000000,19301.000000,32728.000000,24227.000000
24823.000000,19295.000000,32723.000000,24207.000000
24820.000000,19288.000000,32713.000000,24180.000000
24827.000000,19291.000000,32717.000000,24183.000000
24826.000000,19294.000000,32722.000000,24204.000000
24815.000000,19285.000000,32710.000000,24204.000000
24815.000000,19276.000000,32697.000000,24201.000000
24828.000000,19282.000000,32703.000000,24222.000000
24833.000000,19294.000000,32717.000000,24244.000000
24828.000000,19294.000000,32719.000000,24242.000000
24828.000000,19292.000000,32722.000000,24243.000000
24836.000000,19301.000000,32740.000000,24270.000000
24841.000000,19314.000000,32761.000000,24303.000000
24846.000000,19320.000000,32768.000000,24313.000000
24861.000000,19326.000000,32777.000000,24314.000000
24882.000000,19342.000000,32801.000000,24327.000000
24889.000000,19356.000000,32822.000000,24344.000000
24887.000000,19356.000000,32827.000000,24343.000000
24891.000000,19357.000000,32831.000000,24344.000000
24895.000000,19364.000000,32842.000000,24361.000000
24886.000000,19364.000000,32844.000000,24367.000000
24871.000000,19352.000000,32830.000000,24343.000000
24862.000000,19341.000000,32817.000000,24323.000000
24848.000000,19330.000000,32809.000000,24322.000000
24821.000000,19310.000000,32789.000000,24310.000000
24798.000000,19282.000000,32755.000000,24275.000000
24788.000000,19261.000000,32733.000000,24250.000000
24776.000000,19250.000000,32723.000000,24242.000000
24747.000000,19231.000000,32699.000000,24221.000000
24715.000000,19202.000000,32657.000000,24175.000000
24692.000000,19179.000000,32620.000000,24138.000000
24663.000000,19163.000000,32591.000000,24121.000000
24620.000000,19139.000000,32551.000000,24089.000000
24579.000000,19108.000000,32500.000000,24034.000000
24547.000000,19084.000000,32455.000000,23988.000000
24509.000000,19067.000000,32418.000000,23957.000000
24460.000000,19040.000000,32370.000000,23914.000000
24415.000000,19007.000000,32312.000000,23861.000000
24382.000000,18982.000000,32263.000000,23827.000000
24346.000000,18964.000000,32220.000000,23805.000000
24299.000000,18938.000000,32167.000000,23762.000000
24253.000000,18904.000000,32107.000000,23699.000000
24214.000000,18879.000000,32061.000000,23649.000000
24170.000000,18858.000000,32021.000000,23605.000000
24119.000000,18826.000000,31968.000000,23544.000000
24076.000000,18787.000000,31909.000000,23480.000000
24045.000000,18759.000000,31866.000000,23442.000000
24013.000000,18735.000000,31832.000000,23409.000000
23973.000000,18703.000000,31786.000000,23354.000000
23940.000000,18672.000000,31736.000000,23292.000000
23914.000000,18655.000000,31702.000000,23254.000000
23883.000000,18641.000000,31671.000000,23226.000000
23849.000000,18617.000000,31621.000000,23185.000000
23827.000000,18594.000000,31569.000000,23143.000000
23811.000000,18585.000000,31533.000000,23120.000000
23784.000000,18575.000000,31501.000000,23090.000000
23751.000000,18553.000000,31453.000000,23030.000000
23723.000000,18528.000000,31400.000000,22970.000000
23696.000000,18509.000000,31358.000000,22930.000000
23660.000000,18490.000000,31315.000000,22892.000000
23622.000000,18463.000000,31261.000000,22841.000000
23596.000000,18440.000000,31214.000000,22800.000000
23574.000000,18428.000000,31186.000000,22779.000000
23541.000000,18412.000000,31154.000000,22749.000000
23506.000000,18388.000000,31114.000000,22698.000000
23484.000000,18368.000000,31083.000000,22661.000000
23460.000000,18354.000000,31062.000000,22649.000000
23425.000000,18334.000000,31033.000000,22628.000000
23397.000000,18307.000000,30993.000000,22589.000000
23385.000000,18292.000000,30961.000000,22556.000000
23374.000000,18287.000000,30942.000000,22533.000000
23350.000000,18276.000000,30914.000000,22492.000000
23327.000000,18255.000000,30873.000000,22429.000000
23314.000000,18239.000000,30840.000000,22382.000000
23298.000000,18231.000000,30818.000000,22359.000000
23274.000000,18217.000000,30789.000000,22332.000000
23259.000000,18199.000000,30752.000000,22296.000000
23257.000000,18190.000000,30729.000000,22272.000000
23248.000000,18186.000000,30716.000000,22257.000000
23223.000000,18173.000000,30693.000000,22224.000000
23197.000000,18156.000000,30660.000000,22183.000000
23179.000000,18145.000000,30635.000000,22167.000000
23159.000000,18136.000000,30615.000000,22167.000000
23135.000000,18119.000000,30585.000000,22149.000000
23118.000000,18100.000000,30552.000000,22117.000000
23109.000000,18094.000000,30535.000000,22098.000000
23092.000000,18092.000000,30524.000000,22081.000000
23066.000000,18080.000000,30495.000000,22040.000000
23045.000000,18063.000000,30457.000000,21996.000000
23031.000000,18053.000000,30428.000000,21981.000000
23011.000000,18043.000000,30402.000000,21975.000000
22986.000000,18021.000000,30365.000000,21948.000000
22972.000000,18002.000000,30331.000000,21913.000000
22966.000000,18000.000000,30315.000000,21896.000000
22947.000000,17998.000000,30299.000000,21878.000000
22917.000000,17983.000000,30268.000000,21833.000000
22893.000000,17963.000000,30231.000000,21791.000000
22875.000000,17952.000000,30205.000000,21773.000000
22850.000000,17940.000000,30181.000000,21751.000000
22823.000000,17918.000000,30145.000000,21709.000000
22803.000000,17899.000000,30112.000000,21666.000000
22782.000000,17890.000000,30097.000000,21638.000000
22748.000000,17879.000000,30082.000000,21605.000000
22716.000000,17862.000000,30053.000000,21564.000000
22705.000000,17853.000000,30028.000000,21549.000000
22708.000000,17859.000000,30018.000000,21566.000000
22716.000000,17869.000000,30017.000000,21578.000000
22743.000000,17882.000000,30027.000000,21580.000000
22800.000000,17914.000000,30069.000000,21616.000000
22869.000000,17965.000000,30147.000000,21696.000000
22938.000000,18021.000000,30239.000000,21791.000000
23022.000000,18078.000000,30342.000000,21899.000000
23136.000000,18155.000000,30476.000000,22047.000000
23265.000000,18252.000000,30646.000000,22233.000000
23400.000000,18354.000000,30830.000000,22421.000000
23551.000000,18457.000000,31026.000000,22603.000000
23721.000000,18570.000000,31247.000000,22807.000000
23892.000000,18691.000000,31483.000000,23030.000000
24054.000000,18805.000000,31709.000000,23242.000000
24215.000000,18912.000000,31925.000000,23443.000000
24380.000000,19024.000000,32148.000000,23662.000000
24536.000000,19140.000000,32373.000000,23889.000000
24677.000000,19246.000000,32578.000000,24087.000000
24814.000000,19342.000000,32767.000000,24261.000000
24948.000000,19442.000000,32956.000000,24445.000000
25063.000000,19535.000000,33138.000000,24633.000000
25157.000000,19606.000000,33288.000000,24792.000000
25249.000000,19663.000000,33416.000000,24932.000000
25343.000000,19725.000000,33546.000000,25080.000000
25424.000000,19783.000000,33668.000000,25213.000000
25484.000000,19821.000000,33757.000000,25300.000000
25538.000000,19848.000000,33828.000000,25362.000000
25587.000000,19878.000000,33900.000000,25429.000000
25618.000000,19904.000000,33960.000000,25488.000000
25634.000000,19915.000000,33992.000000,25516.000000
25652.000000,19922.000000,34012.000000,25525.000000
25669.000000,19938.000000,34038.000000,25544.000000
25666.000000,19945.000000,34055.000000,25557.000000
25646.000000,19933.000000,34042.000000,25539.000000
25631.000000,19916.000000,34017.000000,25515.000000
25620.000000,19904.000000,34000.000000,25511.000000
25600.000000,19892.000000,33982.000000,25497.000000
25579.000000,19871.000000,33948.000000,25459.000000
25561.000000,19849.000000,33913.000000,25425.000000
25538.000000,19835.000000,33887.000000,25409.000000
25500.000000,19817.000000,33854.000000,25384.000000
25461.000000,19787.000000,33805.000000,25342.000000
25438.000000,19762.000000,33763.000000,25311.000000
25421.000000,19747.000000,33738.000000,25299.000000
25393.000000,19729.000000,33708.000000,25274.000000
25368.000000,19706.000000,33668.000000,25229.000000
25358.000000,19692.000000,33636.000000,25202.000000
25345.000000,19684.000000,33616.000000,25199.000000
25320.000000,19669.000000,33588.000000,25180.000000
25300.000000,19650.000000,33552.000000,25139.000000
25296.000000,19640.000000,33527.000000,25109.000000
25291.000000,19640.000000,33515.000000,25093.000000
25274.000000,19631.000000,33494.000000,25061.000000
25257.000000,19616.000000,33462.000000,25016.000000
25250.000000,19610.000000,33437.000000,24991.000000
25240.000000,19613.000000,33423.000000,24983.000000
25217.000000,19608.000000,33402.000000,24964.000000
25199.000000,19593.000000,33374.000000,24932.000000
25189.000000,19580.000000,33356.000000,24915.000000
25171.000000,19568.000000,33343.000000,24911.000000
25142.000000,19547.000000,33321.000000,24890.000000
25123.000000,19526.000000,33295.000000,24864.000000
25117.000000,19522.000000,33284.000000,24858.000000
25109.000000,19527.000000,33282.000000,24854.000000
25096.000000,19523.000000,33268.000000,24825.000000
25092.000000,19512.000000,33249.000000,24797.000000
25100.000000,19510.000000,33246.000000,24807.000000
25104.000000,19512.000000,33252.000000,24830.000000
25107.000000,19509.000000,33250.000000,24829.000000
25125.000000,19511.000000,33252.000000,24819.000000
25155.000000,19528.000000,33270.000000,24832.000000
25173.000000,19545.000000,33288.000000,24854.000000
25175.000000,19550.000000,33290.000000,24854.000000
25183.000000,19558.000000,33293.000000,24854.000000
25199.000000,19578.000000,33314.000000,24880.000000
25207.000000,19597.000000,33337.000000,24907.000000
25208.000000,19600.000000,33347.000000,24910.000000
25216.000000,19601.000000,33357.000000,24914.000000
25226.000000,19611.000000,33380.000000,24938.000000
25226.000000,19617.000000,33400.000000,24956.000000
25223.000000,19611.000000,33403.000000,24958.000000
25232.000000,19609.000000,33409.000000,24964.000000
25245.000000,19621.000000,33428.000000,24979.000000
25246.000000,19629.000000,33441.000000,24978.000000
25243.000000,19624.000000,33441.000000,24958.000000
25251.000000,19624.000000,33446.000000,24952.000000
25255.000000,19631.000000,33459.000000,24967.000000
25243.000000,19631.000000,33457.000000,24969.000000
25232.000000,19622.000000,33438.000000,24950.000000
25233.000000,19620.000000,33422.000000,24938.000000
25228.000000,19624.000000,33417.000000,24935.000000
25206.000000,19616.000000,33400.000000,24917.000000
25182.000000,19598.000000,33367.000000,24885.000000
25167.000000,19585.000000,33338.000000,24867.000000
25145.000000,19576.000000,33312.000000,24862.000000
25109.000000,19556.000000,33275.000000,24836.000000
25077.000000,19529.000000,33230.000000,24788.000000
25053.000000,19510.000000,33194.000000,24748.000000
25021.000000,19497.000000,33161.000000,24719.000000
24979.000000,19475.000000,33114.000000,24675.000000
24943.000000,19449.000000,33058.000000,24619.000000
24917.000000,19430.000000,33014.000000,24574.000000
24882.000000,19412.000000,32977.000000,24528.000000
24832.000000,19377.000000,32925.000000,24457.000000
24781.000000,19335.000000,32865.000000,24385.000000
24738.000000,19304.000000,32821.000000,24344.000000
24693.000000,19280.000000,32784.000000,24320.000000
24643.000000,19246.000000,32733.000000,24273.000000
24605.000000,19214.000000,32682.000000,24209.000000
24577.000000,19198.000000,32647.000000,24159.000000
24539.000000,19182.000000,32613.000000,24112.000000
24490.000000,19149.000000,32558.000000,24048.000000
24452.000000,19113.000000,32500.000000,23989.000000
24426.000000,19089.000000,32457.000000,23957.000000
24392.000000,19068.000000,32420.000000,23921.000000
24352.000000,19039.000000,32367.000000,23859.000000
24317.000000,19009.000000,32310.000000,23794.000000
24286.000000,18988.000000,32263.000000,23751.000000
24249.000000,18967.000000,32217.000000,23713.000000
24214.000000,18939.000000,32160.000000,23666.000000
24190.000000,18914.000000,32110.000000,23627.000000
24167.000000,18901.000000,32075.000000,23600.000000
24129.000000,18884.000000,32038.000000,23563.000000
24085.000000,18858.000000,31991.000000,23507.000000
24054.000000,18839.000000,31949.000000,23465.000000
24028.000000,18830.000000,31919.000000,23448.000000
23995.000000,18815.000000,31882.000000,23416.000000
23969.000000,18793.000000,31835.000000,23354.000000
23955.000000,18775.000000,31796.000000,23301.000000
23936.000000,18763.000000,31770.000000,23273.000000
23901.000000,18742.000000,31740.000000,23241.000000
23868.000000,18712.000000,31699.000000,23193.000000
23850.000000,18691.000000,31668.000000,23159.000000
23835.000000,18683.000000,31650.000000,23144.000000
23811.000000,18668.000000,31622.000000,23117.000000
23791.000000,18644.000000,31580.000000,23075.000000
23780.000000,18626.000000,31545.000000,23048.000000
23761.000000,18616.000000,31521.000000,23039.000000
23730.000000,18599.000000,31487.000000,23017.000000
23704.000000,18578.000000,31448.000000,22981.000000
23686.000000,18568.000000,31421.000000,22953.000000
23662.000000,18564.000000,31405.000000,22926.000000
23631.000000,18550.000000,31376.000000,22879.000000
23607.000000,18530.000000,31335.000000,22831.000000
23594.000000,18519.000000,31302.000000,22810.000000
23576.000000,18513.000000,31275.000000,22793.000000
23549.000000,18497.000000,31241.000000,22748.000000
23531.000000,18476.000000,31205.000000,22699.000000
23520.000000,18465.000000,31184.000000,22686.000000
23501.000000,18457.000000,31164.000000,22688.000000
23474.000000,18439.000000,31130.000000,22667.000000
23457.000000,18421.000000,31092.000000,22634.000000
23450.000000,18415.000000,31072.000000,22621.000000
23434.000000,18411.000000,31054.000000,22614.000000
23409.000000,18396.000000,31019.000000,22587.000000
23394.000000,18380.000000,30984.000000,22549.000000
23385.000000,18375.000000,30964.000000,22526.000000
23364.000000,18369.000000,30946.000000,22498.000000
23336.000000,18351.000000,30915.000000,22448.000000
23317.000000,18333.000000,30884.000000,22406.000000
23301.000000,18327.000000,30866.000000,22394.000000
23281.000000,18323.000000,30850.000000,22380.000000
23264.000000,18311.000000,30824.000000,22342.000000
23253.000000,18299.000000,30799.000000,22306.000000
23235.000000,18290.000000,30782.000000,22287.000000
23206.000000,18275.000000,30758.000000,22258.000000
23177.000000,18251.000000,30717.000000,22214.000000
23161.000000,18233.000000,30679.000000,22182.000000
23144.000000,18226.000000,30655.000000,22169.000000
23112.000000,18212.000000,30622.000000,22143.000000
23079.000000,18188.000000,30573.000000,22097.000000
23060.000000,18171.000000,30534.000000,22063.000000
23044.000000,18161.000000,30508.000000,22050.000000
23020.000000,18146.000000,30479.000000,22028.000000
23000.000000,18128.000000,30448.000000,21994.000000
22999.000000,18125.000000,30439.000000,21979.000000
23006.000000,18135.000000,30454.000000,21986.000000
23018.000000,18147.000000,30474.000000,21992.000000
23051.000000,18167.000000,30505.000000,22003.000000
23113.000000,18210.000000,30572.000000,22051.000000
23189.000000,18273.000000,30674.000000,22132.000000
23274.000000,18341.000000,30792.000000,22223.000000
23382.000000,18414.000000,30924.000000,22332.000000
23515.000000,18505.000000,31088.000000,22492.000000
23657.000000,18608.000000,31279.000000,22690.000000
23802.000000,18709.000000,31477.000000,22890.000000
23964.000000,18814.000000,31686.000000,23093.000000
24141.000000,18935.000000,31916.000000,23325.000000
24310.000000,19057.000000,32155.000000,23572.000000
24466.000000,19165.000000,32379.000000,23800.000000
24625.000000,19270.000000,32597.000000,24027.000000
24790.000000,19386.000000,32831.000000,24279.000000
24943.000000,19503.000000,33064.000000,24524.000000
25077.000000,19604.000000,33271.000000,24726.000000
25205.000000,19694.000000,33462.000000,24909.000000
25333.000000,19788.000000,33654.000000,25101.000000
25451.000000,19880.000000,33836.000000,25286.000000
25554.000000,19956.000000,33993.000000,25439.000000
25654.000000,20021.000000,34134.000000,25574.000000
25744.000000,20087.000000,34276.000000,25713.000000
25813.000000,20143.000000,34401.000000,25841.000000
25867.000000,20181.000000,34496.000000,25942.000000
25925.000000,20216.000000,34578.000000,26035.000000
25977.000000,20257.000000,34660.000000,26133.000000
26010.000000,20288.000000,34726.000000,26205.000000
26033.000000,20304.000000,34769.000000,26236.000000
26059.000000,20318.000000,34805.000000,26266.000000
26081.000000,20333.000000,34837.000000,26313.000000
26088.000000,20336.000000,34850.000000,26344.000000
26093.000000,20328.000000,34844.000000,26345.000000
26104.000000,20325.000000,34841.000000,26348.000000
26108.000000,20331.000000,34845.000000,26363.000000
26092.000000,20327.000000,34833.000000,26360.000000
26071.000000,20306.000000,34801.000000,26335.000000
26062.000000,20289.000000,34777.000000,26314.000000
26055.000000,20280.000000,34766.000000,26300.000000
26034.000000,20264.000000,34746.000000,26270.000000
26014.000000,20241.000000,34716.000000,26225.000000
26002.000000,20228.000000,34694.000000,26197.000000
25985.000000,20222.000000,34679.000000,26187.000000
25962.000000,20209.000000,34656.000000,26166.000000
25952.000000,20196.000000,34631.000000,26137.000000
25954.000000,20194.000000,34623.000000,26131.000000
25951.000000,20198.000000,34626.000000,26146.000000
25937.000000,20192.000000,34616.000000,26150.000000
25931.000000,20185.000000,34601.000000,26144.000000
25938.000000,20193.000000,34601.000000,26154.000000
25942.000000,20206.000000,34610.000000,26167.000000
25934.000000,20207.000000,34604.000000,26150.000000
25929.000000,20202.000000,34590.000000,26123.000000
25929.000000,20204.000000,34588.000000,26122.000000
25919.000000,20205.000000,34588.000000,26129.000000
25899.000000,20191.000000,34573.000000,26109.000000
25887.000000,20176.000000,34551.000000,26075.000000
25880.000000,20175.000000,34540.000000,26058.000000
25862.000000,20175.000000,34528.000000,26049.000000
25836.000000,20162.000000,34499.000000,26021.000000
25820.000000,20148.000000,34469.000000,25990.000000
25814.000000,20146.000000,34455.000000,25981.000000
25800.000000,20147.000000,34445.000000,25970.000000
25782.000000,20138.000000,34421.000000,25933.000000
25772.000000,20126.000000,34397.000000,25904.000000
25765.000000,20122.000000,34389.000000,25902.000000
25754.000000,20118.000000,34386.000000,25901.000000
25745.000000,20109.000000,34379.000000,25882.000000
25748.000000,20106.000000,34382.000000,25869.000000
25754.000000,20114.000000,34401.000000,25876.000000
25750.000000,20119.000000,34413.000000,25874.000000
25747.000000,20113.000000,34411.000000,25854.000000
25759.000000,20113.000000,34414.000000,25852.000000
25773.000000,20122.000000,34427.000000,25880.000000
25775.000000,20125.000000,34433.000000,25898.000000
25783.000000,20125.000000,34431.000000,25893.000000
25807.000000,20134.000000,34441.000000,25904.000000
25826.000000,20149.000000,34464.000000,25937.000000
25827.000000,20156.000000,34479.000000,25959.000000
25827.000000,20154.000000,34483.000000,25962.000000
25839.000000,20161.000000,34497.000000,25977.000000
25850.000000,20176.000000,34518.000000,26008.000000
25850.000000,20181.000000,34528.000000,26019.000000
25848.000000,20177.000000,34524.000000,26005.000000
25851.000000,20177.000000,34524.000000,25998.000000
25847.000000,20181.000000,34530.000000,26001.000000
25826.000000,20173.000000,34518.000000,25988.000000
25805.000000,20154.000000,34490.000000,25963.000000
25792.000000,20141.000000,34469.000000,25956.000000
25773.000000,20133.000000,34457.000000,25958.000000
25742.000000,20116.000000,34436.000000,25937.000000
25713.000000,20093.000000,34408.000000,25902.000000
25688.000000,20075.000000,34385.000000,25883.000000
25655.000000,20058.000000,34360.000000,25870.000000
25617.000000,20030.000000,34317.000000,25830.000000
25590.000000,20003.000000,34271.000000,25778.000000
25570.000000,19987.000000,34244.000000,25744.000000
25537.000000,19972.000000,34221.000000,25713.000000
25492.000000,19943.000000,34177.000000,25657.000000
25452.000000,19907.000000,34122.000000,25603.000000
25420.000000,19880.000000,34075.000000,25577.000000
25382.000000,19856.000000,34030.000000,25550.000000
25339.000000,19824.000000,33971.000000,25495.000000
25304.000000,19794.000000,33911.000000,25436.000000
25276.000000,19779.000000,33869.000000,25397.000000
25239.000000,19762.000000,33828.000000,25361.000000
25196.000000,19732.000000,33771.000000,25306.000000
25161.000000,19705.000000,33715.000000,25252.000000
25128.000000,19689.000000,33675.000000,25218.000000
25086.000000,19672.000000,33634.000000,25177.000000
25046.000000,19648.000000,33588.000000,25113.000000
25016.000000,19627.000000,33550.000000,25061.000000
24985.000000,19612.000000,33522.000000,25036.000000
24945.000000,19593.000000,33483.000000,25001.000000
24909.000000,19564.000000,33426.000000,24947.000000
24886.000000,19542.000000,33378.000000,24908.000000
24864.000000,19531.000000,33346.000000,24885.000000
24827.000000,19515.000000,33308.000000,24846.000000
24791.000000,19489.000000,33258.000000,24790.000000
24767.000000,19468.000000,33217.000000,24753.000000
24741.000000,19453.000000,33187.000000,24737.000000
24701.000000,19432.000000,33148.000000,24703.000000
24667.000000,19406.000000,33099.000000,24645.000000
24648.000000,19389.000000,33058.000000,24598.000000
24628.000000,19380.000000,33026.000000,24566.000000
24598.000000,19363.000000,32987.000000,24518.000000
24571.000000,19339.000000,32939.000000,24458.000000
24555.000000,19321.000000,32899.000000,24422.000000
24535.000000,19308.000000,32867.000000,24408.000000
24507.000000,19288.000000,32828.000000,24379.000000
24482.000000,19269.000000,32786.000000,24339.000000
24467.000000,19265.000000,32761.000000,24314.000000
24448.000000,19266.000000,32743.000000,24294.000000
24420.000000,19252.000000,32712.000000,24249.000000
24394.000000,19229.000000,32673.000000,24198.000000
24373.000000,19213.000000,32646.000000,24174.000000
24342.000000,19196.000000,32620.000000,24166.000000
24301.000000,19168.000000,32582.000000,24138.000000
24272.000000,19143.000000,32547.000000,24098.000000
24256.000000,19135.000000,32530.000000,24073.000000
24232.000000,19129.000000,32514.000000,24043.000000
24196.000000,19110.000000,32477.000000,23986.000000
24165.000000,19084.000000,32431.000000,23930.000000
24142.000000,19066.000000,32397.000000,23903.000000
24115.000000,19051.000000,32369.000000,23878.000000
24085.000000,19030.000000,32329.000000,23831.000000
24064.000000,19011.000000,32288.000000,23785.000000
24046.000000,19000.000000,32263.000000,23757.000000
24019.000000,18986.000000,32237.000000,23727.000000
23991.000000,18960.000000,32192.000000,23680.000000
23978.000000,18940.000000,32150.000000,23642.000000
23969.000000,18933.000000,32126.000000,23626.000000
23947.000000,18924.000000,32102.000000,23606.000000
23920.000000,18908.000000,32068.000000,23569.000000
23903.000000,18898.000000,32040.000000,23544.000000
23885.000000,18895.000000,32023.000000,23539.000000
23854.000000,18884.000000,31997.000000,23513.000000
23825.000000,18865.000000,31958.000000,23458.000000
23808.000000,18854.000000,31928.000000,23414.000000
23785.000000,18850.000000,31906.000000,23389.000000
23749.000000,18836.000000,31875.000000,23354.000000
23714.000000,18812.000000,31832.000000,23309.000000
23694.000000,18792.000000,31797.000000,23274.000000
23679.000000,18778.000000,31775.000000,23249.000000
23652.000000,18755.000000,31746.000000,23209.000000
23625.000000,18725.000000,31708.000000,23160.000000
23607.000000,18706.000000,31678.000000,23131.000000
23588.000000,18697.000000,31660.000000,23121.000000
23560.000000,18682.000000,31632.000000,23099.000000
23538.000000,18662.000000,31595.000000,23065.000000
23527.000000,18651.000000,31565.000000,23042.000000
23512.000000,18644.000000,31540.000000,23021.000000
23488.000000,18629.000000,31504.000000,22978.000000
23468.000000,18610.000000,31458.000000,22929.000000
23456.000000,18600.000000,31422.000000,22902.000000
23435.000000,18592.000000,31390.000000,22883.000000
23401.000000,18570.000000,31346.000000,22837.000000
23372.000000,18545.000000,31301.000000,22778.000000
23347.000000,18531.000000,31275.000000,22748.000000
23313.000000,18520.000000,31257.000000,22737.000000
23280.000000,18505.000000,31233.000000,22718.000000
23272.000000,18496.000000,31216.000000,22709.000000
23288.000000,18507.000000,31228.000000,22731.000000
23315.000000,18532.000000,31264.000000,22761.000000
23356.000000,18560.000000,31314.000000,22784.000000
23424.000000,18601.000000,31390.000000,22831.000000
23515.000000,18668.000000,31505.000000,22932.000000
23618.000000,18750.000000,31648.000000,23068.000000
23735.000000,18835.000000,31803.000000,23219.000000
23877.000000,18930.000000,31984.000000,23395.000000
24036.000000,19046.000000,32203.000000,23609.000000
24197.000000,19168.000000,32436.000000,23834.000000
24364.000000,19284.000000,32666.000000,24049.000000
24543.000000,19404.000000,32906.000000,24281.000000
24719.000000,19530.000000,33158.000000,24542.000000
24879.000000,19649.000000,33404.000000,24790.000000
25037.000000,19756.000000,33633.000000,25013.000000
25200.000000,19865.000000,33864.000000,25240.000000
25355.000000,19981.000000,34098.000000,25478.000000
25486.000000,20088.000000,34314.000000,25697.000000
25609.000000,20179.000000,34503.000000,25890.000000
25740.000000,20271.000000,34684.000000,26080.000000
25861.000000,20364.000000,34861.000000,26272.000000
25960.000000,20443.000000,35014.000000,26436.000000
26051.000000,20507.000000,35141.000000,26567.000000
26144.000000,20570.000000,35263.000000,26692.000000
26221.000000,20630.000000,35381.000000,26810.000000
26273.000000,20671.000000,35473.000000,26894.000000
26316.000000,20695.000000,35537.000000,26956.000000
26361.000000,20721.000000,35595.000000,27030.000000
26398.000000,20746.000000,35648.000000,27105.000000
26421.000000,20758.000000,35681.000000,27145.000000
26439.000000,20760.000000,35699.000000,27157.000000
26451.000000,20762.000000,35716.000000,27176.000000
26443.000000,20760.000000,35727.000000,27195.000000
26422.000000,20747.000000,35718.000000,27191.000000
26412.000000,20731.000000,35702.000000,27183.000000
26416.000000,20728.000000,35698.000000,27194.000000
26413.000000,20728.000000,35701.000000,27201.000000
26394.000000,20716.000000,35688.000000,27178.000000
26373.000000,20698.000000,35665.000000,27146.000000
26358.000000,20688.000000,35652.000000,27132.000000
26334.000000,20678.000000,35642.000000,27121.000000
26301.000000,20658.000000,35618.000000,27087.000000
26282.000000,20641.000000,35595.000000,27048.000000
26275.000000,20637.000000,35586.000000,27030.000000
26261.000000,20631.000000,35577.000000,27015.000000
26244.000000,20614.000000,35553.000000,26980.000000
26238.000000,20595.000000,35531.000000,26954.000000
26234.000000,20589.000000,35523.000000,26958.000000
26222.000000,20589.000000,35517.000000,26961.000000
26211.000000,20586.000000,35499.000000,26947.000000
26212.000000,20586.000000,35482.000000,26937.000000
26215.000000,20596.000000,35476.000000,26941.000000
26202.000000,20599.000000,35462.000000,26937.000000
26182.000000,20587.000000,35432.000000,26916.000000
26173.000000,20579.000000,35408.000000,26909.000000
26168.000000,20580.000000,35399.000000,26922.000000
26151.000000,20575.000000,35384.000000,26914.000000
26135.000000,20561.000000,35359.000000,26873.000000
26129.000000,20551.000000,35340.000000,26840.000000
26119.000000,20547.000000,35328.000000,26826.000000
26093.000000,20534.000000,35306.000000,26803.000000
26069.000000,20510.000000,35270.000000,26768.000000
26056.000000,20495.000000,35242.000000,26749.000000
26044.000000,20493.000000,35233.000000,26743.000000
26024.000000,20487.000000,35222.000000,26724.000000
26008.000000,20474.000000,35205.000000,26692.000000
26005.000000,20469.000000,35199.000000,26680.000000
26002.000000,20471.000000,35202.000000,26687.000000
25992.000000,20466.000000,35195.000000,26683.000000
25987.000000,20459.000000,35181.000000,26674.000000
25993.000000,20464.000000,35185.000000,26682.000000
25994.000000,20478.000000,35203.000000,26695.000000
25989.000000,20482.000000,35214.000000,26685.000000
25989.000000,20482.000000,35219.000000,26671.000000
25994.000000,20491.000000,35236.000000,26686.000000
25990.000000,20502.000000,35256.000000,26716.000000
25979.000000,20502.000000,35262.000000,26726.000000
25979.000000,20502.000000,35264.000000,26729.000000
25993.000000,20515.000000,35280.000000,26752.000000
26001.000000,20531.000000,35300.000000,26777.000000
25994.000000,20529.000000,35301.000000,26773.000000
25988.000000,20520.000000,35289.000000,26763.000000
25988.000000,20519.000000,35289.000000,26776.000000
25980.000000,20517.000000,35291.000000,26795.000000
25968.000000,20504.000000,35278.000000,26794.000000
25965.000000,20492.000000,35264.000000,26783.000000
25964.000000,20490.000000,35263.000000,26781.000000
25946.000000,20485.000000,35257.000000,26765.000000
25918.000000,20466.000000,35235.000000,26718.000000
25894.000000,20443.000000,35207.000000,26671.000000
25867.000000,20426.000000,35185.000000,26639.000000
25826.000000,20407.000000,35154.000000,26600.000000
25782.000000,20375.000000,35103.000000,26549.000000
25747.000000,20347.000000,35054.000000,26506.000000
25714.000000,20331.000000,35022.000000,26481.000000
25671.000000,20310.000000,34986.000000,26443.000000
25630.000000,20281.000000,34942.000000,26380.000000
25600.000000,20254.000000,34906.000000,26328.000000
25568.000000,20233.000000,34879.000000,26302.000000
25521.000000,20205.000000,34837.000000,26268.000000
25472.000000,20166.000000,34778.000000,26218.000000
25435.000000,20134.000000,34725.000000,26178.000000
25396.000000,20111.000000,34683.000000,26147.000000
25344.000000,20082.000000,34631.000000,26095.000000
25292.000000,20046.000000,34566.000000,26023.000000
25251.000000,20015.000000,34508.000000,25967.000000
25208.000000,19990.000000,34460.000000,25930.000000
25154.000000,19957.000000,34403.000000,25879.000000
25106.000000,19920.000000,34335.000000,25815.000000
25072.000000,19891.000000,34276.000000,25769.000000
25040.000000,19870.000000,34229.000000,25738.000000
24999.000000,19842.000000,34173.000000,25686.000000
24962.000000,19807.000000,34110.000000,25618.000000
24934.000000,19779.000000,34058.000000,25565.000000
24895.000000,19755.000000,34014.000000,25522.000000
24847.000000,19722.000000,33960.000000,25461.000000
24810.000000,19688.000000,33903.000000,25399.000000
24784.000000,19669.000000,33863.000000,25359.000000
24750.000000,19654.000000,33831.000000,25321.000000
24708.000000,19630.000000,33785.000000,25261.000000
24677.000000,19607.000000,33736.000000,25202.000000
24654.000000,19597.000000,33703.000000,25169.000000
24621.000000,19589.000000,33675.000000,25146.000000
24584.000000,19567.000000,33631.000000,25104.000000
24556.000000,19545.000000,33586.000000,25055.000000
24533.000000,19533.000000,33558.000000,25024.000000
24501.000000,19519.000000,33532.000000,24986.000000
24463.000000,19490.000000,33490.000000,24920.000000
24428.000000,19455.000000,33439.000000,24857.000000
24394.000000,19426.000000,33397.000000,24822.000000
24352.000000,19400.000000,33354.000000,24789.000000
24306.000000,19370.000000,33298.000000,24741.000000
24272.000000,19347.000000,33249.000000,24702.000000
24244.000000,19340.000000,33215.000000,24679.000000
24208.000000,19331.000000,33178.000000,24644.000000
24176.000000,19312.000000,33131.000000,24586.000000
24157.000000,19295.000000,33088.000000,24538.000000
24135.000000,19281.000000,33055.000000,24509.000000
24104.000000,19259.000000,33015.000000,24475.000000
24076.000000,19229.000000,32965.000000,24429.000000
24061.000000,19207.000000,32925.000000,24394.000000
24043.000000,19198.000000,32901.000000,24368.000000
24008.000000,19183.000000,32870.000000,24323.000000
23970.000000,19159.000000,32826.000000,24262.000000
23942.000000,19139.000000,32790.000000,24221.000000
23910.000000,19127.000000,32765.000000,24203.000000
23868.000000,19109.000000,32731.000000,24172.000000
23834.000000,19088.000000,32689.000000,24130.000000
23814.000000,19075.000000,32657.000000,24104.000000
23790.000000,19066.000000,32630.000000,24085.000000
23757.000000,19047.000000,32589.000000,24044.000000
23732.000000,19020.000000,32540.000000,23992.000000
23715.000000,18999.000000,32501.000000,23965.000000
23693.000000,18981.000000,32469.000000,23953.000000
23662.000000,18955.000000,32428.000000,23919.000000
23635.000000,18927.000000,32383.000000,23874.000000
23615.000000,18910.000000,32353.000000,23847.000000
23588.000000,18898.000000,32330.000000,23821.000000
23552.000000,18879.000000,32293.000000,23771.000000
23524.000000,18858.000000,32252.000000,23724.000000
23506.000000,18849.000000,32225.000000,23706.000000
23482.000000,18844.000000,32203.000000,23696.000000
23449.000000,18827.000000,32169.000000,23662.000000
23427.000000,18810.000000,32135.000000,23615.000000
23415.000000,18803.000000,32116.000000,23584.000000
23391.000000,18796.000000,32097.000000,23560.000000
23357.000000,18777.000000,32062.000000,23518.000000
23331.000000,18758.000000,32024.000000,23479.000000
23312.000000,18749.000000,32000.000000,23466.000000
23287.000000,18740.000000,31975.000000,23449.000000
23260.000000,18718.000000,31935.000000,23407.000000
23238.000000,18693.000000,31897.000000,23365.000000
23215.000000,18680.000000,31875.000000,23338.000000
23179.000000,18664.000000,31847.000000,23306.000000
23139.000000,18635.000000,31801.000000,23259.000000
23112.000000,18611.000000,31758.000000,23222.000000
23090.000000,18598.000000,31728.000000,23205.000000
23060.000000,18582.000000,31691.000000,23173.000000
23033.000000,18561.000000,31646.000000,23119.000000
23017.000000,18549.000000,31613.000000,23083.000000
22999.000000,18546.000000,31595.000000,23074.000000
22973.000000,18541.000000,31578.000000,23061.000000
22958.000000,18533.000000,31559.000000,23043.000000
22972.000000,18539.000000,31564.000000,23050.000000
23005.000000,18566.000000,31597.000000,23085.000000
23043.000000,18599.000000,31643.000000,23123.000000
23100.000000,18637.000000,31703.000000,23167.000000
23186.000000,18696.000000,31798.000000,23255.000000
23287.000000,18774.000000,31929.000000,23387.000000
23391.000000,18853.000000,32073.000000,23531.000000
23513.000000,18937.000000,32231.000000,23683.000000
23659.000000,19039.000000,32423.000000,23864.000000
23810.000000,19153.000000,32645.000000,24068.000000
23962.000000,19263.000000,32872.000000,24268.000000
24124.000000,19373.000000,33101.000000,24474.000000
24294.000000,19495.000000,33341.000000,24715.000000
24455.000000,19624.000000,33586.000000,24972.000000
24609.000000,19741.000000,33816.000000,25204.000000
24770.000000,19851.000000,34037.000000,25416.000000
24929.000000,19964.000000,34261.000000,25639.000000
25064.000000,20070.000000,34476.000000,25861.000000
25178.000000,20153.000000,34661.000000,26050.000000
25294.000000,20223.000000,34825.000000,26219.000000
25410.000000,20295.000000,34988.000000,26396.000000
25507.000000,20363.000000,35143.000000,26554.000000
25587.000000,20416.000000,35271.000000,26665.000000
25660.000000,20462.000000,35380.000000,26763.000000
25724.000000,20510.000000,35485.000000,26880.000000
25765.000000,20550.000000,35574.000000,26991.000000
25792.000000,20570.000000,35632.000000,27067.000000
25822.000000,20585.000000,35676.000000,27120.000000
25847.000000,20608.000000,35723.000000,27174.000000
25853.000000,20623.000000,35759.000000,27210.000000
25850.000000,20623.000000,35773.000000,27215.000000
25851.000000,20623.000000,35777.000000,27216.000000
25846.000000,20629.000000,35782.000000,27232.000000
25827.000000,20627.000000,35773.000000,27232.000000
25808.000000,20612.000000,35747.000000,27207.000000
25799.000000,20599.000000,35722.000000,27187.000000
25787.000000,20593.000000,35706.000000,27175.000000
25756.000000,20575.000000,35675.000000,27148.000000
25719.000000,20542.000000,35623.000000,27107.000000
25695.000000,20514.000000,35579.000000,27082.000000
25672.000000,20496.000000,35551.000000,27074.000000
25641.000000,20475.000000,35518.000000,27052.000000
25618.000000,20448.000000,35477.000000,27009.000000
25609.000000,20431.000000,35449.000000,26977.000000
25597.000000,20423.000000,35434.000000,26961.000000
25573.000000,20408.000000,35414.000000,26933.000000
25553.000000,20387.000000,35386.000000,26893.000000
25544.000000,20378.000000,35367.000000,26868.000000
25533.000000,20380.000000,35359.000000,26852.000000
25511.000000,20375.000000,35340.000000,26815.000000
25493.000000,20363.000000,35313.000000,26767.000000
25478.000000,20356.000000,35296.000000,26743.000000
25453.000000,20350.000000,35282.000000,26733.000000
25418.000000,20332.000000,35254.000000,26708.000000
25391.000000,20312.000000,35221.000000,26680.000000
25375.000000,20304.000000,35203.000000,26671.000000
25354.000000,20300.000000,35189.000000,26659.000000
25323.000000,20283.000000,35156.000000,26616.000000
25297.000000,20258.000000,35117.000000,26571.000000
25279.000000,20242.000000,35095.000000,26558.000000
25258.000000,20229.000000,35080.000000,26557.000000
25236.000000,20208.000000,35054.000000,26532.000000
25232.000000,20189.000000,35029.000000,26498.000000
25238.000000,20187.000000,35019.000000,26486.000000
25233.000000,20190.000000,35012.000000,26484.000000
25220.000000,20184.000000,34991.000000,26466.000000
25216.000000,20179.000000,34971.000000,26453.000000
25218.000000,20186.000000,34968.000000,26467.000000
25213.000000,20196.000000,34972.000000,26478.000000
25208.000000,20198.000000,34970.000000,26466.000000
25212.000000,20199.000000,34970.000000,26454.000000
25216.000000,20208.000000,34984.000000,26458.000000
25207.000000,20210.000000,34994.000000,26457.000000
25194.000000,20195.000000,34992.000000,26439.000000
25193.000000,20183.000000,34997.000000,26436.000000
25198.000000,20186.000000,35017.000000,26461.000000
25194.000000,20189.000000,35033.000000,26478.000000
25194.000000,20187.000000,35037.000000,26471.000000
25209.000000,20192.000000,35049.000000,26477.000000
25221.000000,20205.000000,35072.000000,26505.000000
25213.000000,20209.000000,35085.000000,26525.000000
25203.000000,20205.000000,35082.000000,26530.000000
25206.000000,20208.000000,35084.000000,26545.000000
25209.000000,20220.000000,35096.000000,26569.000000
25195.000000,20225.000000,35096.000000,26571.000000
25176.000000,20217.000000,35079.000000,26552.000000
25164.000000,20212.000000,35066.000000,26543.000000
25145.000000,20208.000000,35058.000000,26547.000000
25113.000000,20191.000000,35035.000000,26535.000000
25084.000000,20164.000000,34999.000000,26507.000000
25066.000000,20141.000000,34972.000000,26489.000000
25044.000000,20126.000000,34953.000000,26473.000000
25012.000000,20103.000000,34922.000000,26429.000000
24983.000000,20076.000000,34882.000000,26370.000000
24957.000000,20058.000000,34852.000000,26331.000000
24921.000000,20044.000000,34823.000000,26306.000000
24878.000000,20020.000000,34775.000000,26263.000000
24842.000000,19991.000000,34724.000000,26210.000000
24812.000000,19969.000000,34688.000000,26173.000000
24771.000000,19949.000000,34656.000000,26137.000000
24718.000000,19915.000000,34606.000000,26077.000000
24670.000000,19876.000000,34549.000000,26017.000000
24630.000000,19848.000000,34502.000000,25984.000000
24584.000000,19823.000000,34457.000000,25957.000000
24534.000000,19790.000000,34401.000000,25909.000000
24497.000000,19761.000000,34346.000000,25852.000000
24469.000000,19745.000000,34307.000000,25812.000000
24429.000000,19726.000000,34265.000000,25774.000000
24384.000000,19695.000000,34204.000000,25714.000000
24351.000000,19667.000000,34138.000000,25657.000000
24322.000000,19652.000000,34086.000000,25624.000000
24286.000000,19638.000000,34037.000000,25584.000000
24253.000000,19614.000000,33978.000000,25520.000000
24232.000000,19590.000000,33924.000000,25458.000000
24206.000000,19571.000000,33881.000000,25409.000000
24163.000000,19546.000000,33833.000000,25354.000000
24118.000000,19511.000000,33775.000000,25290.000000
24089.000000,19485.000000,33728.000000,25244.000000
24065.000000,19469.000000,33698.000000,25223.000000
24031.000000,19450.000000,33665.000000,25192.000000
24002.000000,19429.000000,33622.000000,25145.000000
23984.000000,19417.000000,33587.000000,25115.000000
23957.000000,19408.000000,33559.000000,25102.000000
23915.000000,19390.000000,33519.000000,25073.000000
23876.000000,19366.000000,33468.000000,25025.000000
23853.000000,19350.000000,33426.000000,24983.000000
23831.000000,19345.000000,33394.000000,24953.000000
23801.000000,19332.000000,33354.000000,24905.000000
23775.000000,19310.000000,33308.000000,24841.000000
23759.000000,19292.000000,33273.000000,24794.000000
23740.000000,19277.000000,33247.000000,24766.000000
23710.000000,19253.000000,33211.000000,24725.000000
23684.000000,19227.000000,33170.000000,24671.000000
23667.000000,19213.000000,33142.000000,24630.000000
23645.000000,19206.000000,33120.000000,24598.000000
23616.000000,19189.000000,33085.000000,24549.000000
23592.000000,19165.000000,33042.000000,24501.000000
23577.000000,19152.000000,33016.000000,24480.000000
23558.000000,19145.000000,33000.000000,24469.000000
23534.000000,19129.000000,32972.000000,24433.000000
23518.000000,19107.000000,32937.000000,24382.000000
23507.000000,19093.000000,32915.000000,24351.000000
23484.000000,19082.000000,32894.000000,24333.000000
23450.000000,19062.000000,32858.000000,24301.000000
23426.000000,19046.000000,32818.000000,24268.000000
23413.000000,19045.000000,32796.000000,24258.000000
23396.000000,19047.000000,32781.000000,24247.000000
23375.000000,19038.000000,32755.000000,24210.000000
23359.000000,19027.000000,32725.000000,24173.000000
23344.000000,19022.000000,32708.000000,24162.000000
23319.000000,19017.000000,32689.000000,24151.000000
23290.000000,18998.000000,32654.000000,24118.000000
23274.000000,18978.000000,32618.000000,24083.000000
23262.000000,18968.000000,32596.000000,24064.000000
23241.000000,18957.000000,32569.000000,24038.000000
23219.000000,18939.000000,32528.000000,23988.000000
23209.000000,18925.000000,32491.000000,23949.000000
23198.000000,18918.000000,32466.000000,23937.000000
23174.000000,18906.000000,32435.000000,23915.000000
23153.000000,18887.000000,32397.000000,23869.000000
23148.000000,18879.000000,32371.000000,23838.000000
23142.000000,18882.000000,32363.000000,23832.000000
23124.000000,18880.000000,32355.000000,23821.000000
23112.000000,18873.000000,32344.000000,23802.000000
23128.000000,18882.000000,32352.000000,23811.000000
23160.000000,18911.000000,32387.000000,23849.000000
23196.000000,18945.000000,32432.000000,23885.000000
23249.000000,18981.000000,32491.000000,23925.000000
23330.000000,19037.000000,32585.000000,24007.000000
23426.000000,19112.000000,32712.000000,24133.000000
23527.000000,19191.000000,32849.000000,24274.000000
23646.000000,19272.000000,32999.000000,24426.000000
23789.000000,19371.000000,33182.000000,24614.000000
23943.000000,19485.000000,33399.000000,24831.000000
24095.000000,19596.000000,33621.000000,25042.000000
24257.000000,19707.000000,33845.000000,25252.000000
24427.000000,19829.000000,34086.000000,25490.000000
24589.000000,19952.000000,34332.000000,25745.000000
24740.000000,20059.000000,34561.000000,25979.000000
24895.000000,20157.000000,34781.000000,26199.000000
25050.000000,20266.000000,35007.000000,26427.000000
25190.000000,20377.000000,35229.000000,26645.000000
25311.000000,20470.000000,35422.000000,26826.000000
25428.000000,20550.000000,35596.000000,26994.000000
25545.000000,20633.000000,35770.000000,27175.000000
25647.000000,20710.000000,35933.000000,27344.000000
25733.000000,20767.000000,36069.000000,27473.000000
25816.000000,20815.000000,36189.000000,27582.000000
25893.000000,20869.000000,36308.000000,27695.000000
25947.000000,20914.000000,36412.000000,27799.000000
25983.000000,20938.000000,36483.000000,27873.000000
26020.000000,20957.000000,36534.000000,27933.000000
26056.000000,20983.000000,36582.000000,28003.000000
26077.000000,21004.000000,36619.000000,28054.000000
26089.000000,21013.000000,36636.000000,28068.000000
26099.000000,21018.000000,36643.000000,28076.000000
26101.000000,21024.000000,36652.000000,28094.000000
26088.000000,21020.000000,36647.000000,28095.000000
26070.000000,21004.000000,36621.000000,28071.000000
26063.000000,20990.000000,36596.000000,28051.000000
26058.000000,20987.000000,36577.000000,28045.000000
26039.000000,20975.000000,36546.000000,28019.000000
26013.000000,20951.000000,36501.000000,27970.000000
25994.000000,20933.000000,36464.000000,27936.000000
25972.000000,20923.000000,36441.000000,27922.000000
25939.000000,20908.000000,36414.000000,27891.000000
25912.000000,20888.000000,36379.000000,27840.000000
25901.000000,20877.000000,36351.000000,27804.000000
25889.000000,20872.000000,36333.000000,27782.000000
25866.000000,20858.000000,36308.000000,27745.000000
25843.000000,20835.000000,36272.000000,27701.000000
25834.000000,20824.000000,36249.000000,27679.000000
25827.000000,20826.000000,36242.000000,27675.000000
25810.000000,20825.000000,36229.000000,27655.000000
25792.000000,20816.000000,36206.000000,27624.000000
25777.000000,20811.000000,36192.000000,27608.000000
25751.000000,20807.000000,36182.000000,27601.000000
25718.000000,20793.000000,36155.000000,27580.000000
25695.000000,20774.000000,36120.000000,27555.000000
25685.000000,20765.000000,36097.000000,27545.000000
25671.000000,20759.000000,36082.000000,27531.000000
25648.000000,20742.000000,36055.000000,27488.000000
25631.000000,20721.000000,36022.000000,27436.000000
25617.000000,20710.000000,36003.000000,27411.000000
25594.000000,20701.000000,35984.000000,27400.000000
25565.000000,20683.000000,35953.000000,27374.000000
25551.000000,20669.000000,35923.000000,27343.000000
25547.000000,20671.000000,35911.000000,27335.000000
25539.000000,20674.000000,35902.000000,27328.000000
25527.000000,20663.000000,35879.000000,27297.000000
25521.000000,20650.000000,35857.000000,27271.000000
25521.000000,20649.000000,35851.000000,27274.000000
25514.000000,20652.000000,35850.000000,27279.000000
25504.000000,20649.000000,35841.000000,27267.000000
25503.000000,20649.000000,35838.000000,27257.000000
25504.000000,20662.000000,35853.000000,27266.000000
25497.000000,20672.000000,35868.000000,27276.000000
25493.000000,20672.000000,35869.000000,27270.000000
25501.000000,20677.000000,35874.000000,27275.000000
25512.000000,20691.000000,35894.000000,27308.000000
25514.000000,20702.000000,35911.000000,27330.000000
25519.000000,20707.000000,35919.000000,27324.000000
25535.000000,20714.000000,35934.000000,27324.000000
25546.000000,20723.000000,35955.000000,27338.000000
25541.000000,20721.000000,35964.000000,27341.000000
25536.000000,20708.000000,35957.000000,27335.000000
25545.000000,20705.000000,35956.000000,27345.000000
25553.000000,20712.000000,35967.000000,27369.000000
25544.000000,20712.000000,35968.000000,27376.000000
25530.000000,20701.000000,35953.000000,27361.000000
25522.000000,20695.000000,35939.000000,27352.000000
25507.000000,20696.000000,35930.000000,27353.000000
25479.000000,20688.000000,35906.000000,27339.000000
25455.000000,20670.000000,35869.000000,27312.000000
25446.000000,20659.000000,35842.000000,27294.000000
25433.000000,20655.000000,35825.000000,27275.000000
25408.000000,20640.000000,35797.000000,27232.000000
25382.000000,20615.000000,35756.000000,27180.000000
25358.000000,20593.000000,35723.000000,27151.000000
25322.000000,20573.000000,35693.000000,27129.000000
25275.000000,20543.000000,35646.000000,27077.000000
25233.000000,20510.000000,35592.000000,27008.000000
25197.000000,20488.000000,35549.000000,26961.000000
25152.000000,20467.000000,35506.000000,26929.000000
25102.000000,20435.000000,35449.000000,26878.000000
25065.000000,20404.000000,35390.000000,26819.000000
25040.000000,20385.000000,35346.000000,26779.000000
25008.000000,20366.000000,35298.000000,26739.000000
24964.000000,20334.000000,35231.000000,26672.000000
24925.000000,20298.000000,35163.000000,26606.000000
24894.000000,20275.000000,35114.000000,26567.000000
24858.000000,20254.000000,35068.000000,26530.000000
24816.000000,20223.000000,35007.000000,26469.000000
24776.000000,20188.000000,34943.000000,26403.000000
24735.000000,20162.000000,34893.000000,26357.000000
24683.000000,20136.000000,34840.000000,26314.000000
24629.000000,20099.000000,34770.000000,26254.000000
24587.000000,20067.000000,34705.000000,26194.000000
24551.000000,20044.000000,34661.000000,26145.000000
24507.000000,20015.000000,34616.000000,26080.000000
24463.000000,19974.000000,34561.000000,25990.000000
24427.000000,19939.000000,34510.000000,25915.000000
24386.000000,19913.000000,34467.000000,25868.000000
24336.000000,19885.000000,34417.000000,25816.000000
24293.000000,19856.000000,34356.000000,25756.000000
24265.000000,19838.000000,34306.000000,25714.000000
24234.000000,19829.000000,34273.000000,25691.000000
24187.000000,19810.000000,34231.000000,25655.000000
24140.000000,19782.000000,34176.000000,25599.000000
24107.000000,19761.000000,34128.000000,25558.000000
24071.000000,19744.000000,34090.000000,25536.000000
24025.000000,19718.000000,34043.000000,25498.000000
23986.000000,19687.000000,33989.000000,25440.000000
23961.000000,19664.000000,33946.000000,25396.000000
23932.000000,19647.000000,33911.000000,25363.000000
23893.000000,19623.000000,33866.000000,25310.000000
23861.000000,19597.000000,33815.000000,25251.000000
23843.000000,19583.000000,33781.000000,25222.000000
23827.000000,19575.000000,33760.000000,25208.000000
23803.000000,19556.000000,33731.000000,25177.000000
23780.000000,19531.000000,33698.000000,25140.000000
23759.000000,19513.000000,33672.000000,25122.000000
23728.000000,19499.000000,33643.000000,25106.000000
23689.000000,19476.000000,33596.000000,25064.000000
23660.000000,19451.000000,33548.000000,25010.000000
23639.000000,19435.000000,33518.000000,24973.000000
23607.000000,19420.000000,33491.000000,24933.000000
23563.000000,19392.000000,33447.000000,24865.000000
23530.000000,19365.000000,33401.000000,24801.000000
23510.000000,19353.000000,33369.000000,24770.000000
23487.000000,19345.000000,33337.000000,24745.000000
23459.000000,19327.000000,33292.000000,24701.000000
23436.000000,19307.000000,33243.000000,24649.000000
23414.000000,19296.000000,33205.000000,24612.000000
23378.000000,19280.000000,33165.000000,24577.000000
23337.000000,19250.000000,33111.000000,24526.000000
23309.000000,19225.000000,33062.000000,24478.000000
23285.000000,19217.000000,33028.000000,24457.000000
23253.000000,19211.000000,32996.000000,24433.000000
23223.000000,19197.000000,32959.000000,24387.000000
23205.000000,19185.000000,32929.000000,24353.000000
23187.000000,19177.000000,32910.000000,24343.000000
23158.000000,19162.000000,32880.000000,24323.000000
23132.000000,19136.000000,32836.000000,24282.000000
23119.000000,19116.000000,32800.000000,24252.000000
23104.000000,19108.000000,32779.000000,24239.000000
23074.000000,19095.000000,32752.000000,24207.000000
23043.000000,19075.000000,32713.000000,24146.000000
23021.000000,19061.000000,32679.000000,24095.000000
22990.000000,19051.000000,32647.000000,24063.000000
22946.000000,19033.000000,32606.000000,24021.000000
22910.000000,19008.000000,32557.000000,23965.000000
22891.000000,18994.000000,32519.000000,23925.000000
22871.000000,18988.000000,32492.000000,23904.000000
22842.000000,18973.000000,32457.000000,23870.000000
22826.000000,18955.000000,32417.000000,23827.000000
22832.000000,18951.000000,32398.000000,23806.000000
22845.000000,18959.000000,32399.000000,23807.000000
22859.000000,18969.000000,32406.000000,23809.000000
22893.000000,18987.000000,32427.000000,23824.000000
22952.000000,19030.000000,32486.000000,23881.000000
23022.000000,19091.000000,32577.000000,23966.000000
23094.000000,19152.000000,32681.000000,24057.000000
23187.000000,19219.000000,32806.000000,24174.000000
23308.000000,19305.000000,32972.000000,24348.000000
23441.000000,19400.000000,33168.000000,24559.000000
23584.000000,19495.000000,33374.000000,24764.000000
23754.000000,19601.000000,33599.000000,24974.000000
23943.000000,19729.000000,33854.000000,25222.000000
24126.000000,19864.000000,34120.000000,25485.000000
24296.000000,19985.000000,34372.000000,25730.000000
24468.000000,20101.000000,34618.000000,25972.000000
24643.000000,20224.000000,34872.000000,26235.000000
24810.000000,20350.000000,35125.000000,26494.000000
24968.000000,20464.000000,35359.000000,26723.000000
25127.000000,20573.000000,35586.000000,26937.000000
25280.000000,20685.000000,35816.000000,27153.000000
25410.000000,20786.000000,36031.000000,27353.000000
25518.000000,20864.000000,36215.000000,27511.000000
25623.000000,20935.000000,36380.000000,27655.000000
25720.000000,21008.000000,36535.000000,27812.000000
25797.000000,21069.000000,36664.000000,27948.000000
25864.000000,21113.000000,36765.000000,28044.000000
25932.000000,21154.000000,36858.000000,28138.000000
25986.000000,21198.000000,36952.000000,28238.000000
26013.000000,21228.000000,37026.000000,28310.000000
26028.000000,21240.000000,37070.000000,28352.000000
26049.000000,21250.000000,37105.000000,28398.000000
26065.000000,21265.000000,37138.000000,28456.000000
26066.000000,21270.000000,37149.000000,28489.000000
26067.000000,21267.000000,37142.000000,28490.000000
26079.000000,21268.000000,37143.000000,28491.000000
26087.000000,21275.000000,37149.000000,28498.000000
26076.000000,21271.000000,37139.000000,28488.000000
26064.000000,21256.000000,37114.000000,28468.000000
26062.000000,21248.000000,37095.000000,28466.000000
26056.000000,21247.000000,37084.000000,28476.000000
26040.000000,21240.000000,37063.000000,28467.000000
26026.000000,21223.000000,37033.000000,28436.000000
26017.000000,21210.000000,37011.000000,28414.000000
26000.000000,21199.000000,36996.000000,28396.000000
25975.000000,21179.000000,36969.000000,28358.000000
25954.000000,21159.000000,36938.000000,28315.000000
25944.000000,21152.000000,36922.000000,28297.000000
25933.000000,21152.000000,36915.000000,28289.000000
25919.000000,21141.000000,36898.000000,28262.000000
25911.000000,21129.000000,36881.000000,28231.000000
25910.000000,21128.000000,36880.000000,28228.000000
25898.000000,21126.000000,36882.000000,28236.000000
25875.000000,21113.000000,36867.000000,28226.000000
25859.000000,21102.000000,36846.000000,28213.000000
25853.000000,21106.000000,36839.000000,28219.000000
25841.000000,21113.000000,36835.000000,28221.000000
25822.000000,21107.000000,36818.000000,28195.000000
25808.000000,21097.000000,36796.000000,28165.000000
25796.000000,21095.000000,36783.000000,28159.000000
25776.000000,21090.000000,36763.000000,28154.000000
25751.000000,21071.000000,36724.000000,28127.000000
25736.000000,21053.000000,36686.000000,28092.000000
25726.000000,21044.000000,36662.000000,28066.000000
25709.000000,21036.000000,36641.000000,28030.000000
25694.000000,21024.000000,36615.000000,27971.000000
25687.000000,21017.000000,36596.000000,27927.000000
25674.000000,21015.000000,36586.000000,27913.000000
25650.000000,21007.000000,36568.000000,27903.000000
25633.000000,20989.000000,36540.000000,27885.000000
25632.000000,20977.000000,36524.000000,27880.000000
25634.000000,20978.000000,36523.000000,27889.000000
25621.000000,20977.000000,36520.000000,27886.000000
25608.000000,20972.000000,36507.000000,27866.000000
25606.000000,20975.000000,36504.000000,27863.000000
25602.000000,20985.000000,36511.000000,27881.000000
25588.000000,20987.000000,36510.000000,27887.000000
25581.000000,20981.000000,36498.000000,27876.000000
25586.000000,20980.000000,36496.000000,27872.000000
25587.000000,20981.000000,36503.000000,27876.000000
25579.000000,20975.000000,36501.000000,27864.000000
25574.000000,20965.000000,36490.000000,27841.000000
25577.000000,20963.000000,36488.000000,27842.000000
25575.000000,20964.000000,36492.000000,27860.000000
25562.000000,20958.000000,36486.000000,27862.000000
25553.000000,20950.000000,36474.000000,27851.000000
25551.000000,20951.000000,36471.000000,27853.000000
25537.000000,20953.000000,36467.000000,27857.000000
25508.000000,20939.000000,36444.000000,27835.000000
25484.000000,20918.000000,36413.000000,27803.000000
25471.000000,20908.000000,36400.000000,27794.000000
25457.000000,20903.000000,36398.000000,27789.000000
