660nm,730nm,850nm,940nm
31397.000000,50931.000000,51155.000000,26431.000000
31342.000000,50888.000000,51137.000000,26435.000000
31348.000000,50884.000000,51142.000000,26402.000000
31379.000000,50860.000000,51111.000000,26444.000000
31291.000000,50893.000000,51107.000000,26438.000000
31351.000000,50865.000000,51090.000000,26447.000000
31312.000000,50865.000000,51104.000000,26446.000000
31271.000000,50821.000000,51107.000000,26427.000000
31308.000000,50803.000000,51080.000000,26434.000000
31250.000000,50775.000000,51061.000000,26438.000000
31273.000000,50790.000000,51077.000000,26398.000000
31287.000000,50759.000000,51077.000000,26404.000000
31238.000000,50789.000000,51103.000000,26417.000000
31243.000000,50749.000000,51053.000000,26403.000000
31203.000000,50759.000000,51036.000000,26404.000000
31195.000000,50735.000000,51053.000000,26422.000000
31204.000000,50718.000000,51032.000000,26402.000000
31189.000000,50698.000000,51032.000000,26418.000000
31182.000000,50712.000000,51013.000000,26395.000000
31178.000000,50690.000000,51018.000000,26425.000000
31177.000000,50743.000000,51008.000000,26402.000000
31171.000000,50660.000000,50984.000000,26405.000000
31143.000000,50640.000000,51012.000000,26366.000000
31148.000000,50667.000000,50974.000000,26403.000000
31167.000000,50604.000000,50990.000000,26388.000000
31110.000000,50623.000000,50966.000000,26371.000000
31106.000000,50613.000000,50964.000000,26391.000000
31112.000000,50597.000000,50968.000000,26367.000000
31074.000000,50607.000000,50962.000000,26364.000000
31143.000000,50584.000000,50954.000000,26380.000000
31093.000000,50567.000000,50949.000000,26365.000000
31062.000000,50598.000000,50914.000000,26365.000000
31074.000000,50586.000000,50932.000000,26367.000000
31067.000000,50603.000000,50958.000000,26369.000000
31087.000000,50565.000000,50952.000000,26356.000000
31023.000000,50545.000000,50951.000000,26349.000000
31051.000000,50577.000000,50926.000000,26378.000000
31057.000000,50540.000000,50919.000000,26374.000000
31045.000000,50562.000000,50962.000000,26381.000000
31092.000000,50598.000000,50930.000000,26370.000000
31099.000000,50590.000000,50931.000000,26380.000000
31112.000000,50623.000000,50943.000000,26350.000000
31141.000000,50636.000000,50959.000000,26358.000000
31125.000000,50645.000000,50958.000000,26382.000000
31164.000000,50618.000000,50964.000000,26393.000000
31159.000000,50649.000000,50996.000000,26356.000000
31185.000000,50645.000000,50986.000000,26388.000000
31199.000000,50694.000000,51016.000000,26417.000000
31183.000000,50702.000000,51017.000000,26407.000000
31212.000000,50701.000000,51007.000000,26390.000000
31222.000000,50697.000000,51031.000000,26406.000000
31249.000000,50756.000000,51053.000000,26394.000000
31298.000000,50770.000000,51066.000000,26399.000000
31271.000000,50787.000000,51095.000000,26409.000000
31308.000000,50797.000000,51095.000000,26427.000000
31324.000000,50794.000000,51112.000000,26431.000000
31349.000000,50862.000000,51078.000000,26424.000000
31402.000000,50915.000000,51118.000000,26435.000000
31406.000000,50913.000000,51150.000000,26464.000000
31429.000000,50930.000000,51174.000000,26441.000000
31529.000000,51024.000000,51213.000000,26497.000000
31553.000000,51034.000000,51155.000000,26498.000000
31536.000000,51021.000000,51262.000000,26491.000000
31584.000000,51080.000000,51223.000000,26516.000000
31596.000000,51073.000000,51254.000000,26526.000000
31645.000000,51107.000000,51270.000000,26504.000000
31608.000000,51101.000000,51262.000000,26532.000000
31617.000000,51156.000000,51285.000000,26525.000000
31634.000000,51108.000000,51289.000000,26536.000000
31598.000000,51094.000000,51265.000000,26529.000000
31582.000000,51120.000000,51262.000000,26494.000000
31624.000000,51128.000000,51273.000000,26538.000000
31583.000000,51167.000000,51270.000000,26537.000000
31606.000000,51131.000000,51218.000000,26519.000000
31566.000000,51090.000000,51250.000000,26516.000000
31590.000000,51088.000000,51246.000000,26516.000000
31539.000000,51060.000000,51206.000000,26497.000000
31543.000000,51050.000000,51256.000000,26514.000000
31554.000000,51035.000000,51209.000000,26496.000000
31503.000000,51044.000000,51234.000000,26519.000000
31503.000000,51002.000000,51199.000000,26510.000000
31474.000000,51024.000000,51172.000000,26506.000000
31468.000000,50970.000000,51160.000000,26508.000000
31461.000000,50949.000000,51181.000000,26479.000000
31488.000000,50957.000000,51181.000000,26489.000000
31446.000000,50921.000000,51152.000000,26483.000000
31419.000000,50920.000000,51159.000000,26479.000000
31392.000000,50961.000000,51149.000000,26457.000000
31432.000000,50909.000000,51142.000000,26474.000000
31426.000000,50907.000000,51164.000000,26447.000000
31405.000000,50923.000000,51110.000000,26432.000000
31382.000000,50886.000000,51109.000000,26455.000000
31332.000000,50858.000000,51144.000000,26427.000000
31369.000000,50855.000000,51092.000000,26431.000000
31328.000000,50816.000000,51114.000000,26443.000000
31315.000000,50824.000000,51120.000000,26427.000000
31337.000000,50805.000000,51093.000000,26413.000000
31294.000000,50765.000000,51091.000000,26436.000000
31282.000000,50772.000000,51070.000000,26437.000000
31279.000000,50759.000000,51058.000000,26423.000000
31279.000000,50696.000000,51047.000000,26433.000000
31235.000000,50723.000000,51040.000000,26437.000000
31256.000000,50733.000000,51011.000000,26414.000000
31217.000000,50713.000000,51039.000000,26430.000000
31222.000000,50711.000000,51044.000000,26417.000000
31191.000000,50697.000000,51012.000000,26419.000000
31199.000000,50695.000000,50988.000000,26434.000000
31196.000000,50652.000000,50963.000000,26410.000000
31191.000000,50642.000000,50998.000000,26396.000000
31173.000000,50672.000000,50981.000000,26386.000000
31175.000000,50658.000000,50984.000000,26410.000000
31146.000000,50612.000000,50976.000000,26404.000000
31116.000000,50611.000000,50948.000000,26406.000000
31124.000000,50560.000000,50961.000000,26389.000000
31112.000000,50568.000000,50957.000000,26394.000000
31127.000000,50566.000000,50918.000000,26388.000000
31076.000000,50541.000000,50923.000000,26362.000000
31102.000000,50555.000000,50938.000000,26374.000000
31091.000000,50564.000000,50925.000000,26393.000000
31026.000000,50535.000000,50927.000000,26356.000000
31073.000000,50513.000000,50906.000000,26381.000000
31050.000000,50508.000000,50884.000000,26361.000000
31063.000000,50514.000000,50919.000000,26376.000000
31057.000000,50493.000000,50883.000000,26371.000000
31034.000000,50456.000000,50886.000000,26378.000000
31008.000000,50501.000000,50890.000000,26368.000000
30997.000000,50440.000000,50883.000000,26363.000000
30998.000000,50447.000000,50887.000000,26352.000000
30993.000000,50446.000000,50869.000000,26347.000000
30999.000000,50420.000000,50856.000000,26361.000000
30991.000000,50420.000000,50881.000000,26352.000000
31008.000000,50446.000000,50852.000000,26336.000000
30945.000000,50425.000000,50845.000000,26347.000000
30970.000000,50437.000000,50858.000000,26340.000000
30952.000000,50386.000000,50837.000000,26363.000000
30932.000000,50373.000000,50818.000000,26357.000000
30889.000000,50390.000000,50801.000000,26331.000000
30951.000000,50339.000000,50825.000000,26335.000000
30919.000000,50359.000000,50819.000000,26339.000000
30916.000000,50346.000000,50822.000000,26321.000000
30919.000000,50347.000000,50811.000000,26325.000000
30916.000000,50360.000000,50814.000000,26312.000000
30925.000000,50363.000000,50819.000000,26340.000000
30911.000000,50386.000000,50807.000000,26343.000000
30940.000000,50365.000000,50830.000000,26337.000000
30939.000000,50358.000000,50823.000000,26332.000000
30954.000000,50361.000000,50858.000000,26326.000000
30970.000000,50391.000000,50831.000000,26345.000000
31013.000000,50399.000000,50830.000000,26356.000000
30980.000000,50431.000000,50841.000000,26347.000000
31018.000000,50443.000000,50880.000000,26353.000000
31006.000000,50473.000000,50897.000000,26338.000000
31046.000000,50504.000000,50882.000000,26359.000000
31052.000000,50480.000000,50898.000000,26369.000000
31078.000000,50502.000000,50900.000000,26355.000000
31090.000000,50532.000000,50930.000000,26379.000000
31132.000000,50570.000000,50927.000000,26359.000000
31107.000000,50579.000000,50944.000000,26361.000000
31133.000000,50569.000000,50930.000000,26355.000000
31202.000000,50659.000000,50965.000000,26409.000000
31181.000000,50664.000000,50996.000000,26394.000000
31230.000000,50651.000000,51013.000000,26408.000000
31215.000000,50682.000000,51011.000000,26395.000000
31290.000000,50719.000000,51021.000000,26424.000000
31289.000000,50734.000000,51031.000000,26418.000000
31300.000000,50749.000000,51060.000000,26421.000000
31327.000000,50791.000000,51046.000000,26442.000000
31327.000000,50807.000000,51064.000000,26431.000000
31389.000000,50796.000000,51084.000000,26455.000000
31366.000000,50851.000000,51110.000000,26455.000000
31401.000000,50885.000000,51111.000000,26460.000000
31475.000000,50953.000000,51150.000000,26479.000000
31491.000000,50960.000000,51197.000000,26487.000000
31506.000000,50995.000000,51174.000000,26501.000000
31581.000000,51034.000000,51198.000000,26517.000000
31548.000000,51018.000000,51215.000000,26519.000000
31587.000000,51060.000000,51191.000000,26511.000000
31585.000000,51034.000000,51195.000000,26540.000000
31570.000000,50998.000000,51213.000000,26536.000000
31553.000000,51011.000000,51212.000000,26494.000000
31512.000000,51041.000000,51195.000000,26501.000000
31524.000000,51028.000000,51176.000000,26496.000000
31524.000000,51029.000000,51186.000000,26491.000000
31487.000000,51000.000000,51215.000000,26490.000000
31491.000000,51008.000000,51183.000000,26502.000000
31479.000000,50965.000000,51199.000000,26487.000000
31494.000000,50964.000000,51152.000000,26463.000000
31486.000000,50969.000000,51223.000000,26502.000000
31471.000000,50950.000000,51165.000000,26471.000000
31481.000000,50945.000000,51144.000000,26456.000000
31427.000000,50948.000000,51154.000000,26482.000000
31444.000000,50941.000000,51156.000000,26465.000000
31441.000000,50900.000000,51124.000000,26481.000000
31402.000000,50896.000000,51153.000000,26484.000000
31407.000000,50927.000000,51123.000000,26466.000000
31400.000000,50890.000000,51126.000000,26466.000000
31367.000000,50908.000000,51133.000000,26453.000000
31421.000000,50881.000000,51127.000000,26464.000000
31364.000000,50853.000000,51114.000000,26429.000000
31396.000000,50886.000000,51094.000000,26444.000000
31367.000000,50832.000000,51104.000000,26468.000000
31337.000000,50840.000000,51099.000000,26413.000000
31323.000000,50849.000000,51089.000000,26437.000000
31327.000000,50830.000000,51090.000000,26426.000000
31301.000000,50821.000000,51048.000000,26445.000000
31295.000000,50805.000000,51078.000000,26448.000000
31324.000000,50806.000000,51058.000000,26440.000000
31294.000000,50812.000000,51082.000000,26426.000000
31311.000000,50773.000000,51042.000000,26423.000000
31264.000000,50737.000000,51045.000000,26404.000000
31281.000000,50733.000000,51020.000000,26434.000000
31240.000000,50734.000000,51042.000000,26424.000000
31253.000000,50728.000000,51020.000000,26422.000000
31212.000000,50734.000000,51028.000000,26418.000000
31194.000000,50716.000000,51013.000000,26406.000000
31226.000000,50698.000000,50975.000000,26405.000000
31199.000000,50717.000000,51017.000000,26420.000000
31198.000000,50659.000000,50981.000000,26381.000000
31170.000000,50677.000000,51006.000000,26407.000000
31158.000000,50673.000000,50971.000000,26381.000000
31144.000000,50599.000000,50975.000000,26376.000000
31140.000000,50648.000000,50988.000000,26359.000000
31148.000000,50643.000000,50950.000000,26347.000000
31106.000000,50619.000000,50954.000000,26360.000000
31102.000000,50603.000000,50971.000000,26368.000000
31105.000000,50605.000000,50946.000000,26378.000000
31083.000000,50593.000000,50932.000000,26372.000000
31079.000000,50600.000000,50926.000000,26368.000000
31095.000000,50575.000000,50949.000000,26377.000000
31076.000000,50592.000000,50945.000000,26367.000000
31107.000000,50561.000000,50906.000000,26336.000000
31024.000000,50582.000000,50942.000000,26349.000000
31072.000000,50592.000000,50914.000000,26345.000000
31069.000000,50542.000000,50905.000000,26363.000000
31015.000000,50551.000000,50943.000000,26351.000000
31053.000000,50548.000000,50931.000000,26339.000000
31024.000000,50547.000000,50928.000000,26359.000000
31030.000000,50553.000000,50922.000000,26328.000000
31041.000000,50530.000000,50911.000000,26346.000000
31004.000000,50538.000000,50915.000000,26312.000000
31029.000000,50527.000000,50914.000000,26331.000000
31006.000000,50520.000000,50887.000000,26307.000000
30998.000000,50519.000000,50909.000000,26298.000000
30990.000000,50501.000000,50884.000000,26319.000000
30963.000000,50466.000000,50889.000000,26307.000000
30941.000000,50472.000000,50884.000000,26297.000000
30918.000000,50452.000000,50850.000000,26276.000000
30956.000000,50470.000000,50876.000000,26332.000000
30928.000000,50476.000000,50892.000000,26304.000000
30927.000000,50465.000000,50870.000000,26316.000000
30961.000000,50414.000000,50851.000000,26294.000000
30951.000000,50430.000000,50870.000000,26291.000000
30954.000000,50430.000000,50857.000000,26302.000000
30953.000000,50429.000000,50855.000000,26311.000000
30963.000000,50460.000000,50889.000000,26289.000000
30978.000000,50489.000000,50860.000000,26293.000000
30984.000000,50470.000000,50878.000000,26331.000000
30976.000000,50498.000000,50866.000000,26295.000000
31005.000000,50519.000000,50883.000000,26317.000000
30994.000000,50486.000000,50935.000000,26342.000000
31006.000000,50546.000000,50898.000000,26312.000000
31029.000000,50539.000000,50920.000000,26328.000000
31051.000000,50559.000000,50920.000000,26319.000000
31084.000000,50616.000000,50941.000000,26332.000000
31116.000000,50614.000000,50948.000000,26330.000000
31158.000000,50665.000000,51005.000000,26368.000000
31181.000000,50705.000000,50998.000000,26353.000000
31176.000000,50697.000000,51009.000000,26370.000000
31194.000000,50741.000000,51003.000000,26368.000000
31261.000000,50749.000000,51036.000000,26387.000000
31231.000000,50767.000000,51027.000000,26374.000000
31305.000000,50768.000000,51054.000000,26390.000000
31292.000000,50811.000000,51083.000000,26409.000000
31297.000000,50823.000000,51056.000000,26370.000000
31359.000000,50834.000000,51090.000000,26391.000000
31334.000000,50846.000000,51114.000000,26395.000000
31397.000000,50930.000000,51132.000000,26430.000000
31450.000000,50929.000000,51155.000000,26443.000000
31443.000000,50974.000000,51157.000000,26431.000000
31489.000000,50982.000000,51171.000000,26444.000000
31530.000000,51031.000000,51256.000000,26485.000000
31548.000000,51116.000000,51252.000000,26481.000000
31569.000000,51103.000000,51251.000000,26481.000000
31550.000000,51090.000000,51247.000000,26453.000000
31576.000000,51132.000000,51257.000000,26484.000000
31561.000000,51109.000000,51271.000000,26474.000000
31558.000000,51069.000000,51240.000000,26473.000000
31544.000000,51110.000000,51240.000000,26477.000000
31542.000000,51078.000000,51240.000000,26467.000000
31510.000000,51099.000000,51254.000000,26483.000000
31526.000000,51040.000000,51232.000000,26475.000000
31498.000000,51061.000000,51243.000000,26465.000000
31489.000000,51045.000000,51191.000000,26463.000000
31509.000000,51056.000000,51182.000000,26458.000000
31446.000000,51031.000000,51225.000000,26460.000000
31485.000000,50982.000000,51184.000000,26453.000000
31464.000000,51020.000000,51221.000000,26450.000000
31472.000000,51005.000000,51224.000000,26411.000000
31442.000000,51005.000000,51168.000000,26456.000000
31411.000000,50994.000000,51174.000000,26409.000000
31465.000000,50961.000000,51161.000000,26449.000000
31426.000000,50981.000000,51165.000000,26427.000000
31388.000000,50989.000000,51172.000000,26447.000000
31432.000000,50943.000000,51156.000000,26450.000000
31380.000000,50937.000000,51170.000000,26416.000000
31369.000000,50923.000000,51159.000000,26451.000000
31384.000000,50932.000000,51155.000000,26450.000000
31354.000000,50899.000000,51132.000000,26411.000000
31382.000000,50870.000000,51115.000000,26399.000000
31360.000000,50874.000000,51099.000000,26421.000000
31337.000000,50862.000000,51133.000000,26404.000000
31332.000000,50873.000000,51099.000000,26421.000000
31292.000000,50888.000000,51129.000000,26405.000000
31341.000000,50885.000000,51101.000000,26391.000000
31316.000000,50855.000000,51088.000000,26386.000000
31270.000000,50828.000000,51091.000000,26378.000000
31284.000000,50823.000000,51055.000000,26398.000000
31294.000000,50807.000000,51062.000000,26404.000000
31224.000000,50746.000000,51064.000000,26380.000000
31269.000000,50752.000000,51053.000000,26390.000000
31239.000000,50769.000000,51093.000000,26386.000000
31278.000000,50784.000000,51062.000000,26384.000000
31233.000000,50764.000000,51027.000000,26378.000000
31215.000000,50764.000000,51039.000000,26381.000000
31210.000000,50736.000000,51036.000000,26380.000000
31183.000000,50691.000000,51021.000000,26383.000000
31172.000000,50743.000000,51016.000000,26381.000000
31161.000000,50711.000000,51019.000000,26367.000000
31169.000000,50705.000000,50993.000000,26358.000000
31155.000000,50675.000000,50995.000000,26371.000000
31105.000000,50687.000000,51007.000000,26372.000000
31156.000000,50684.000000,50983.000000,26369.000000
31132.000000,50669.000000,50981.000000,26351.000000
31145.000000,50656.000000,50993.000000,26368.000000
31146.000000,50607.000000,50973.000000,26369.000000
31136.000000,50638.000000,51005.000000,26350.000000
31142.000000,50634.000000,50959.000000,26344.000000
31119.000000,50603.000000,50970.000000,26328.000000
31096.000000,50652.000000,50945.000000,26330.000000
31064.000000,50604.000000,50974.000000,26341.000000
31063.000000,50598.000000,50968.000000,26327.000000
31073.000000,50596.000000,50966.000000,26333.000000
31082.000000,50606.000000,50957.000000,26332.000000
31033.000000,50600.000000,50945.000000,26316.000000
31079.000000,50568.000000,50929.000000,26316.000000
31047.000000,50578.000000,50941.000000,26318.000000
31033.000000,50579.000000,50949.000000,26300.000000
31087.000000,50562.000000,50926.000000,26336.000000
31028.000000,50536.000000,50950.000000,26299.000000
31017.000000,50567.000000,50930.000000,26308.000000
31030.000000,50541.000000,50927.000000,26301.000000
31001.000000,50552.000000,50926.000000,26297.000000
31016.000000,50522.000000,50920.000000,26321.000000
30979.000000,50489.000000,50921.000000,26289.000000
30979.000000,50509.000000,50881.000000,26303.000000
31011.000000,50510.000000,50896.000000,26299.000000
30973.000000,50493.000000,50880.000000,26274.000000
30971.000000,50489.000000,50893.000000,26268.000000
30971.000000,50480.000000,50891.000000,26287.000000
30965.000000,50492.000000,50880.000000,26296.000000
30995.000000,50495.000000,50895.000000,26288.000000
30949.000000,50494.000000,50900.000000,26281.000000
30998.000000,50511.000000,50881.000000,26294.000000
30995.000000,50506.000000,50897.000000,26315.000000
31013.000000,50484.000000,50911.000000,26289.000000
31041.000000,50543.000000,50931.000000,26307.000000
31037.000000,50587.000000,50952.000000,26318.000000
31098.000000,50592.000000,50963.000000,26313.000000
31112.000000,50611.000000,50955.000000,26318.000000
31112.000000,50647.000000,50978.000000,26324.000000
31143.000000,50654.000000,51003.000000,26310.000000
31151.000000,50653.000000,50986.000000,26332.000000
31166.000000,50695.000000,51026.000000,26339.000000
31209.000000,50699.000000,51003.000000,26374.000000
31196.000000,50720.000000,51033.000000,26355.000000
31201.000000,50780.000000,51037.000000,26348.000000
31290.000000,50793.000000,51072.000000,26367.000000
31283.000000,50837.000000,51095.000000,26362.000000
31330.000000,50833.000000,51077.000000,26371.000000
31348.000000,50856.000000,51118.000000,26394.000000
31338.000000,50890.000000,51127.000000,26387.000000
31372.000000,50880.000000,51126.000000,26398.000000
31389.000000,50915.000000,51143.000000,26397.000000
31432.000000,50921.000000,51154.000000,26415.000000
31452.000000,50990.000000,51178.000000,26429.000000
31443.000000,51005.000000,51185.000000,26409.000000
31521.000000,51076.000000,51239.000000,26452.000000
31559.000000,51085.000000,51251.000000,26446.000000
31536.000000,51109.000000,51276.000000,26442.000000
31592.000000,51124.000000,51259.000000,26467.000000
31597.000000,51131.000000,51293.000000,26477.000000
31621.000000,51179.000000,51260.000000,26457.000000
31642.000000,51159.000000,51294.000000,26501.000000
31653.000000,51132.000000,51293.000000,26490.000000
31632.000000,51168.000000,51288.000000,26459.000000
31608.000000,51144.000000,51299.000000,26495.000000
31604.000000,51159.000000,51305.000000,26464.000000
31635.000000,51150.000000,51266.000000,26497.000000
31585.000000,51139.000000,51261.000000,26475.000000
31603.000000,51099.000000,51254.000000,26459.000000
31589.000000,51108.000000,51253.000000,26458.000000
31534.000000,51125.000000,51275.000000,26433.000000
31576.000000,51088.000000,51247.000000,26457.000000
31548.000000,51085.000000,51256.000000,26444.000000
31550.000000,51083.000000,51270.000000,26430.000000
31532.000000,51062.000000,51252.000000,26456.000000
31514.000000,51030.000000,51234.000000,26448.000000
31502.000000,51059.000000,51239.000000,26421.000000
31487.000000,51069.000000,51214.000000,26454.000000
31486.000000,51032.000000,51201.000000,26439.000000
31501.000000,51033.000000,51159.000000,26441.000000
31493.000000,51017.000000,51169.000000,26439.000000
31431.000000,50996.000000,51179.000000,26432.000000
31468.000000,50979.000000,51205.000000,26423.000000
31442.000000,50969.000000,51197.000000,26443.000000
31430.000000,50949.000000,51182.000000,26418.000000
31408.000000,50965.000000,51182.000000,26405.000000
31418.000000,50932.000000,51169.000000,26435.000000
31389.000000,50957.000000,51159.000000,26424.000000
31387.000000,50913.000000,51130.000000,26411.000000
31373.000000,50894.000000,51175.000000,26421.000000
31358.000000,50904.000000,51139.000000,26395.000000
31371.000000,50886.000000,51115.000000,26393.000000
31350.000000,50904.000000,51123.000000,26381.000000
31338.000000,50863.000000,51082.000000,26402.000000
31342.000000,50849.000000,51089.000000,26394.000000
31307.000000,50856.000000,51081.000000,26410.000000
31316.000000,50822.000000,51073.000000,26374.000000
31296.000000,50816.000000,51096.000000,26417.000000
31283.000000,50791.000000,51057.000000,26377.000000
31258.000000,50814.000000,51046.000000,26375.000000
31261.000000,50754.000000,51023.000000,26358.000000
31227.000000,50766.000000,51047.000000,26365.000000
31229.000000,50785.000000,51020.000000,26356.000000
31208.000000,50758.000000,51026.000000,26370.000000
31215.000000,50740.000000,51036.000000,26351.000000
31223.000000,50718.000000,51044.000000,26381.000000
31206.000000,50705.000000,51004.000000,26354.000000
31185.000000,50716.000000,51021.000000,26326.000000
31219.000000,50711.000000,50998.000000,26354.000000
31187.000000,50710.000000,51000.000000,26363.000000
31160.000000,50659.000000,50989.000000,26368.000000
31148.000000,50703.000000,50989.000000,26373.000000
31165.000000,50662.000000,50987.000000,26343.000000
31111.000000,50631.000000,50978.000000,26343.000000
31145.000000,50664.000000,50969.000000,26348.000000
31102.000000,50644.000000,50969.000000,26347.000000
31087.000000,50625.000000,50993.000000,26299.000000
31097.000000,50596.000000,50970.000000,26307.000000
31076.000000,50632.000000,50961.000000,26345.000000
31068.000000,50605.000000,50957.000000,26309.000000
31107.000000,50602.000000,50930.000000,26314.000000
31040.000000,50558.000000,50972.000000,26289.000000
31086.000000,50588.000000,50916.000000,26336.000000
31083.000000,50560.000000,50934.000000,26304.000000
31048.000000,50571.000000,50946.000000,26296.000000
31038.000000,50580.000000,50921.000000,26330.000000
31029.000000,50549.000000,50918.000000,26304.000000
30988.000000,50542.000000,50948.000000,26309.000000
31017.000000,50568.000000,50922.000000,26298.000000
31019.000000,50543.000000,50912.000000,26319.000000
30990.000000,50514.000000,50934.000000,26296.000000
31046.000000,50553.000000,50899.000000,26306.000000
30982.000000,50512.000000,50908.000000,26269.000000
30991.000000,50539.000000,50880.000000,26310.000000
31004.000000,50537.000000,50887.000000,26271.000000
30970.000000,50482.000000,50891.000000,26292.000000
30987.000000,50503.000000,50922.000000,26264.000000
30997.000000,50542.000000,50949.000000,26285.000000
31005.000000,50533.000000,50920.000000,26282.000000
31020.000000,50540.000000,50911.000000,26278.000000
31023.000000,50566.000000,50922.000000,26290.000000
31056.000000,50587.000000,50948.000000,26302.000000
31109.000000,50616.000000,50939.000000,26291.000000
31060.000000,50647.000000,50959.000000,26313.000000
31099.000000,50644.000000,50993.000000,26336.000000
31171.000000,50685.000000,50989.000000,26350.000000
31181.000000,50715.000000,51005.000000,26328.000000
31192.000000,50715.000000,51028.000000,26331.000000
31197.000000,50720.000000,51003.000000,26346.000000
31191.000000,50733.000000,51029.000000,26348.000000
31249.000000,50760.000000,51041.000000,26355.000000
31231.000000,50758.000000,51059.000000,26353.000000
31274.000000,50834.000000,51075.000000,26354.000000
31283.000000,50824.000000,51083.000000,26371.000000
31300.000000,50839.000000,51110.000000,26382.000000
31325.000000,50867.000000,51114.000000,26372.000000
31326.000000,50855.000000,51119.000000,26404.000000
31338.000000,50928.000000,51120.000000,26379.000000
31392.000000,50886.000000,51125.000000,26410.000000
31387.000000,50933.000000,51170.000000,26402.000000
31430.000000,51007.000000,51191.000000,26406.000000
31492.000000,51060.000000,51208.000000,26427.000000
31513.000000,51050.000000,51196.000000,26419.000000
31516.000000,51065.000000,51240.000000,26426.000000
31534.000000,51092.000000,51249.000000,26440.000000
31576.000000,51122.000000,51266.000000,26453.000000
31577.000000,51167.000000,51244.000000,26452.000000
31619.000000,51183.000000,51288.000000,26473.000000
31630.000000,51218.000000,51301.000000,26472.000000
31623.000000,51221.000000,51314.000000,26467.000000
31634.000000,51179.000000,51283.000000,26500.000000
31625.000000,51175.000000,51291.000000,26486.000000
31617.000000,51194.000000,51293.000000,26475.000000
31647.000000,51172.000000,51274.000000,26464.000000
31587.000000,51159.000000,51317.000000,26454.000000
31636.000000,51208.000000,51277.000000,26459.000000
31583.000000,51146.000000,51296.000000,26473.000000
31600.000000,51155.000000,51274.000000,26492.000000
31601.000000,51153.000000,51263.000000,26432.000000
31573.000000,51106.000000,51261.000000,26434.000000
31559.000000,51119.000000,51266.000000,26447.000000
31522.000000,51078.000000,51274.000000,26454.000000
31500.000000,51101.000000,51240.000000,26450.000000
31461.000000,51058.000000,51259.000000,26423.000000
31546.000000,51046.000000,51221.000000,26455.000000
31521.000000,51033.000000,51208.000000,26422.000000
31485.000000,51060.000000,51197.000000,26419.000000
31492.000000,51041.000000,51196.000000,26427.000000
31472.000000,51044.000000,51211.000000,26425.000000
31488.000000,51026.000000,51199.000000,26406.000000
31460.000000,51003.000000,51212.000000,26424.000000
31445.000000,51034.000000,51210.000000,26408.000000
31420.000000,50963.000000,51162.000000,26399.000000
31439.000000,50968.000000,51173.000000,26393.000000
31423.000000,50981.000000,51195.000000,26407.000000
31392.000000,50964.000000,51151.000000,26412.000000
31388.000000,50923.000000,51145.000000,26400.000000
31379.000000,50928.000000,51142.000000,26378.000000
31370.000000,50892.000000,51127.000000,26409.000000
31334.000000,50908.000000,51156.000000,26384.000000
31333.000000,50918.000000,51112.000000,26395.000000
31331.000000,50896.000000,51124.000000,26386.000000
31318.000000,50864.000000,51146.000000,26377.000000
31326.000000,50855.000000,51104.000000,26392.000000
31322.000000,50862.000000,51117.000000,26392.000000
31298.000000,50884.000000,51073.000000,26390.000000
31316.000000,50846.000000,51100.000000,26366.000000
31292.000000,50838.000000,51097.000000,26362.000000
31291.000000,50820.000000,51085.000000,26375.000000
31284.000000,50828.000000,51068.000000,26360.000000
31218.000000,50797.000000,51071.000000,26336.000000
31263.000000,50795.000000,51022.000000,26366.000000
31216.000000,50741.000000,51054.000000,26341.000000
31243.000000,50764.000000,51060.000000,26347.000000
31222.000000,50737.000000,51046.000000,26343.000000
31161.000000,50783.000000,51062.000000,26331.000000
31181.000000,50730.000000,51037.000000,26347.000000
31143.000000,50727.000000,51029.000000,26339.000000
31154.000000,50738.000000,51021.000000,26335.000000
31180.000000,50693.000000,51008.000000,26329.000000
31148.000000,50688.000000,50998.000000,26354.000000
31133.000000,50710.000000,50995.000000,26316.000000
31123.000000,50683.000000,51007.000000,26318.000000
31137.000000,50674.000000,50993.000000,26309.000000
31103.000000,50673.000000,50968.000000,26313.000000
31106.000000,50645.000000,50982.000000,26310.000000
31092.000000,50656.000000,50985.000000,26294.000000
31112.000000,50645.000000,50999.000000,26317.000000
31084.000000,50630.000000,50934.000000,26314.000000
31048.000000,50618.000000,50970.000000,26292.000000
31058.000000,50639.000000,50954.000000,26317.000000
31063.000000,50608.000000,50951.000000,26293.000000
31050.000000,50599.000000,50985.000000,26288.000000
31105.000000,50622.000000,50945.000000,26300.000000
31048.000000,50580.000000,50972.000000,26291.000000
31067.000000,50624.000000,50947.000000,26274.000000
31052.000000,50571.000000,50935.000000,26301.000000
31034.000000,50595.000000,50943.000000,26272.000000
31016.000000,50602.000000,50932.000000,26311.000000
31012.000000,50563.000000,50931.000000,26272.000000
31001.000000,50600.000000,50931.000000,26296.000000
30979.000000,50569.000000,50927.000000,26282.000000
31045.000000,50549.000000,50930.000000,26285.000000
31030.000000,50590.000000,50958.000000,26275.000000
31039.000000,50576.000000,50930.000000,26257.000000
31073.000000,50567.000000,50921.000000,26299.000000
31030.000000,50605.000000,50975.000000,26275.000000
31037.000000,50624.000000,50948.000000,26300.000000
31077.000000,50590.000000,50977.000000,26301.000000
31057.000000,50674.000000,51006.000000,26290.000000
31154.000000,50668.000000,50978.000000,26309.000000
31194.000000,50737.000000,51038.000000,26359.000000
31174.000000,50735.000000,51039.000000,26348.000000
31206.000000,50757.000000,51039.000000,26324.000000
31173.000000,50778.000000,51063.000000,26328.000000
31220.000000,50807.000000,51080.000000,26325.000000
31269.000000,50818.000000,51056.000000,26361.000000
31238.000000,50838.000000,51090.000000,26335.000000
31265.000000,50839.000000,51086.000000,26331.000000
31286.000000,50854.000000,51118.000000,26359.000000
31298.000000,50877.000000,51133.000000,26371.000000
31319.000000,50897.000000,51139.000000,26371.000000
31320.000000,50901.000000,51158.000000,26364.000000
31324.000000,50957.000000,51112.000000,26386.000000
31428.000000,51006.000000,51180.000000,26405.000000
31439.000000,51022.000000,51183.000000,26421.000000
31437.000000,51021.000000,51219.000000,26397.000000
31515.000000,51121.000000,51241.000000,26400.000000
31520.000000,51107.000000,51250.000000,26418.000000
31564.000000,51145.000000,51289.000000,26423.000000
31547.000000,51163.000000,51274.000000,26409.000000
31576.000000,51198.000000,51283.000000,26472.000000
31569.000000,51208.000000,51292.000000,26430.000000
31631.000000,51190.000000,51306.000000,26452.000000
31604.000000,51258.000000,51328.000000,26451.000000
31611.000000,51235.000000,51322.000000,26443.000000
31618.000000,51228.000000,51309.000000,26468.000000
31610.000000,51199.000000,51314.000000,26427.000000
31613.000000,51228.000000,51330.000000,26451.000000
31601.000000,51197.000000,51301.000000,26435.000000
31584.000000,51193.000000,51303.000000,26434.000000
31564.000000,51212.000000,51284.000000,26437.000000
31582.000000,51179.000000,51308.000000,26428.000000
31559.000000,51163.000000,51286.000000,26459.000000
31534.000000,51196.000000,51273.000000,26423.000000
31551.000000,51099.000000,51278.000000,26439.000000
31549.000000,51138.000000,51289.000000,26427.000000
31534.000000,51125.000000,51267.000000,26397.000000
31509.000000,51093.000000,51248.000000,26440.000000
31498.000000,51137.000000,51264.000000,26416.000000
31532.000000,51130.000000,51246.000000,26415.000000
31501.000000,51096.000000,51259.000000,26428.000000
31465.000000,51083.000000,51258.000000,26391.000000
31470.000000,51104.000000,51224.000000,26403.000000
31457.000000,51083.000000,51230.000000,26382.000000
31443.000000,51077.000000,51219.000000,26406.000000
31478.000000,51077.000000,51203.000000,26422.000000
31439.000000,51074.000000,51228.000000,26401.000000
31448.000000,51047.000000,51222.000000,26392.000000
31416.000000,51042.000000,51215.000000,26395.000000
31436.000000,51013.000000,51187.000000,26384.000000
31415.000000,51021.000000,51180.000000,26393.000000
31394.000000,51010.000000,51183.000000,26387.000000
31442.000000,50999.000000,51196.000000,26389.000000
31389.000000,50988.000000,51175.000000,26410.000000
31353.000000,50959.000000,51169.000000,26382.000000
31378.000000,50974.000000,51174.000000,26387.000000
31356.000000,50955.000000,51177.000000,26386.000000
31326.000000,50991.000000,51150.000000,26382.000000
31356.000000,50944.000000,51158.000000,26377.000000
31341.000000,50931.000000,51157.000000,26383.000000
31348.000000,50952.000000,51159.000000,26351.000000
31304.000000,50901.000000,51133.000000,26388.000000
31297.000000,50867.000000,51123.000000,26376.000000
31289.000000,50910.000000,51129.000000,26368.000000
31286.000000,50896.000000,51120.000000,26335.000000
31250.000000,50904.000000,51128.000000,26350.000000
31295.000000,50903.000000,51079.000000,26340.000000
31233.000000,50839.000000,51082.000000,26358.000000
31239.000000,50869.000000,51073.000000,26338.000000
31207.000000,50814.000000,51105.000000,26331.000000
31249.000000,50818.000000,51112.000000,26365.000000
31208.000000,50796.000000,51080.000000,26319.000000
31173.000000,50814.000000,51095.000000,26307.000000
31192.000000,50792.000000,51053.000000,26323.000000
31155.000000,50788.000000,51079.000000,26310.000000
31207.000000,50789.000000,51058.000000,26313.000000
31186.000000,50781.000000,51063.000000,26328.000000
31173.000000,50771.000000,51074.000000,26295.000000
31177.000000,50762.000000,51035.000000,26322.000000
31146.000000,50747.000000,51060.000000,26326.000000
31144.000000,50765.000000,51049.000000,26281.000000
31145.000000,50732.000000,51055.000000,26321.000000
31130.000000,50721.000000,51056.000000,26315.000000
31145.000000,50736.000000,51031.000000,26297.000000
31139.000000,50706.000000,51033.000000,26320.000000
31148.000000,50746.000000,51029.000000,26295.000000
31130.000000,50710.000000,51022.000000,26272.000000
31117.000000,50657.000000,51028.000000,26294.000000
31138.000000,50716.000000,50998.000000,26307.000000
31134.000000,50659.000000,51009.000000,26284.000000
31084.000000,50675.000000,50994.000000,26274.000000
31108.000000,50698.000000,50983.000000,26286.000000
31125.000000,50675.000000,50997.000000,26283.000000
31131.000000,50718.000000,51017.000000,26309.000000
31137.000000,50715.000000,51023.000000,26292.000000
31133.000000,50723.000000,51035.000000,26296.000000
31191.000000,50782.000000,51049.000000,26289.000000
31140.000000,50728.000000,51047.000000,26307.000000
31209.000000,50776.000000,51039.000000,26319.000000
31180.000000,50777.000000,51076.000000,26323.000000
31197.000000,50810.000000,51080.000000,26301.000000
31244.000000,50796.000000,51061.000000,26353.000000
31223.000000,50838.000000,51092.000000,26319.000000
31281.000000,50810.000000,51092.000000,26292.000000
31271.000000,50858.000000,51128.000000,26349.000000
31275.000000,50872.000000,51116.000000,26347.000000
31315.000000,50866.000000,51112.000000,26345.000000
31317.000000,50893.000000,51127.000000,26361.000000
31326.000000,50922.000000,51154.000000,26332.000000
31410.000000,50946.000000,51163.000000,26377.000000
31370.000000,50962.000000,51196.000000,26402.000000
31434.000000,50978.000000,51191.000000,26386.000000
31451.000000,51011.000000,51193.000000,26378.000000
31441.000000,51049.000000,51236.000000,26417.000000
31482.000000,51030.000000,51199.000000,26399.000000
31451.000000,51050.000000,51244.000000,26410.000000
31544.000000,51097.000000,51268.000000,26407.000000
31508.000000,51114.000000,51250.000000,26397.000000
31529.000000,51126.000000,51290.000000,26392.000000
31577.000000,51116.000000,51268.000000,26423.000000
31553.000000,51156.000000,51287.000000,26414.000000
31609.000000,51203.000000,51293.000000,26429.000000
31611.000000,51183.000000,51339.000000,26425.000000
31690.000000,51234.000000,51371.000000,26457.000000
31675.000000,51273.000000,51396.000000,26457.000000
31740.000000,51281.000000,51364.000000,26473.000000
31663.000000,51312.000000,51386.000000,26464.000000
31689.000000,51334.000000,51367.000000,26465.000000
31704.000000,51311.000000,51358.000000,26473.000000
31699.000000,51302.000000,51397.000000,26464.000000
31695.000000,51272.000000,51371.000000,26443.000000
31662.000000,51290.000000,51391.000000,26465.000000
31657.000000,51256.000000,51365.000000,26472.000000
31660.000000,51282.000000,51351.000000,26436.000000
31640.000000,51271.000000,51345.000000,26452.000000
31628.000000,51275.000000,51342.000000,26449.000000
31670.000000,51240.000000,51365.000000,26429.000000
31631.000000,51208.000000,51320.000000,26455.000000
31615.000000,51192.000000,51340.000000,26459.000000
31615.000000,51181.000000,51327.000000,26461.000000
31592.000000,51207.000000,51293.000000,26434.000000
31587.000000,51188.000000,51308.000000,26445.000000
31554.000000,51160.000000,51286.000000,26427.000000
31581.000000,51183.000000,51312.000000,26449.000000
31588.000000,51137.000000,51295.000000,26444.000000
31519.000000,51142.000000,51289.000000,26430.000000
31545.000000,51135.000000,51282.000000,26427.000000
31542.000000,51115.000000,51284.000000,26411.000000
31546.000000,51137.000000,51265.000000,26431.000000
31521.000000,51140.000000,51259.000000,26415.000000
31504.000000,51100.000000,51290.000000,26404.000000
31538.000000,51106.000000,51254.000000,26392.000000
31504.000000,51063.000000,51282.000000,26403.000000
31520.000000,51085.000000,51259.000000,26391.000000
31481.000000,51034.000000,51254.000000,26430.000000
31477.000000,51027.000000,51248.000000,26412.000000
31501.000000,51061.000000,51242.000000,26409.000000
31480.000000,51021.000000,51234.000000,26441.000000
31478.000000,51057.000000,51221.000000,26423.000000
31498.000000,51005.000000,51225.000000,26405.000000
31452.000000,51036.000000,51203.000000,26410.000000
31481.000000,51025.000000,51199.000000,26383.000000
31449.000000,50971.000000,51159.000000,26383.000000
31407.000000,50975.000000,51185.000000,26414.000000
31415.000000,50964.000000,51175.000000,26386.000000
31458.000000,50925.000000,51191.000000,26398.000000
31367.000000,50937.000000,51152.000000,26374.000000
31370.000000,50944.000000,51162.000000,26381.000000
31392.000000,50895.000000,51160.000000,26402.000000
31360.000000,50933.000000,51175.000000,26386.000000
31370.000000,50928.000000,51149.000000,26381.000000
31321.000000,50891.000000,51186.000000,26347.000000
31349.000000,50898.000000,51144.000000,26351.000000
31375.000000,50880.000000,51154.000000,26355.000000
31329.000000,50874.000000,51142.000000,26344.000000
31334.000000,50881.000000,51111.000000,26348.000000
31314.000000,50866.000000,51127.000000,26381.000000
31302.000000,50866.000000,51151.000000,26353.000000
31323.000000,50845.000000,51122.000000,26362.000000
31311.000000,50829.000000,51107.000000,26357.000000
31295.000000,50846.000000,51131.000000,26330.000000
31300.000000,50822.000000,51098.000000,26348.000000
31280.000000,50845.000000,51128.000000,26345.000000
31293.000000,50830.000000,51123.000000,26327.000000
31285.000000,50803.000000,51113.000000,26344.000000
31267.000000,50824.000000,51107.000000,26312.000000
31288.000000,50803.000000,51080.000000,26333.000000
31258.000000,50820.000000,51109.000000,26342.000000
31273.000000,50800.000000,51096.000000,26311.000000
31282.000000,50781.000000,51063.000000,26340.000000
31254.000000,50793.000000,51064.000000,26335.000000
31251.000000,50813.000000,51084.000000,26317.000000
31250.000000,50775.000000,51067.000000,26322.000000
31223.000000,50784.000000,51085.000000,26326.000000
31208.000000,50755.000000,51056.000000,26312.000000
31221.000000,50743.000000,51100.000000,26327.000000
31221.000000,50754.000000,51113.000000,26301.000000
31190.000000,50765.000000,51056.000000,26318.000000
31193.000000,50770.000000,51107.000000,26302.000000
31237.000000,50789.000000,51063.000000,26326.000000
31208.000000,50768.000000,51050.000000,26328.000000
31238.000000,50793.000000,51075.000000,26298.000000
31278.000000,50853.000000,51110.000000,26323.000000
31255.000000,50814.000000,51083.000000,26340.000000
31274.000000,50843.000000,51118.000000,26344.000000
31291.000000,50820.000000,51105.000000,26329.000000
31298.000000,50862.000000,51148.000000,26333.000000
31351.000000,50911.000000,51163.000000,26358.000000
31369.000000,50898.000000,51134.000000,26374.000000
31380.000000,50913.000000,51178.000000,26335.000000
31400.000000,50954.000000,51160.000000,26351.000000
31398.000000,50943.000000,51206.000000,26373.000000
31430.000000,50951.000000,51210.000000,26376.000000
31434.000000,50949.000000,51170.000000,26377.000000
31434.000000,50995.000000,51224.000000,26383.000000
31468.000000,51017.000000,51201.000000,26379.000000
31485.000000,50983.000000,51223.000000,26382.000000
31536.000000,51039.000000,51259.000000,26385.000000
31556.000000,51060.000000,51255.000000,26383.000000
31582.000000,51113.000000,51266.000000,26422.000000
31564.000000,51099.000000,51288.000000,26400.000000
31631.000000,51124.000000,51306.000000,26421.000000
31651.000000,51179.000000,51331.000000,26424.000000
31665.000000,51224.000000,51323.000000,26463.000000
31755.000000,51270.000000,51364.000000,26455.000000
31754.000000,51282.000000,51383.000000,26472.000000
31754.000000,51338.000000,51393.000000,26466.000000
31794.000000,51353.000000,51403.000000,26488.000000
31768.000000,51378.000000,51434.000000,26462.000000
31778.000000,51337.000000,51427.000000,26505.000000
31794.000000,51367.000000,51437.000000,26500.000000
31802.000000,51398.000000,51435.000000,26482.000000
31812.000000,51378.000000,51443.000000,26481.000000
31779.000000,51331.000000,51419.000000,26457.000000
31794.000000,51358.000000,51437.000000,26465.000000
31768.000000,51316.000000,51419.000000,26478.000000
31758.000000,51299.000000,51406.000000,26462.000000
31729.000000,51294.000000,51408.000000,26489.000000
31733.000000,51281.000000,51394.000000,26445.000000
31762.000000,51284.000000,51402.000000,26464.000000
31721.000000,51286.000000,51401.000000,26456.000000
31712.000000,51309.000000,51398.000000,26470.000000
31710.000000,51261.000000,51370.000000,26487.000000
31702.000000,51269.000000,51386.000000,26470.000000
31706.000000,51267.000000,51391.000000,26462.000000
31731.000000,51285.000000,51380.000000,26458.000000
31679.000000,51251.000000,51374.000000,26424.000000
31685.000000,51229.000000,51348.000000,26445.000000
31644.000000,51217.000000,51341.000000,26460.000000
31656.000000,51203.000000,51333.000000,26444.000000
31662.000000,51197.000000,51319.000000,26448.000000
31639.000000,51192.000000,51319.000000,26439.000000
31619.000000,51205.000000,51314.000000,26421.000000
31634.000000,51178.000000,51339.000000,26449.000000
31603.000000,51187.000000,51353.000000,26418.000000
31608.000000,51160.000000,51328.000000,26441.000000
31614.000000,51159.000000,51332.000000,26413.000000
31600.000000,51186.000000,51284.000000,26441.000000
31604.000000,51162.000000,51318.000000,26413.000000
31560.000000,51110.000000,51312.000000,26399.000000
31574.000000,51144.000000,51277.000000,26419.000000
31530.000000,51120.000000,51269.000000,26399.000000
31518.000000,51116.000000,51277.000000,26402.000000
31558.000000,51108.000000,51246.000000,26416.000000
31501.000000,51091.000000,51287.000000,26369.000000
31515.000000,51092.000000,51257.000000,26387.000000
31529.000000,51060.000000,51241.000000,26416.000000
31517.000000,51046.000000,51279.000000,26405.000000
31516.000000,51066.000000,51237.000000,26382.000000
31493.000000,51053.000000,51209.000000,26391.000000
31477.000000,51060.000000,51264.000000,26372.000000
31495.000000,51034.000000,51207.000000,26381.000000
31450.000000,51037.000000,51262.000000,26387.000000
31473.000000,51009.000000,51212.000000,26358.000000
31460.000000,51007.000000,51233.000000,26391.000000
31422.000000,51005.000000,51236.000000,26364.000000
31445.000000,50974.000000,51197.000000,26367.000000
31385.000000,50959.000000,51217.000000,26370.000000
31422.000000,50988.000000,51204.000000,26354.000000
31373.000000,50971.000000,51219.000000,26344.000000
31333.000000,50997.000000,51226.000000,26355.000000
31379.000000,50978.000000,51170.000000,26338.000000
31357.000000,50972.000000,51211.000000,26349.000000
31368.000000,50934.000000,51159.000000,26362.000000
31346.000000,50937.000000,51195.000000,26329.000000
31369.000000,50935.000000,51173.000000,26325.000000
31365.000000,50940.000000,51165.000000,26321.000000
31295.000000,50910.000000,51171.000000,26331.000000
31328.000000,50913.000000,51148.000000,26329.000000
31344.000000,50882.000000,51146.000000,26327.000000
31321.000000,50873.000000,51172.000000,26332.000000
31266.000000,50888.000000,51125.000000,26329.000000
31303.000000,50845.000000,51135.000000,26337.000000
31278.000000,50855.000000,51132.000000,26329.000000
31303.000000,50846.000000,51129.000000,26318.000000
31260.000000,50855.000000,51149.000000,26347.000000
31293.000000,50860.000000,51103.000000,26309.000000
31278.000000,50864.000000,51140.000000,26297.000000
31295.000000,50860.000000,51118.000000,26285.000000
31264.000000,50852.000000,51133.000000,26306.000000
31233.000000,50848.000000,51129.000000,26304.000000
31275.000000,50844.000000,51151.000000,26308.000000
31259.000000,50835.000000,51138.000000,26301.000000
31276.000000,50840.000000,51122.000000,26294.000000
31275.000000,50841.000000,51128.000000,26308.000000
31269.000000,50839.000000,51126.000000,26289.000000
31311.000000,50854.000000,51122.000000,26326.000000
31298.000000,50860.000000,51134.000000,26318.000000
31316.000000,50890.000000,51133.000000,26312.000000
31319.000000,50882.000000,51128.000000,26299.000000
31345.000000,50887.000000,51170.000000,26347.000000
31351.000000,50927.000000,51164.000000,26319.000000
31372.000000,50939.000000,51160.000000,26354.000000
31398.000000,50968.000000,51198.000000,26356.000000
31465.000000,50967.000000,51223.000000,26362.000000
31456.000000,50983.000000,51227.000000,26341.000000
31481.000000,51010.000000,51220.000000,26352.000000
31466.000000,51021.000000,51285.000000,26376.000000
31490.000000,51046.000000,51212.000000,26378.000000
31487.000000,51058.000000,51238.000000,26382.000000
31520.000000,51087.000000,51246.000000,26382.000000
31544.000000,51060.000000,51267.000000,26390.000000
31562.000000,51127.000000,51315.000000,26386.000000
31596.000000,51175.000000,51294.000000,26386.000000
31623.000000,51148.000000,51305.000000,26414.000000
31612.000000,51170.000000,51336.000000,26436.000000
31642.000000,51192.000000,51346.000000,26430.000000
31640.000000,51209.000000,51332.000000,26433.000000
31694.000000,51225.000000,51362.000000,26433.000000
31666.000000,51258.000000,51361.000000,26448.000000
31694.000000,51304.000000,51342.000000,26413.000000
31751.000000,51295.000000,51385.000000,26439.000000
31731.000000,51306.000000,51422.000000,26457.000000
31789.000000,51364.000000,51428.000000,26486.000000
31837.000000,51404.000000,51458.000000,26467.000000
31800.000000,51412.000000,51433.000000,26466.000000
31843.000000,51370.000000,51451.000000,26505.000000
31837.000000,51405.000000,51470.000000,26480.000000
31818.000000,51353.000000,51439.000000,26504.000000
31814.000000,51379.000000,51434.000000,26478.000000
31864.000000,51374.000000,51423.000000,26499.000000
31776.000000,51340.000000,51452.000000,26480.000000
31812.000000,51370.000000,51439.000000,26461.000000
31794.000000,51369.000000,51427.000000,26471.000000
31774.000000,51336.000000,51417.000000,26465.000000
31786.000000,51332.000000,51417.000000,26480.000000
31763.000000,51319.000000,51422.000000,26463.000000
31774.000000,51307.000000,51408.000000,26465.000000
31756.000000,51334.000000,51404.000000,26470.000000
31770.000000,51330.000000,51383.000000,26464.000000
31741.000000,51281.000000,51388.000000,26458.000000
31714.000000,51255.000000,51410.000000,26477.000000
31720.000000,51282.000000,51377.000000,26441.000000
31740.000000,51253.000000,51368.000000,26461.000000
31697.000000,51268.000000,51391.000000,26461.000000
31713.000000,51283.000000,51362.000000,26465.000000
31719.000000,51246.000000,51362.000000,26449.000000
31668.000000,51237.000000,51375.000000,26433.000000
31697.000000,51190.000000,51309.000000,26460.000000
31660.000000,51195.000000,51355.000000,26457.000000
31669.000000,51214.000000,51344.000000,26427.000000
31639.000000,51188.000000,51311.000000,26433.000000
31627.000000,51216.000000,51327.000000,26445.000000
31632.000000,51169.000000,51312.000000,26442.000000
31618.000000,51168.000000,51356.000000,26414.000000
31625.000000,51157.000000,51298.000000,26448.000000
31592.000000,51154.000000,51305.000000,26431.000000
31585.000000,51177.000000,51283.000000,26416.000000
31598.000000,51125.000000,51292.000000,26438.000000
31588.000000,51142.000000,51288.000000,26422.000000
31569.000000,51092.000000,51306.000000,26423.000000
31555.000000,51108.000000,51298.000000,26414.000000
31577.000000,51108.000000,51283.000000,26413.000000
31549.000000,51076.000000,51283.000000,26430.000000
31559.000000,51074.000000,51274.000000,26424.000000
31553.000000,51051.000000,51285.000000,26411.000000
31507.000000,51087.000000,51261.000000,26392.000000
31534.000000,51032.000000,51256.000000,26390.000000
31492.000000,51054.000000,51234.000000,26414.000000
31491.000000,51071.000000,51237.000000,26374.000000
31494.000000,51018.000000,51229.000000,26389.000000
31431.000000,50994.000000,51223.000000,26385.000000
31445.000000,51001.000000,51236.000000,26389.000000
31448.000000,50980.000000,51198.000000,26382.000000
31424.000000,50996.000000,51210.000000,26363.000000
31448.000000,50995.000000,51193.000000,26369.000000
31452.000000,50930.000000,51189.000000,26383.000000
31419.000000,50955.000000,51202.000000,26369.000000
31440.000000,50953.000000,51217.000000,26377.000000
31410.000000,50953.000000,51197.000000,26349.000000
31394.000000,50954.000000,51190.000000,26364.000000
31420.000000,50910.000000,51233.000000,26349.000000
31366.000000,50936.000000,51177.000000,26338.000000
31407.000000,50914.000000,51196.000000,26346.000000
31387.000000,50905.000000,51174.000000,26353.000000
31382.000000,50893.000000,51174.000000,26350.000000
31359.000000,50892.000000,51174.000000,26330.000000
31363.000000,50891.000000,51142.000000,26350.000000
31371.000000,50851.000000,51177.000000,26359.000000
31377.000000,50892.000000,51150.000000,26345.000000
31321.000000,50865.000000,51155.000000,26353.000000
31336.000000,50896.000000,51152.000000,26348.000000
31346.000000,50851.000000,51134.000000,26344.000000
31305.000000,50864.000000,51126.000000,26339.000000
31326.000000,50883.000000,51129.000000,26332.000000
31329.000000,50831.000000,51141.000000,26333.000000
31311.000000,50832.000000,51146.000000,26348.000000
31352.000000,50862.000000,51146.000000,26320.000000
31343.000000,50828.000000,51127.000000,26337.000000
31299.000000,50914.000000,51127.000000,26311.000000
31322.000000,50861.000000,51122.000000,26319.000000
31324.000000,50888.000000,51157.000000,26336.000000
31361.000000,50873.000000,51144.000000,26321.000000
31344.000000,50900.000000,51156.000000,26343.000000
31367.000000,50904.000000,51154.000000,26328.000000
31401.000000,50913.000000,51164.000000,26337.000000
31369.000000,50916.000000,51184.000000,26343.000000
31442.000000,50985.000000,51188.000000,26343.000000
31480.000000,50975.000000,51202.000000,26386.000000
31484.000000,50995.000000,51227.000000,26375.000000
31504.000000,51016.000000,51224.000000,26386.000000
31537.000000,51025.000000,51241.000000,26407.000000
31518.000000,51094.000000,51227.000000,26407.000000
31509.000000,51055.000000,51261.000000,26388.000000
31530.000000,51055.000000,51266.000000,26412.000000
31575.000000,51106.000000,51280.000000,26397.000000
31614.000000,51114.000000,51318.000000,26421.000000
31590.000000,51162.000000,51336.000000,26418.000000
31663.000000,51154.000000,51302.000000,26433.000000
31658.000000,51151.000000,51301.000000,26460.000000
31719.000000,51230.000000,51378.000000,26452.000000
31743.000000,51244.000000,51382.000000,26469.000000
31708.000000,51271.000000,51393.000000,26473.000000
31761.000000,51307.000000,51379.000000,26472.000000
31779.000000,51303.000000,51410.000000,26476.000000
31839.000000,51366.000000,51453.000000,26486.000000
31864.000000,51368.000000,51427.000000,26494.000000
31832.000000,51381.000000,51467.000000,26508.000000
31858.000000,51402.000000,51441.000000,26503.000000
31839.000000,51379.000000,51453.000000,26521.000000
31844.000000,51392.000000,51442.000000,26488.000000
31858.000000,51401.000000,51413.000000,26528.000000
31853.000000,51381.000000,51446.000000,26507.000000
31828.000000,51352.000000,51435.000000,26490.000000
31800.000000,51334.000000,51455.000000,26481.000000
31822.000000,51327.000000,51430.000000,26482.000000
31806.000000,51317.000000,51413.000000,26490.000000
31769.000000,51309.000000,51438.000000,26497.000000
31779.000000,51298.000000,51407.000000,26479.000000
31792.000000,51299.000000,51389.000000,26479.000000
31764.000000,51316.000000,51398.000000,26498.000000
31760.000000,51277.000000,51401.000000,26463.000000
31732.000000,51270.000000,51425.000000,26463.000000
31738.000000,51298.000000,51363.000000,26463.000000
31725.000000,51244.000000,51347.000000,26499.000000
31718.000000,51220.000000,51387.000000,26441.000000
31707.000000,51247.000000,51335.000000,26451.000000
31707.000000,51242.000000,51369.000000,26469.000000
31701.000000,51241.000000,51330.000000,26468.000000
31709.000000,51204.000000,51359.000000,26477.000000
31641.000000,51212.000000,51366.000000,26465.000000
31666.000000,51205.000000,51339.000000,26455.000000
31650.000000,51174.000000,51334.000000,26457.000000
31658.000000,51178.000000,51358.000000,26445.000000
31623.000000,51131.000000,51315.000000,26440.000000
31624.000000,51187.000000,51314.000000,26418.000000
31573.000000,51127.000000,51312.000000,26428.000000
31600.000000,51111.000000,51286.000000,26428.000000
31557.000000,51129.000000,51303.000000,26426.000000
31573.000000,51117.000000,51305.000000,26419.000000
31605.000000,51115.000000,51284.000000,26405.000000
31570.000000,51126.000000,51283.000000,26438.000000
31556.000000,51082.000000,51279.000000,26395.000000
31506.000000,51029.000000,51277.000000,26401.000000
31464.000000,51050.000000,51263.000000,26392.000000
31514.000000,51051.000000,51230.000000,26392.000000
31459.000000,51030.000000,51221.000000,26385.000000
31471.000000,51037.000000,51188.000000,26393.000000
31449.000000,51032.000000,51208.000000,26383.000000
31421.000000,51006.000000,51227.000000,26375.000000
31457.000000,50979.000000,51218.000000,26387.000000
31433.000000,50990.000000,51218.000000,26357.000000
31449.000000,50973.000000,51185.000000,26362.000000
31415.000000,50964.000000,51196.000000,26371.000000
31381.000000,50951.000000,51144.000000,26355.000000
31394.000000,50952.000000,51174.000000,26377.000000
31367.000000,50933.000000,51188.000000,26366.000000
31397.000000,50935.000000,51161.000000,26383.000000
31343.000000,50921.000000,51152.000000,26372.000000
31358.000000,50921.000000,51162.000000,26367.000000
31372.000000,50923.000000,51159.000000,26354.000000
31339.000000,50872.000000,51169.000000,26354.000000
31331.000000,50901.000000,51130.000000,26333.000000
31329.000000,50879.000000,51124.000000,26341.000000
31301.000000,50890.000000,51124.000000,26330.000000
31309.000000,50871.000000,51128.000000,26336.000000
31313.000000,50844.000000,51119.000000,26323.000000
31318.000000,50872.000000,51091.000000,26312.000000
31269.000000,50872.000000,51096.000000,26330.000000
31291.000000,50849.000000,51155.000000,26295.000000
31277.000000,50836.000000,51094.000000,26317.000000
31261.000000,50800.000000,51111.000000,26334.000000
31294.000000,50831.000000,51094.000000,26325.000000
31296.000000,50833.000000,51100.000000,26341.000000
31285.000000,50846.000000,51119.000000,26331.000000
31328.000000,50856.000000,51112.000000,26321.000000
31268.000000,50858.000000,51140.000000,26345.000000
31288.000000,50879.000000,51160.000000,26355.000000
31364.000000,50887.000000,51129.000000,26325.000000
31349.000000,50903.000000,51173.000000,26318.000000
31358.000000,50896.000000,51150.000000,26350.000000
31349.000000,50891.000000,51175.000000,26370.000000
31378.000000,50926.000000,51148.000000,26357.000000
31387.000000,50954.000000,51182.000000,26358.000000
31394.000000,50949.000000,51198.000000,26397.000000
31410.000000,50992.000000,51178.000000,26360.000000
31465.000000,51029.000000,51197.000000,26382.000000
31492.000000,51032.000000,51213.000000,26406.000000
31499.000000,51047.000000,51235.000000,26384.000000
31486.000000,51047.000000,51232.000000,26386.000000
31548.000000,51110.000000,51253.000000,26399.000000
31564.000000,51109.000000,51301.000000,26411.000000
31558.000000,51118.000000,51276.000000,26410.000000
31580.000000,51163.000000,51292.000000,26432.000000
31648.000000,51161.000000,51293.000000,26443.000000
31627.000000,51149.000000,51332.000000,26435.000000
31675.000000,51236.000000,51357.000000,26425.000000
31702.000000,51270.000000,51359.000000,26473.000000
31695.000000,51282.000000,51393.000000,26452.000000
31739.000000,51323.000000,51390.000000,26467.000000
31723.000000,51299.000000,51411.000000,26471.000000
31775.000000,51374.000000,51420.000000,26474.000000
31806.000000,51366.000000,51419.000000,26496.000000
31792.000000,51413.000000,51453.000000,26503.000000
31848.000000,51373.000000,51441.000000,26482.000000
31788.000000,51356.000000,51450.000000,26486.000000
31844.000000,51428.000000,51432.000000,26502.000000
31794.000000,51406.000000,51442.000000,26498.000000
31811.000000,51421.000000,51447.000000,26485.000000
31828.000000,51410.000000,51449.000000,26511.000000
31813.000000,51412.000000,51437.000000,26474.000000
31810.000000,51378.000000,51459.000000,26504.000000
31776.000000,51363.000000,51459.000000,26491.000000
31757.000000,51374.000000,51429.000000,26489.000000
31783.000000,51354.000000,51410.000000,26472.000000
31752.000000,51334.000000,51414.000000,26484.000000
31747.000000,51333.000000,51407.000000,26446.000000
31728.000000,51320.000000,51407.000000,26459.000000
31692.000000,51318.000000,51412.000000,26475.000000
31697.000000,51284.000000,51380.000000,26454.000000
31702.000000,51302.000000,51413.000000,26451.000000
31706.000000,51290.000000,51389.000000,26469.000000
31682.000000,51261.000000,51389.000000,26456.000000
31710.000000,51248.000000,51372.000000,26459.000000
31666.000000,51242.000000,51356.000000,26469.000000
31629.000000,51250.000000,51353.000000,26429.000000
31658.000000,51200.000000,51320.000000,26442.000000
31647.000000,51226.000000,51358.000000,26438.000000
31641.000000,51217.000000,51344.000000,26430.000000
31601.000000,51215.000000,51351.000000,26439.000000
31612.000000,51195.000000,51306.000000,26428.000000
31592.000000,51191.000000,51351.000000,26458.000000
31569.000000,51203.000000,51314.000000,26413.000000
31611.000000,51169.000000,51313.000000,26439.000000
31536.000000,51184.000000,51324.000000,26419.000000
31549.000000,51157.000000,51302.000000,26403.000000
31503.000000,51144.000000,51298.000000,26412.000000
31533.000000,51140.000000,51311.000000,26409.000000
31497.000000,51128.000000,51309.000000,26431.000000
31515.000000,51108.000000,51240.000000,26403.000000
31520.000000,51093.000000,51245.000000,26407.000000
31454.000000,51088.000000,51259.000000,26384.000000
31479.000000,51058.000000,51250.000000,26383.000000
31457.000000,51076.000000,51250.000000,26392.000000
31443.000000,51054.000000,51237.000000,26402.000000
31428.000000,51030.000000,51246.000000,26412.000000
31437.000000,51035.000000,51255.000000,26377.000000
31409.000000,51014.000000,51202.000000,26379.000000
31383.000000,51009.000000,51210.000000,26367.000000
31389.000000,50973.000000,51204.000000,26362.000000
31389.000000,50982.000000,51194.000000,26376.000000
31369.000000,50993.000000,51220.000000,26382.000000
31349.000000,50985.000000,51198.000000,26389.000000
31385.000000,50975.000000,51172.000000,26372.000000
31366.000000,50962.000000,51181.000000,26380.000000
31351.000000,50949.000000,51198.000000,26372.000000
31386.000000,50930.000000,51190.000000,26378.000000
31323.000000,50900.000000,51164.000000,26372.000000
31327.000000,50925.000000,51153.000000,26340.000000
31317.000000,50911.000000,51147.000000,26351.000000
31281.000000,50924.000000,51124.000000,26349.000000
31302.000000,50885.000000,51144.000000,26336.000000
31281.000000,50884.000000,51149.000000,26333.000000
31295.000000,50896.000000,51111.000000,26351.000000
31243.000000,50869.000000,51156.000000,26322.000000
31255.000000,50865.000000,51104.000000,26302.000000
31270.000000,50853.000000,51123.000000,26331.000000
31219.000000,50810.000000,51102.000000,26314.000000
31254.000000,50804.000000,51093.000000,26335.000000
31224.000000,50837.000000,51125.000000,26322.000000
31246.000000,50811.000000,51086.000000,26346.000000
31224.000000,50796.000000,51087.000000,26317.000000
31218.000000,50819.000000,51083.000000,26311.000000
31219.000000,50792.000000,51061.000000,26330.000000
31160.000000,50804.000000,51081.000000,26291.000000
31186.000000,50793.000000,51083.000000,26305.000000
31148.000000,50787.000000,51077.000000,26311.000000
31245.000000,50759.000000,51057.000000,26294.000000
31218.000000,50760.000000,51075.000000,26316.000000
31130.000000,50738.000000,51069.000000,26301.000000
31174.000000,50766.000000,51050.000000,26295.000000
31189.000000,50763.000000,51072.000000,26284.000000
31184.000000,50779.000000,51038.000000,26287.000000
31136.000000,50741.000000,51050.000000,26341.000000
31197.000000,50771.000000,51058.000000,26316.000000
31231.000000,50774.000000,51092.000000,26330.000000
31228.000000,50795.000000,51070.000000,26332.000000
31270.000000,50820.000000,51079.000000,26326.000000
31246.000000,50784.000000,51128.000000,26349.000000
31277.000000,50904.000000,51130.000000,26370.000000
31309.000000,50868.000000,51122.000000,26358.000000
31307.000000,50901.000000,51160.000000,26351.000000
31350.000000,50938.000000,51165.000000,26358.000000
31384.000000,50956.000000,51165.000000,26382.000000
31384.000000,50982.000000,51156.000000,26397.000000
31405.000000,50970.000000,51189.000000,26392.000000
31407.000000,51035.000000,51225.000000,26375.000000
31447.000000,50983.000000,51204.000000,26395.000000
31433.000000,51012.000000,51225.000000,26382.000000
31489.000000,51074.000000,51231.000000,26407.000000
31484.000000,51040.000000,51259.000000,26387.000000
31505.000000,51064.000000,51237.000000,26419.000000
31518.000000,51064.000000,51275.000000,26421.000000
31551.000000,51124.000000,51289.000000,26442.000000
31610.000000,51178.000000,51297.000000,26457.000000
31593.000000,51156.000000,51325.000000,26440.000000
31654.000000,51219.000000,51315.000000,26431.000000
31686.000000,51290.000000,51382.000000,26498.000000
31687.000000,51311.000000,51367.000000,26476.000000
31719.000000,51296.000000,51392.000000,26474.000000
31705.000000,51313.000000,51396.000000,26488.000000
31734.000000,51320.000000,51401.000000,26501.000000
31750.000000,51327.000000,51410.000000,26500.000000
31759.000000,51330.000000,51390.000000,26473.000000
31725.000000,51319.000000,51400.000000,26480.000000
31736.000000,51325.000000,51378.000000,26471.000000
31744.000000,51340.000000,51390.000000,26487.000000
31730.000000,51315.000000,51350.000000,26478.000000
31713.000000,51310.000000,51350.000000,26495.000000
31693.000000,51280.000000,51379.000000,26455.000000
31679.000000,51283.000000,51380.000000,26472.000000
31682.000000,51279.000000,51400.000000,26502.000000
31671.000000,51270.000000,51384.000000,26476.000000
31672.000000,51264.000000,51357.000000,26465.000000
31624.000000,51246.000000,51354.000000,26444.000000
31634.000000,51206.000000,51331.000000,26469.000000
31597.000000,51231.000000,51314.000000,26460.000000
31644.000000,51228.000000,51347.000000,26467.000000
31617.000000,51222.000000,51344.000000,26454.000000
31621.000000,51221.000000,51318.000000,26454.000000
31623.000000,51200.000000,51316.000000,26452.000000
31582.000000,51169.000000,51312.000000,26429.000000
31592.000000,51139.000000,51306.000000,26447.000000
31561.000000,51154.000000,51311.000000,26425.000000
31573.000000,51133.000000,51310.000000,26451.000000
31541.000000,51130.000000,51282.000000,26433.000000
31533.000000,51132.000000,51271.000000,26412.000000
31492.000000,51115.000000,51278.000000,26430.000000
31524.000000,51134.000000,51241.000000,26424.000000
31520.000000,51098.000000,51270.000000,26423.000000
31466.000000,51071.000000,51253.000000,26415.000000
31512.000000,51115.000000,51278.000000,26438.000000
31501.000000,51060.000000,51269.000000,26420.000000
31497.000000,51076.000000,51250.000000,26419.000000
31448.000000,51064.000000,51221.000000,26406.000000
31442.000000,51059.000000,51251.000000,26405.000000
31453.000000,50984.000000,51240.000000,26418.000000
31415.000000,51013.000000,51233.000000,26403.000000
31443.000000,51030.000000,51190.000000,26417.000000
31413.000000,51013.000000,51254.000000,26377.000000
31421.000000,50979.000000,51183.000000,26383.000000
31411.000000,50988.000000,51216.000000,26392.000000
31405.000000,50990.000000,51176.000000,26381.000000
31384.000000,50967.000000,51184.000000,26413.000000
31359.000000,50978.000000,51199.000000,26378.000000
31378.000000,50967.000000,51192.000000,26394.000000
31354.000000,50934.000000,51192.000000,26384.000000
31345.000000,50909.000000,51162.000000,26370.000000
31306.000000,50924.000000,51145.000000,26374.000000
31333.000000,50938.000000,51148.000000,26379.000000
31351.000000,50892.000000,51156.000000,26376.000000
31309.000000,50899.000000,51189.000000,26379.000000
31313.000000,50881.000000,51135.000000,26368.000000
31305.000000,50880.000000,51146.000000,26335.000000
31290.000000,50895.000000,51131.000000,26350.000000
31297.000000,50835.000000,51129.000000,26365.000000
31292.000000,50849.000000,51143.000000,26366.000000
31290.000000,50847.000000,51126.000000,26352.000000
31268.000000,50846.000000,51131.000000,26338.000000
31314.000000,50848.000000,51127.000000,26371.000000
31241.000000,50820.000000,51101.000000,26392.000000
31250.000000,50823.000000,51096.000000,26341.000000
31274.000000,50823.000000,51090.000000,26358.000000
31264.000000,50820.000000,51119.000000,26369.000000
31277.000000,50825.000000,51102.000000,26341.000000
31232.000000,50843.000000,51108.000000,26334.000000
31256.000000,50806.000000,51097.000000,26351.000000
31223.000000,50804.000000,51097.000000,26341.000000
31176.000000,50760.000000,51053.000000,26311.000000
31221.000000,50751.000000,51061.000000,26313.000000
31142.000000,50765.000000,51075.000000,26318.000000
31216.000000,50754.000000,51036.000000,26316.000000
31193.000000,50742.000000,51054.000000,26303.000000
31168.000000,50776.000000,51057.000000,26324.000000
31182.000000,50747.000000,51053.000000,26322.000000
31181.000000,50770.000000,51061.000000,26318.000000
31171.000000,50753.000000,51066.000000,26305.000000
31171.000000,50747.000000,51084.000000,26331.000000
31227.000000,50748.000000,51034.000000,26355.000000
31193.000000,50761.000000,51073.000000,26316.000000
31205.000000,50792.000000,51046.000000,26333.000000
31220.000000,50759.000000,51059.000000,26326.000000
31218.000000,50797.000000,51069.000000,26304.000000
31228.000000,50793.000000,51086.000000,26339.000000
31228.000000,50835.000000,51080.000000,26343.000000
31275.000000,50782.000000,51102.000000,26358.000000
31245.000000,50804.000000,51125.000000,26337.000000
31298.000000,50895.000000,51099.000000,26368.000000
31315.000000,50868.000000,51131.000000,26347.000000
31329.000000,50884.000000,51154.000000,26353.000000
31363.000000,50897.000000,51146.000000,26368.000000
31361.000000,50922.000000,51174.000000,26390.000000
31386.000000,50949.000000,51174.000000,26370.000000
31405.000000,50958.000000,51200.000000,26368.000000
31435.000000,50989.000000,51197.000000,26383.000000
31416.000000,50983.000000,51181.000000,26404.000000
31441.000000,51027.000000,51217.000000,26407.000000
31492.000000,51056.000000,51232.000000,26408.000000
31521.000000,51063.000000,51245.000000,26396.000000
31503.000000,51116.000000,51274.000000,26416.000000
31537.000000,51120.000000,51270.000000,26415.000000
31566.000000,51119.000000,51304.000000,26453.000000
31573.000000,51164.000000,51271.000000,26438.000000
31594.000000,51140.000000,51313.000000,26440.000000
31621.000000,51200.000000,51312.000000,26426.000000
31657.000000,51168.000000,51339.000000,26448.000000
31641.000000,51224.000000,51343.000000,26432.000000
31690.000000,51231.000000,51357.000000,26452.000000
31687.000000,51266.000000,51390.000000,26424.000000
31720.000000,51324.000000,51427.000000,26466.000000
31778.000000,51334.000000,51430.000000,26479.000000
31800.000000,51388.000000,51443.000000,26515.000000
31788.000000,51368.000000,51426.000000,26497.000000
31813.000000,51371.000000,51417.000000,26501.000000
31765.000000,51361.000000,51448.000000,26518.000000
31778.000000,51385.000000,51413.000000,26489.000000
31770.000000,51324.000000,51449.000000,26501.000000
31787.000000,51355.000000,51419.000000,26509.000000
31763.000000,51338.000000,51377.000000,26509.000000
31731.000000,51323.000000,51396.000000,26447.000000
31709.000000,51285.000000,51398.000000,26478.000000
31699.000000,51276.000000,51423.000000,26482.000000
31734.000000,51282.000000,51375.000000,26460.000000
31685.000000,51297.000000,51378.000000,26483.000000
31727.000000,51306.000000,51406.000000,26492.000000
31700.000000,51280.000000,51366.000000,26483.000000
31690.000000,51237.000000,51399.000000,26454.000000
31688.000000,51265.000000,51389.000000,26470.000000
31681.000000,51250.000000,51395.000000,26482.000000
31654.000000,51255.000000,51348.000000,26448.000000
31651.000000,51270.000000,51380.000000,26452.000000
31624.000000,51241.000000,51354.000000,26463.000000
31666.000000,51207.000000,51354.000000,26448.000000
31633.000000,51210.000000,51374.000000,26455.000000
31663.000000,51209.000000,51345.000000,26443.000000
31621.000000,51214.000000,51340.000000,26438.000000
31616.000000,51206.000000,51329.000000,26449.000000
31598.000000,51194.000000,51335.000000,26453.000000
31585.000000,51174.000000,51330.000000,26441.000000
31602.000000,51173.000000,51313.000000,26416.000000
31561.000000,51100.000000,51304.000000,26431.000000
31562.000000,51117.000000,51285.000000,26406.000000
31572.000000,51118.000000,51261.000000,26453.000000
31532.000000,51131.000000,51298.000000,26445.000000
31524.000000,51108.000000,51295.000000,26414.000000
31536.000000,51104.000000,51297.000000,26397.000000
31532.000000,51094.000000,51253.000000,26414.000000
31501.000000,51102.000000,51261.000000,26402.000000
31483.000000,51103.000000,51259.000000,26424.000000
31478.000000,51058.000000,51238.000000,26389.000000
31448.000000,51063.000000,51245.000000,26391.000000
31472.000000,51025.000000,51233.000000,26396.000000
31424.000000,51031.000000,51235.000000,26393.000000
31440.000000,51025.000000,51236.000000,26407.000000
31431.000000,50998.000000,51237.000000,26391.000000
31444.000000,51024.000000,51235.000000,26398.000000
31391.000000,50975.000000,51203.000000,26403.000000
31435.000000,50980.000000,51203.000000,26382.000000
31387.000000,50984.000000,51209.000000,26388.000000
31404.000000,50954.000000,51183.000000,26383.000000
31391.000000,50962.000000,51185.000000,26377.000000
31392.000000,50954.000000,51156.000000,26372.000000
31372.000000,50940.000000,51169.000000,26385.000000
31362.000000,50971.000000,51154.000000,26397.000000
31352.000000,50925.000000,51158.000000,26362.000000
31334.000000,50905.000000,51153.000000,26376.000000
31349.000000,50909.000000,51129.000000,26369.000000
31297.000000,50893.000000,51168.000000,26371.000000
31323.000000,50898.000000,51125.000000,26361.000000
31311.000000,50870.000000,51153.000000,26347.000000
31344.000000,50879.000000,51165.000000,26350.000000
31285.000000,50850.000000,51127.000000,26360.000000
31285.000000,50898.000000,51153.000000,26331.000000
31314.000000,50869.000000,51137.000000,26359.000000
31273.000000,50874.000000,51144.000000,26337.000000
31306.000000,50877.000000,51141.000000,26363.000000
31280.000000,50878.000000,51141.000000,26317.000000
31243.000000,50829.000000,51075.000000,26324.000000
31309.000000,50805.000000,51099.000000,26337.000000
31243.000000,50823.000000,51119.000000,26345.000000
31271.000000,50817.000000,51079.000000,26365.000000
31237.000000,50839.000000,51137.000000,26353.000000
31225.000000,50817.000000,51113.000000,26326.000000
31270.000000,50806.000000,51089.000000,26331.000000
31266.000000,50805.000000,51121.000000,26322.000000
31269.000000,50821.000000,51093.000000,26354.000000
31234.000000,50782.000000,51099.000000,26336.000000
31223.000000,50809.000000,51093.000000,26292.000000
31290.000000,50808.000000,51068.000000,26329.000000
31240.000000,50843.000000,51132.000000,26320.000000
31298.000000,50836.000000,51099.000000,26352.000000
31290.000000,50862.000000,51125.000000,26348.000000
31293.000000,50870.000000,51140.000000,26344.000000
31303.000000,50867.000000,51129.000000,26340.000000
31324.000000,50890.000000,51159.000000,26328.000000
31352.000000,50914.000000,51142.000000,26379.000000
31346.000000,50913.000000,51160.000000,26338.000000
31372.000000,50920.000000,51166.000000,26338.000000
31424.000000,50974.000000,51177.000000,26392.000000
31441.000000,50993.000000,51207.000000,26378.000000
31454.000000,51009.000000,51189.000000,26373.000000
31459.000000,50981.000000,51206.000000,26377.000000
31462.000000,51034.000000,51236.000000,26406.000000
31521.000000,51062.000000,51278.000000,26396.000000
31524.000000,51155.000000,51268.000000,26390.000000
31563.000000,51084.000000,51281.000000,26409.000000
31547.000000,51127.000000,51306.000000,26408.000000
31591.000000,51175.000000,51293.000000,26432.000000
31588.000000,51162.000000,51346.000000,26433.000000
31625.000000,51192.000000,51309.000000,26445.000000
31658.000000,51204.000000,51333.000000,26466.000000
31680.000000,51260.000000,51393.000000,26464.000000
31725.000000,51325.000000,51389.000000,26483.000000
31756.000000,51314.000000,51425.000000,26485.000000
31773.000000,51319.000000,51406.000000,26476.000000
31762.000000,51342.000000,51419.000000,26487.000000
31811.000000,51391.000000,51427.000000,26478.000000
31823.000000,51383.000000,51453.000000,26469.000000
31788.000000,51404.000000,51483.000000,26481.000000
31837.000000,51417.000000,51458.000000,26519.000000
31827.000000,51424.000000,51467.000000,26510.000000
31852.000000,51462.000000,51457.000000,26501.000000
31834.000000,51440.000000,51465.000000,26492.000000
31807.000000,51438.000000,51481.000000,26499.000000
31837.000000,51430.000000,51454.000000,26505.000000
31811.000000,51417.000000,51488.000000,26511.000000
31803.000000,51411.000000,51454.000000,26490.000000
31777.000000,51387.000000,51461.000000,26506.000000
31804.000000,51447.000000,51443.000000,26467.000000
31796.000000,51372.000000,51404.000000,26502.000000
31770.000000,51402.000000,51445.000000,26501.000000
31790.000000,51384.000000,51426.000000,26503.000000
31756.000000,51353.000000,51437.000000,26465.000000
31748.000000,51374.000000,51408.000000,26476.000000
31744.000000,51324.000000,51437.000000,26495.000000
31704.000000,51351.000000,51383.000000,26477.000000
31691.000000,51309.000000,51368.000000,26496.000000
31678.000000,51303.000000,51429.000000,26462.000000
31693.000000,51286.000000,51392.000000,26475.000000
31694.000000,51265.000000,51403.000000,26455.000000
31680.000000,51283.000000,51372.000000,26444.000000
31662.000000,51283.000000,51388.000000,26483.000000
31652.000000,51253.000000,51366.000000,26455.000000
31666.000000,51240.000000,51357.000000,26453.000000
31635.000000,51231.000000,51362.000000,26474.000000
31631.000000,51198.000000,51357.000000,26447.000000
31631.000000,51224.000000,51316.000000,26474.000000
31628.000000,51213.000000,51345.000000,26435.000000
31645.000000,51194.000000,51323.000000,26456.000000
31613.000000,51200.000000,51329.000000,26430.000000
31596.000000,51189.000000,51322.000000,26425.000000
31542.000000,51161.000000,51316.000000,26439.000000
31543.000000,51178.000000,51312.000000,26431.000000
31527.000000,51122.000000,51327.000000,26413.000000
31507.000000,51115.000000,51292.000000,26424.000000
31530.000000,51096.000000,51287.000000,26417.000000
31493.000000,51145.000000,51276.000000,26408.000000
31492.000000,51091.000000,51291.000000,26432.000000
31476.000000,51078.000000,51277.000000,26402.000000
31425.000000,51092.000000,51275.000000,26407.000000
31445.000000,51083.000000,51244.000000,26383.000000
31455.000000,51062.000000,51220.000000,26386.000000
31462.000000,51039.000000,51245.000000,26392.000000
31433.000000,51034.000000,51244.000000,26386.000000
31443.000000,51052.000000,51237.000000,26379.000000
31451.000000,51053.000000,51218.000000,26391.000000
31434.000000,51025.000000,51236.000000,26380.000000
31412.000000,51010.000000,51224.000000,26404.000000
31395.000000,51047.000000,51219.000000,26391.000000
31382.000000,50991.000000,51230.000000,26379.000000
31402.000000,50989.000000,51206.000000,26383.000000
31401.000000,50993.000000,51188.000000,26365.000000
31361.000000,50968.000000,51218.000000,26367.000000
31362.000000,50969.000000,51192.000000,26366.000000
31363.000000,50967.000000,51203.000000,26374.000000
31330.000000,50946.000000,51200.000000,26360.000000
31392.000000,50938.000000,51177.000000,26361.000000
31331.000000,50948.000000,51197.000000,26381.000000
31350.000000,50963.000000,51195.000000,26355.000000
31312.000000,50953.000000,51163.000000,26355.000000
31341.000000,50940.000000,51199.000000,26356.000000
31330.000000,50908.000000,51166.000000,26360.000000
31301.000000,50906.000000,51200.000000,26374.000000
31330.000000,50887.000000,51177.000000,26368.000000
31321.000000,50924.000000,51165.000000,26349.000000
31308.000000,50932.000000,51137.000000,26332.000000
31308.000000,50919.000000,51134.000000,26354.000000
31295.000000,50900.000000,51154.000000,26342.000000
31297.000000,50902.000000,51145.000000,26350.000000
31287.000000,50904.000000,51148.000000,26343.000000
31276.000000,50882.000000,51149.000000,26348.000000
31301.000000,50860.000000,51137.000000,26340.000000
31283.000000,50864.000000,51129.000000,26319.000000
31315.000000,50900.000000,51127.000000,26359.000000
31270.000000,50886.000000,51143.000000,26344.000000
31305.000000,50897.000000,51151.000000,26340.000000
31302.000000,50867.000000,51147.000000,26356.000000
31322.000000,50933.000000,51124.000000,26350.000000
31316.000000,50896.000000,51153.000000,26345.000000
31308.000000,50899.000000,51147.000000,26330.000000
31392.000000,50970.000000,51173.000000,26382.000000
31368.000000,50981.000000,51214.000000,26349.000000
31403.000000,51014.000000,51204.000000,26379.000000
31412.000000,50986.000000,51207.000000,26397.000000
31401.000000,51037.000000,51240.000000,26379.000000
31429.000000,51038.000000,51211.000000,26367.000000
31460.000000,51070.000000,51233.000000,26390.000000
31468.000000,51052.000000,51246.000000,26392.000000
31504.000000,51079.000000,51273.000000,26442.000000
31559.000000,51182.000000,51303.000000,26429.000000
31573.000000,51148.000000,51341.000000,26420.000000
31595.000000,51176.000000,51332.000000,26418.000000
31588.000000,51200.000000,51358.000000,26487.000000
31608.000000,51219.000000,51367.000000,26449.000000
31650.000000,51237.000000,51341.000000,26434.000000
31648.000000,51273.000000,51355.000000,26459.000000
31692.000000,51271.000000,51382.000000,26480.000000
31718.000000,51298.000000,51406.000000,26464.000000
31766.000000,51358.000000,51445.000000,26495.000000
31772.000000,51355.000000,51453.000000,26516.000000
31822.000000,51434.000000,51461.000000,26515.000000
31847.000000,51442.000000,51486.000000,26511.000000
31822.000000,51444.000000,51514.000000,26509.000000
31894.000000,51493.000000,51505.000000,26504.000000
31890.000000,51476.000000,51514.000000,26521.000000
31870.000000,51522.000000,51551.000000,26521.000000
31872.000000,51491.000000,51508.000000,26540.000000
31864.000000,51481.000000,51522.000000,26531.000000
31903.000000,51472.000000,51504.000000,26511.000000
31863.000000,51475.000000,51531.000000,26544.000000
31865.000000,51486.000000,51484.000000,26513.000000
31869.000000,51463.000000,51497.000000,26512.000000
31837.000000,51438.000000,51532.000000,26511.000000
31850.000000,51435.000000,51506.000000,26529.000000
31822.000000,51392.000000,51498.000000,26495.000000
31809.000000,51417.000000,51490.000000,26517.000000
31792.000000,51418.000000,51481.000000,26500.000000
31779.000000,51386.000000,51470.000000,26501.000000
31808.000000,51371.000000,51472.000000,26500.000000
31810.000000,51404.000000,51465.000000,26499.000000
31792.000000,51383.000000,51456.000000,26505.000000
31793.000000,51373.000000,51488.000000,26501.000000
31770.000000,51344.000000,51450.000000,26485.000000
31768.000000,51298.000000,51427.000000,26478.000000
31742.000000,51338.000000,51447.000000,26499.000000
31768.000000,51361.000000,51437.000000,26479.000000
31732.000000,51324.000000,51443.000000,26482.000000
31711.000000,51296.000000,51443.000000,26464.000000
31747.000000,51301.000000,51402.000000,26476.000000
31701.000000,51293.000000,51448.000000,26468.000000
31730.000000,51277.000000,51398.000000,26462.000000
31686.000000,51262.000000,51415.000000,26468.000000
31722.000000,51236.000000,51409.000000,26470.000000
31684.000000,51274.000000,51396.000000,26464.000000
31672.000000,51245.000000,51406.000000,26438.000000
31641.000000,51242.000000,51376.000000,26441.000000
31644.000000,51216.000000,51399.000000,26435.000000
31651.000000,51217.000000,51358.000000,26416.000000
31627.000000,51213.000000,51360.000000,26447.000000
31615.000000,51244.000000,51361.000000,26420.000000
31645.000000,51217.000000,51357.000000,26447.000000
31603.000000,51221.000000,51354.000000,26447.000000
31592.000000,51141.000000,51331.000000,26404.000000
31573.000000,51134.000000,51350.000000,26390.000000
31580.000000,51176.000000,51334.000000,26417.000000
31560.000000,51147.000000,51353.000000,26403.000000
31547.000000,51146.000000,51297.000000,26409.000000
31519.000000,51110.000000,51329.000000,26417.000000
31568.000000,51105.000000,51335.000000,26402.000000
31559.000000,51071.000000,51321.000000,26410.000000
31500.000000,51091.000000,51293.000000,26399.000000
31527.000000,51062.000000,51270.000000,26412.000000
31502.000000,51049.000000,51297.000000,26387.000000
31498.000000,51076.000000,51289.000000,26395.000000
31493.000000,51056.000000,51282.000000,26411.000000
31478.000000,51075.000000,51273.000000,26411.000000
31478.000000,51046.000000,51277.000000,26427.000000
31476.000000,51010.000000,51279.000000,26393.000000
31471.000000,51011.000000,51251.000000,26369.000000
31455.000000,51014.000000,51277.000000,26380.000000
31476.000000,51010.000000,51261.000000,26367.000000
31457.000000,50988.000000,51254.000000,26396.000000
31447.000000,51021.000000,51245.000000,26392.000000
31426.000000,51005.000000,51245.000000,26360.000000
31428.000000,51026.000000,51233.000000,26385.000000
31435.000000,51010.000000,51235.000000,26360.000000
31396.000000,50997.000000,51248.000000,26369.000000
31438.000000,50980.000000,51218.000000,26372.000000
31383.000000,50969.000000,51232.000000,26372.000000
31381.000000,50994.000000,51203.000000,26373.000000
31385.000000,50951.000000,51197.000000,26372.000000
31376.000000,50954.000000,51208.000000,26363.000000
31380.000000,50935.000000,51197.000000,26336.000000
31389.000000,50946.000000,51192.000000,26364.000000
31392.000000,50920.000000,51228.000000,26340.000000
31382.000000,50917.000000,51212.000000,26338.000000
31386.000000,50930.000000,51198.000000,26370.000000
31384.000000,50923.000000,51213.000000,26364.000000
31401.000000,50956.000000,51193.000000,26362.000000
31441.000000,50989.000000,51215.000000,26379.000000
31378.000000,50963.000000,51257.000000,26361.000000
31458.000000,50976.000000,51212.000000,26366.000000
31444.000000,51014.000000,51264.000000,26373.000000
31495.000000,51069.000000,51279.000000,26393.000000
31472.000000,51055.000000,51233.000000,26395.000000
31480.000000,51090.000000,51236.000000,26413.000000
31543.000000,51088.000000,51286.000000,26404.000000
31540.000000,51098.000000,51318.000000,26419.000000
31566.000000,51134.000000,51311.000000,26406.000000
31594.000000,51116.000000,51333.000000,26413.000000
31617.000000,51145.000000,51316.000000,26445.000000
31603.000000,51156.000000,51331.000000,26427.000000
31590.000000,51197.000000,51350.000000,26416.000000
31608.000000,51165.000000,51357.000000,26473.000000
31579.000000,51176.000000,51335.000000,26440.000000
31580.000000,51162.000000,51319.000000,26457.000000
31572.000000,51144.000000,51343.000000,26443.000000
31571.000000,51130.000000,51324.000000,26452.000000
31507.000000,51117.000000,51319.000000,26433.000000
31541.000000,51141.000000,51311.000000,26442.000000
31544.000000,51102.000000,51316.000000,26439.000000
31505.000000,51100.000000,51318.000000,26426.000000
31515.000000,51095.000000,51278.000000,26439.000000
31486.000000,51088.000000,51292.000000,26442.000000
31476.000000,51068.000000,51268.000000,26412.000000
31458.000000,51053.000000,51266.000000,26399.000000
31485.000000,51073.000000,51279.000000,26427.000000
31466.000000,51045.000000,51286.000000,26415.000000
31427.000000,50998.000000,51254.000000,26415.000000
31431.000000,51017.000000,51234.000000,26400.000000
31437.000000,50985.000000,51239.000000,26421.000000
31394.000000,51006.000000,51240.000000,26409.000000
31380.000000,50966.000000,51211.000000,26435.000000
31376.000000,50976.000000,51230.000000,26392.000000
31403.000000,50951.000000,51211.000000,26407.000000
31396.000000,50932.000000,51230.000000,26393.000000
31350.000000,50974.000000,51223.000000,26415.000000
31397.000000,50948.000000,51198.000000,26417.000000
31331.000000,50899.000000,51231.000000,26393.000000
31347.000000,50934.000000,51212.000000,26415.000000
31351.000000,50941.000000,51198.000000,26391.000000
31331.000000,50908.000000,51187.000000,26365.000000
31347.000000,50877.000000,51171.000000,26380.000000
31326.000000,50886.000000,51179.000000,26382.000000
31305.000000,50870.000000,51150.000000,26362.000000
31289.000000,50867.000000,51185.000000,26352.000000
31312.000000,50864.000000,51168.000000,26348.000000
31300.000000,50837.000000,51173.000000,26347.000000
31294.000000,50847.000000,51167.000000,26347.000000
31279.000000,50837.000000,51175.000000,26379.000000
31290.000000,50831.000000,51146.000000,26361.000000
31260.000000,50820.000000,51125.000000,26369.000000
31229.000000,50818.000000,51125.000000,26383.000000
31249.000000,50799.000000,51129.000000,26346.000000
31222.000000,50776.000000,51134.000000,26346.000000
31234.000000,50809.000000,51117.000000,26340.000000
31220.000000,50796.000000,51103.000000,26354.000000
31176.000000,50745.000000,51113.000000,26334.000000
31189.000000,50769.000000,51108.000000,26342.000000
31173.000000,50732.000000,51074.000000,26321.000000
31154.000000,50746.000000,51076.000000,26330.000000
31161.000000,50729.000000,51072.000000,26337.000000
31137.000000,50699.000000,51083.000000,26324.000000
31186.000000,50686.000000,51103.000000,26331.000000
31147.000000,50719.000000,51075.000000,26326.000000
31155.000000,50712.000000,51082.000000,26317.000000
31172.000000,50726.000000,51066.000000,26329.000000
31172.000000,50726.000000,51086.000000,26319.000000
31215.000000,50755.000000,51102.000000,26331.000000
31222.000000,50765.000000,51103.000000,26373.000000
31219.000000,50791.000000,51133.000000,26335.000000
31243.000000,50796.000000,51095.000000,26368.000000
31269.000000,50791.000000,51136.000000,26354.000000
31287.000000,50818.000000,51124.000000,26352.000000
31262.000000,50817.000000,51156.000000,26358.000000
31297.000000,50863.000000,51143.000000,26371.000000
31310.000000,50867.000000,51145.000000,26356.000000
31325.000000,50882.000000,51159.000000,26395.000000
31379.000000,50898.000000,51177.000000,26389.000000
31311.000000,50900.000000,51187.000000,26394.000000
31377.000000,50933.000000,51191.000000,26414.000000
31414.000000,50975.000000,51219.000000,26412.000000
31416.000000,50960.000000,51255.000000,26423.000000
31469.000000,50973.000000,51226.000000,26411.000000
31452.000000,51032.000000,51289.000000,26393.000000
31493.000000,51044.000000,51257.000000,26431.000000
31498.000000,51061.000000,51241.000000,26442.000000
31514.000000,51084.000000,51270.000000,26446.000000
31523.000000,51062.000000,51310.000000,26448.000000
31515.000000,51123.000000,51314.000000,26443.000000
31560.000000,51134.000000,51315.000000,26457.000000
31570.000000,51135.000000,51316.000000,26460.000000
31640.000000,51207.000000,51384.000000,26463.000000
31669.000000,51226.000000,51367.000000,26489.000000
31659.000000,51234.000000,51395.000000,26474.000000
31697.000000,51245.000000,51399.000000,26497.000000
31683.000000,51288.000000,51411.000000,26499.000000
31694.000000,51304.000000,51433.000000,26504.000000
31737.000000,51309.000000,51397.000000,26530.000000
31699.000000,51291.000000,51392.000000,26510.000000
31690.000000,51254.000000,51421.000000,26505.000000
31665.000000,51251.000000,51399.000000,26478.000000
31673.000000,51240.000000,51378.000000,26505.000000
31637.000000,51254.000000,51410.000000,26511.000000
31629.000000,51223.000000,51389.000000,26486.000000
31650.000000,51232.000000,51405.000000,26488.000000
31619.000000,51236.000000,51359.000000,26510.000000
31627.000000,51210.000000,51366.000000,26504.000000
31625.000000,51228.000000,51371.000000,26501.000000
31582.000000,51169.000000,51361.000000,26473.000000
31601.000000,51176.000000,51332.000000,26464.000000
31582.000000,51168.000000,51349.000000,26462.000000
31593.000000,51168.000000,51378.000000,26452.000000
31583.000000,51155.000000,51343.000000,26486.000000
31545.000000,51135.000000,51336.000000,26459.000000
31541.000000,51156.000000,51345.000000,26453.000000
31534.000000,51101.000000,51302.000000,26472.000000
31529.000000,51117.000000,51328.000000,26453.000000
31516.000000,51086.000000,51314.000000,26462.000000
31527.000000,51098.000000,51301.000000,26485.000000
31500.000000,51128.000000,51270.000000,26438.000000
31515.000000,51096.000000,51287.000000,26449.000000
31489.000000,51084.000000,51312.000000,26450.000000
31477.000000,51078.000000,51287.000000,26439.000000
31467.000000,51079.000000,51266.000000,26463.000000
31463.000000,51056.000000,51277.000000,26432.000000
31446.000000,51041.000000,51267.000000,26451.000000
31419.000000,51052.000000,51263.000000,26417.000000
31442.000000,51005.000000,51256.000000,26416.000000
31405.000000,51015.000000,51263.000000,26435.000000
31392.000000,50994.000000,51235.000000,26425.000000
31410.000000,51002.000000,51216.000000,26420.000000
31387.000000,50989.000000,51212.000000,26409.000000
31375.000000,50970.000000,51221.000000,26418.000000
31344.000000,50957.000000,51239.000000,26404.000000
31397.000000,50946.000000,51203.000000,26412.000000
31331.000000,50937.000000,51233.000000,26401.000000
31377.000000,50944.000000,51204.000000,26387.000000
31319.000000,50890.000000,51185.000000,26399.000000
31273.000000,50856.000000,51182.000000,26368.000000
31301.000000,50920.000000,51168.000000,26382.000000
31271.000000,50894.000000,51143.000000,26368.000000
31239.000000,50866.000000,51185.000000,26361.000000
31265.000000,50871.000000,51137.000000,26384.000000
31240.000000,50855.000000,51187.000000,26380.000000
31246.000000,50852.000000,51146.000000,26356.000000
31195.000000,50796.000000,51161.000000,26379.000000
31245.000000,50795.000000,51170.000000,26358.000000
31214.000000,50804.000000,51112.000000,26356.000000
31194.000000,50780.000000,51139.000000,26341.000000
31219.000000,50792.000000,51105.000000,26364.000000
31208.000000,50781.000000,51128.000000,26336.000000
31187.000000,50798.000000,51110.000000,26326.000000
31191.000000,50757.000000,51124.000000,26339.000000
31166.000000,50804.000000,51108.000000,26339.000000
31208.000000,50766.000000,51102.000000,26336.000000
31164.000000,50783.000000,51124.000000,26353.000000
31154.000000,50780.000000,51092.000000,26334.000000
31148.000000,50747.000000,51106.000000,26341.000000
31171.000000,50758.000000,51077.000000,26317.000000
31160.000000,50719.000000,51077.000000,26348.000000
31102.000000,50776.000000,51082.000000,26330.000000
31101.000000,50729.000000,51073.000000,26317.000000
31076.000000,50726.000000,51063.000000,26295.000000
31105.000000,50702.000000,51046.000000,26331.000000
31103.000000,50698.000000,51084.000000,26298.000000
31098.000000,50649.000000,51063.000000,26318.000000
31083.000000,50680.000000,51050.000000,26290.000000
31085.000000,50674.000000,51058.000000,26319.000000
31068.000000,50689.000000,51048.000000,26313.000000
31068.000000,50710.000000,51045.000000,26300.000000
31072.000000,50703.000000,51065.000000,26290.000000
31060.000000,50676.000000,51065.000000,26314.000000
31128.000000,50676.000000,51029.000000,26302.000000
31094.000000,50697.000000,51081.000000,26300.000000
31125.000000,50698.000000,51077.000000,26327.000000
31129.000000,50722.000000,51074.000000,26334.000000
31171.000000,50746.000000,51114.000000,26308.000000
31142.000000,50732.000000,51078.000000,26328.000000
31194.000000,50761.000000,51106.000000,26328.000000
31224.000000,50807.000000,51142.000000,26333.000000
31223.000000,50806.000000,51126.000000,26357.000000
31228.000000,50789.000000,51132.000000,26356.000000
31247.000000,50866.000000,51155.000000,26373.000000
31253.000000,50857.000000,51150.000000,26362.000000
31275.000000,50857.000000,51125.000000,26361.000000
31293.000000,50869.000000,51186.000000,26358.000000
31295.000000,50916.000000,51184.000000,26380.000000
31310.000000,50903.000000,51216.000000,26366.000000
31332.000000,50933.000000,51167.000000,26388.000000
31364.000000,50956.000000,51196.000000,26409.000000
31372.000000,50968.000000,51212.000000,26395.000000
31380.000000,50982.000000,51227.000000,26414.000000
31391.000000,51015.000000,51227.000000,26397.000000
31424.000000,50991.000000,51228.000000,26439.000000
31426.000000,51058.000000,51263.000000,26444.000000
31428.000000,51039.000000,51253.000000,26417.000000
31452.000000,51080.000000,51273.000000,26411.000000
31549.000000,51128.000000,51324.000000,26437.000000
31541.000000,51157.000000,51345.000000,26436.000000
31581.000000,51196.000000,51323.000000,26456.000000
31575.000000,51203.000000,51352.000000,26476.000000
31601.000000,51237.000000,51368.000000,26463.000000
31617.000000,51227.000000,51387.000000,26507.000000
31599.000000,51268.000000,51421.000000,26455.000000
31652.000000,51270.000000,51394.000000,26468.000000
31621.000000,51274.000000,51394.000000,26474.000000
31640.000000,51273.000000,51398.000000,26469.000000
31617.000000,51237.000000,51396.000000,26488.000000
31626.000000,51240.000000,51385.000000,26472.000000
31620.000000,51232.000000,51386.000000,26511.000000
31612.000000,51256.000000,51360.000000,26489.000000
31626.000000,51220.000000,51369.000000,26463.000000
31574.000000,51256.000000,51379.000000,26471.000000
31576.000000,51184.000000,51352.000000,26467.000000
31561.000000,51205.000000,51361.000000,26469.000000
31548.000000,51226.000000,51352.000000,26460.000000
31562.000000,51130.000000,51311.000000,26441.000000
31532.000000,51150.000000,51330.000000,26465.000000
31519.000000,51152.000000,51336.000000,26468.000000
31518.000000,51113.000000,51337.000000,26428.000000
31512.000000,51102.000000,51313.000000,26446.000000
31474.000000,51083.000000,51264.000000,26456.000000
31479.000000,51099.000000,51305.000000,26452.000000
31464.000000,51082.000000,51322.000000,26456.000000
31459.000000,51082.000000,51265.000000,26462.000000
31445.000000,51048.000000,51296.000000,26447.000000
31469.000000,51065.000000,51285.000000,26425.000000
31387.000000,51020.000000,51280.000000,26447.000000
31420.000000,51021.000000,51221.000000,26435.000000
31405.000000,51027.000000,51219.000000,26415.000000
31393.000000,51007.000000,51233.000000,26403.000000
31397.000000,50975.000000,51231.000000,26445.000000
31386.000000,50996.000000,51252.000000,26426.000000
31382.000000,50977.000000,51243.000000,26414.000000
31354.000000,50939.000000,51200.000000,26413.000000
31405.000000,50959.000000,51192.000000,26410.000000
31341.000000,50946.000000,51189.000000,26418.000000
31336.000000,50934.000000,51202.000000,26404.000000
31311.000000,50907.000000,51192.000000,26406.000000
31305.000000,50887.000000,51193.000000,26402.000000
31296.000000,50891.000000,51144.000000,26390.000000
31243.000000,50830.000000,51129.000000,26357.000000
31242.000000,50857.000000,51160.000000,26390.000000
31240.000000,50829.000000,51138.000000,26339.000000
31218.000000,50786.000000,51129.000000,26361.000000
31224.000000,50821.000000,51138.000000,26384.000000
31186.000000,50787.000000,51127.000000,26363.000000
31203.000000,50780.000000,51113.000000,26340.000000
31210.000000,50774.000000,51110.000000,26374.000000
31107.000000,50722.000000,51122.000000,26356.000000
31146.000000,50703.000000,51076.000000,26363.000000
31127.000000,50693.000000,51063.000000,26358.000000
31145.000000,50720.000000,51077.000000,26351.000000
31122.000000,50697.000000,51061.000000,26346.000000
31110.000000,50712.000000,51035.000000,26336.000000
30638.000000,50542.000000,50869.000000,26380.000000
30668.000000,50485.000000,50850.000000,26378.000000
30641.000000,50526.000000,50866.000000,26366.000000
30637.000000,50491.000000,50833.000000,26367.000000
30618.000000,50489.000000,50857.000000,26382.000000
30650.000000,50504.000000,50848.000000,26328.000000
30607.000000,50467.000000,50842.000000,26344.000000
30571.000000,50441.000000,50825.000000,26338.000000
30579.000000,50438.000000,50842.000000,26374.000000
30576.000000,50452.000000,50826.000000,26353.000000
30587.000000,50433.000000,50815.000000,26354.000000
30569.000000,50392.000000,50822.000000,26348.000000
30571.000000,50405.000000,50793.000000,26347.000000
30536.000000,50398.000000,50787.000000,26339.000000
30552.000000,50381.000000,50792.000000,26345.000000
30545.000000,50380.000000,50793.000000,26339.000000
30528.000000,50431.000000,50763.000000,26341.000000
30538.000000,50346.000000,50764.000000,26335.000000
30477.000000,50350.000000,50784.000000,26343.000000
30542.000000,50344.000000,50735.000000,26337.000000
30505.000000,50340.000000,50786.000000,26334.000000
30494.000000,50341.000000,50739.000000,26343.000000
30442.000000,50320.000000,50776.000000,26325.000000
30464.000000,50324.000000,50782.000000,26331.000000
30467.000000,50298.000000,50751.000000,26322.000000
30455.000000,50295.000000,50768.000000,26318.000000
30458.000000,50292.000000,50729.000000,26304.000000
30452.000000,50286.000000,50732.000000,26302.000000
30440.000000,50278.000000,50717.000000,26325.000000
30405.000000,50298.000000,50704.000000,26328.000000
30411.000000,50233.000000,50730.000000,26304.000000
30447.000000,50261.000000,50750.000000,26324.000000
30416.000000,50249.000000,50739.000000,26340.000000
30424.000000,50244.000000,50724.000000,26313.000000
30420.000000,50214.000000,50723.000000,26319.000000
30407.000000,50222.000000,50716.000000,26316.000000
30459.000000,50263.000000,50721.000000,26310.000000
30400.000000,50250.000000,50752.000000,26318.000000
30465.000000,50305.000000,50743.000000,26334.000000
30503.000000,50304.000000,50736.000000,26345.000000
30514.000000,50331.000000,50744.000000,26326.000000
30481.000000,50303.000000,50748.000000,26342.000000
30514.000000,50357.000000,50763.000000,26356.000000
30544.000000,50342.000000,50757.000000,26354.000000
30525.000000,50343.000000,50801.000000,26362.000000
30569.000000,50357.000000,50785.000000,26360.000000
30538.000000,50372.000000,50799.000000,26358.000000
30593.000000,50398.000000,50794.000000,26344.000000
30584.000000,50440.000000,50816.000000,26396.000000
30610.000000,50438.000000,50837.000000,26350.000000
30652.000000,50446.000000,50831.000000,26372.000000
30695.000000,50531.000000,50895.000000,26403.000000
30751.000000,50576.000000,50893.000000,26397.000000
30749.000000,50579.000000,50937.000000,26412.000000
30805.000000,50599.000000,50914.000000,26431.000000
30811.000000,50600.000000,50925.000000,26417.000000
30779.000000,50666.000000,50920.000000,26430.000000
30831.000000,50633.000000,50935.000000,26438.000000
30857.000000,50675.000000,50977.000000,26443.000000
30917.000000,50700.000000,50987.000000,26445.000000
30898.000000,50734.000000,51008.000000,26459.000000
30973.000000,50749.000000,50989.000000,26474.000000
30969.000000,50772.000000,51043.000000,26461.000000
30977.000000,50795.000000,51031.000000,26482.000000
30995.000000,50811.000000,51081.000000,26503.000000
30998.000000,50850.000000,51051.000000,26461.000000
31009.000000,50841.000000,51066.000000,26482.000000
31016.000000,50899.000000,51091.000000,26473.000000
31048.000000,50845.000000,51061.000000,26500.000000
31019.000000,50848.000000,51074.000000,26497.000000
31009.000000,50861.000000,51059.000000,26465.000000
31000.000000,50839.000000,51053.000000,26481.000000
30979.000000,50839.000000,51035.000000,26471.000000
30983.000000,50789.000000,51050.000000,26477.000000
30958.000000,50828.000000,51025.000000,26480.000000
30975.000000,50759.000000,51024.000000,26491.000000
30951.000000,50755.000000,51033.000000,26481.000000
30955.000000,50765.000000,51017.000000,26503.000000
30951.000000,50763.000000,51009.000000,26485.000000
30948.000000,50745.000000,51019.000000,26483.000000
30918.000000,50721.000000,51020.000000,26460.000000
30910.000000,50753.000000,51007.000000,26461.000000
30922.000000,50704.000000,51009.000000,26486.000000
30865.000000,50716.000000,50978.000000,26465.000000
30862.000000,50700.000000,50992.000000,26444.000000
30876.000000,50693.000000,50955.000000,26444.000000
30858.000000,50644.000000,50974.000000,26464.000000
30848.000000,50678.000000,50974.000000,26439.000000
30836.000000,50651.000000,50952.000000,26481.000000
30799.000000,50651.000000,50935.000000,26442.000000
30812.000000,50647.000000,50916.000000,26428.000000
30778.000000,50586.000000,50935.000000,26415.000000
30808.000000,50603.000000,50913.000000,26414.000000
30776.000000,50585.000000,50920.000000,26436.000000
30779.000000,50578.000000,50909.000000,26412.000000
30755.000000,50554.000000,50880.000000,26429.000000
30703.000000,50522.000000,50897.000000,26404.000000
30746.000000,50517.000000,50866.000000,26405.000000
30703.000000,50495.000000,50874.000000,26416.000000
30716.000000,50513.000000,50863.000000,26418.000000
30713.000000,50476.000000,50872.000000,26418.000000
30678.000000,50500.000000,50843.000000,26412.000000
30684.000000,50481.000000,50854.000000,26420.000000
30690.000000,50460.000000,50842.000000,26410.000000
30649.000000,50422.000000,50822.000000,26410.000000
30642.000000,50430.000000,50816.000000,26420.000000
30638.000000,50408.000000,50793.000000,26406.000000
30591.000000,50394.000000,50812.000000,26405.000000
30606.000000,50395.000000,50801.000000,26391.000000
30591.000000,50362.000000,50797.000000,26396.000000
30601.000000,50371.000000,50795.000000,26386.000000
30566.000000,50342.000000,50803.000000,26400.000000
30591.000000,50360.000000,50768.000000,26385.000000
30553.000000,50351.000000,50759.000000,26398.000000
30540.000000,50326.000000,50774.000000,26368.000000
30555.000000,50296.000000,50753.000000,26377.000000
30517.000000,50306.000000,50766.000000,26374.000000
30520.000000,50293.000000,50724.000000,26387.000000
30463.000000,50264.000000,50726.000000,26374.000000
30510.000000,50264.000000,50720.000000,26362.000000
30469.000000,50262.000000,50758.000000,26368.000000
30496.000000,50275.000000,50732.000000,26372.000000
30471.000000,50246.000000,50669.000000,26370.000000
30456.000000,50231.000000,50711.000000,26348.000000
30471.000000,50231.000000,50687.000000,26374.000000
30455.000000,50257.000000,50713.000000,26377.000000
30491.000000,50246.000000,50691.000000,26353.000000
30419.000000,50222.000000,50713.000000,26376.000000
30442.000000,50190.000000,50681.000000,26356.000000
30417.000000,50207.000000,50704.000000,26376.000000
30417.000000,50214.000000,50657.000000,26349.000000
30408.000000,50180.000000,50658.000000,26347.000000
30401.000000,50157.000000,50666.000000,26312.000000
30412.000000,50154.000000,50646.000000,26321.000000
30363.000000,50120.000000,50661.000000,26344.000000
30355.000000,50137.000000,50615.000000,26339.000000
30369.000000,50145.000000,50643.000000,26327.000000
30347.000000,50140.000000,50633.000000,26330.000000
30325.000000,50103.000000,50629.000000,26347.000000
30344.000000,50127.000000,50678.000000,26338.000000
30345.000000,50103.000000,50630.000000,26354.000000
30365.000000,50110.000000,50631.000000,26309.000000
30370.000000,50119.000000,50611.000000,26333.000000
30361.000000,50110.000000,50609.000000,26341.000000
30338.000000,50116.000000,50639.000000,26338.000000
30390.000000,50105.000000,50636.000000,26350.000000
30398.000000,50158.000000,50681.000000,26361.000000
30384.000000,50129.000000,50658.000000,26346.000000
30395.000000,50134.000000,50662.000000,26368.000000
30427.000000,50148.000000,50670.000000,26368.000000
30435.000000,50197.000000,50710.000000,26380.000000
30439.000000,50260.000000,50673.000000,26371.000000
30478.000000,50222.000000,50708.000000,26379.000000
30495.000000,50262.000000,50731.000000,26373.000000
30516.000000,50325.000000,50731.000000,26377.000000
30542.000000,50330.000000,50754.000000,26398.000000
30574.000000,50335.000000,50743.000000,26381.000000
30587.000000,50348.000000,50749.000000,26431.000000
30622.000000,50412.000000,50817.000000,26414.000000
30695.000000,50415.000000,50827.000000,26413.000000
30666.000000,50432.000000,50832.000000,26402.000000
30707.000000,50463.000000,50820.000000,26419.000000
30708.000000,50516.000000,50869.000000,26448.000000
30740.000000,50524.000000,50870.000000,26438.000000
30767.000000,50530.000000,50906.000000,26472.000000
30792.000000,50571.000000,50920.000000,26458.000000
30783.000000,50581.000000,50899.000000,26459.000000
30812.000000,50608.000000,50939.000000,26468.000000
30898.000000,50642.000000,50929.000000,26459.000000
30871.000000,50671.000000,50967.000000,26472.000000
30927.000000,50742.000000,50987.000000,26468.000000
30942.000000,50732.000000,50988.000000,26512.000000
30941.000000,50756.000000,51009.000000,26525.000000
30958.000000,50769.000000,51005.000000,26504.000000
30930.000000,50753.000000,51017.000000,26502.000000
30941.000000,50747.000000,50990.000000,26493.000000
30960.000000,50757.000000,51016.000000,26520.000000
30962.000000,50749.000000,50995.000000,26490.000000
30939.000000,50757.000000,51002.000000,26505.000000
30938.000000,50762.000000,51019.000000,26510.000000
30938.000000,50726.000000,50982.000000,26511.000000
30915.000000,50716.000000,51000.000000,26487.000000
30932.000000,50708.000000,50952.000000,26487.000000
30907.000000,50681.000000,50986.000000,26483.000000
30905.000000,50685.000000,50982.000000,26475.000000
30869.000000,50663.000000,50960.000000,26459.000000
30865.000000,50701.000000,50966.000000,26459.000000
30851.000000,50656.000000,50954.000000,26486.000000
30845.000000,50646.000000,50935.000000,26480.000000
30844.000000,50670.000000,50938.000000,26466.000000
30829.000000,50645.000000,50929.000000,26471.000000
30830.000000,50645.000000,50938.000000,26465.000000
30840.000000,50612.000000,50967.000000,26452.000000
30815.000000,50624.000000,50936.000000,26491.000000
30826.000000,50647.000000,50881.000000,26461.000000
30809.000000,50597.000000,50920.000000,26450.000000
30807.000000,50604.000000,50910.000000,26456.000000
30774.000000,50562.000000,50891.000000,26445.000000
30779.000000,50593.000000,50924.000000,26437.000000
30753.000000,50572.000000,50862.000000,26462.000000
30759.000000,50540.000000,50915.000000,26426.000000
30795.000000,50501.000000,50900.000000,26415.000000
30743.000000,50548.000000,50898.000000,26437.000000
30758.000000,50512.000000,50895.000000,26429.000000
30730.000000,50534.000000,50883.000000,26447.000000
30732.000000,50513.000000,50852.000000,26449.000000
30712.000000,50496.000000,50854.000000,26429.000000
30678.000000,50486.000000,50838.000000,26407.000000
30686.000000,50443.000000,50849.000000,26424.000000
30665.000000,50449.000000,50832.000000,26426.000000
30684.000000,50465.000000,50839.000000,26404.000000
30682.000000,50468.000000,50845.000000,26424.000000
30690.000000,50411.000000,50785.000000,26423.000000
30640.000000,50428.000000,50825.000000,26430.000000
30650.000000,50433.000000,50820.000000,26417.000000
30636.000000,50377.000000,50818.000000,26401.000000
30608.000000,50404.000000,50814.000000,26407.000000
30629.000000,50367.000000,50797.000000,26400.000000
30591.000000,50382.000000,50804.000000,26382.000000
30602.000000,50373.000000,50785.000000,26401.000000
30570.000000,50372.000000,50786.000000,26393.000000
30555.000000,50356.000000,50778.000000,26380.000000
30561.000000,50383.000000,50781.000000,26381.000000
30551.000000,50364.000000,50785.000000,26372.000000
30568.000000,50360.000000,50768.000000,26358.000000
30516.000000,50342.000000,50773.000000,26358.000000
30529.000000,50314.000000,50748.000000,26365.000000
30543.000000,50318.000000,50763.000000,26367.000000
30530.000000,50335.000000,50726.000000,26358.000000
30525.000000,50308.000000,50757.000000,26372.000000
30489.000000,50299.000000,50744.000000,26347.000000
30528.000000,50300.000000,50725.000000,26335.000000
30456.000000,50292.000000,50745.000000,26354.000000
30514.000000,50289.000000,50707.000000,26323.000000
30465.000000,50275.000000,50742.000000,26350.000000
30475.000000,50280.000000,50712.000000,26352.000000
30441.000000,50227.000000,50709.000000,26360.000000
30429.000000,50241.000000,50705.000000,26316.000000
30420.000000,50237.000000,50713.000000,26329.000000
30406.000000,50229.000000,50706.000000,26322.000000
30414.000000,50195.000000,50665.000000,26322.000000
30392.000000,50224.000000,50709.000000,26300.000000
30411.000000,50206.000000,50683.000000,26332.000000
30389.000000,50219.000000,50699.000000,26318.000000
30406.000000,50204.000000,50656.000000,26309.000000
30414.000000,50165.000000,50699.000000,26326.000000
30410.000000,50215.000000,50668.000000,26346.000000
30415.000000,50187.000000,50693.000000,26327.000000
30375.000000,50207.000000,50648.000000,26311.000000
30417.000000,50185.000000,50690.000000,26328.000000
30381.000000,50216.000000,50667.000000,26306.000000
30421.000000,50212.000000,50691.000000,26341.000000
30440.000000,50220.000000,50721.000000,26355.000000
30486.000000,50227.000000,50712.000000,26352.000000
30445.000000,50232.000000,50723.000000,26346.000000
30502.000000,50266.000000,50712.000000,26362.000000
30517.000000,50291.000000,50742.000000,26342.000000
30529.000000,50318.000000,50740.000000,26368.000000
30550.000000,50325.000000,50763.000000,26377.000000
30551.000000,50347.000000,50764.000000,26370.000000
30570.000000,50324.000000,50776.000000,26387.000000
30559.000000,50399.000000,50791.000000,26387.000000
30598.000000,50397.000000,50779.000000,26396.000000
30604.000000,50430.000000,50814.000000,26387.000000
30655.000000,50441.000000,50820.000000,26426.000000
30696.000000,50486.000000,50865.000000,26406.000000
30682.000000,50480.000000,50838.000000,26402.000000
30700.000000,50504.000000,50877.000000,26405.000000
30758.000000,50522.000000,50883.000000,26400.000000
30714.000000,50550.000000,50904.000000,26427.000000
30773.000000,50593.000000,50893.000000,26435.000000
30775.000000,50583.000000,50913.000000,26427.000000
30795.000000,50630.000000,50917.000000,26443.000000
30911.000000,50712.000000,50963.000000,26449.000000
30884.000000,50739.000000,50963.000000,26474.000000
30906.000000,50723.000000,51010.000000,26459.000000
30942.000000,50747.000000,51000.000000,26484.000000
30975.000000,50789.000000,51016.000000,26494.000000
30982.000000,50770.000000,50998.000000,26502.000000
30977.000000,50763.000000,51010.000000,26463.000000
30975.000000,50781.000000,51030.000000,26507.000000
30964.000000,50787.000000,51006.000000,26479.000000
30958.000000,50762.000000,50992.000000,26515.000000
30928.000000,50812.000000,51011.000000,26512.000000
30951.000000,50760.000000,51016.000000,26476.000000
30914.000000,50754.000000,51013.000000,26478.000000
30918.000000,50736.000000,50986.000000,26474.000000
30906.000000,50712.000000,50972.000000,26482.000000
30879.000000,50738.000000,50995.000000,26460.000000
30883.000000,50678.000000,50939.000000,26469.000000
30866.000000,50670.000000,50941.000000,26497.000000
30823.000000,50688.000000,50972.000000,26448.000000
30877.000000,50653.000000,50967.000000,26445.000000
30836.000000,50645.000000,50945.000000,26454.000000
30869.000000,50631.000000,50936.000000,26495.000000
30792.000000,50624.000000,50933.000000,26465.000000
30764.000000,50604.000000,50933.000000,26457.000000
30801.000000,50576.000000,50882.000000,26442.000000
30794.000000,50573.000000,50885.000000,26467.000000
30773.000000,50597.000000,50892.000000,26452.000000
30769.000000,50557.000000,50874.000000,26433.000000
30723.000000,50545.000000,50907.000000,26457.000000
30732.000000,50548.000000,50878.000000,26437.000000
30713.000000,50527.000000,50861.000000,26453.000000
30733.000000,50507.000000,50860.000000,26429.000000
30730.000000,50532.000000,50882.000000,26438.000000
30700.000000,50521.000000,50856.000000,26413.000000
30670.000000,50521.000000,50837.000000,26435.000000
30666.000000,50482.000000,50862.000000,26413.000000
30688.000000,50492.000000,50834.000000,26408.000000
30651.000000,50475.000000,50854.000000,26410.000000
30674.000000,50509.000000,50845.000000,26413.000000
30623.000000,50427.000000,50842.000000,26429.000000
30651.000000,50462.000000,50806.000000,26409.000000
30657.000000,50449.000000,50806.000000,26433.000000
30595.000000,50448.000000,50830.000000,26401.000000
30643.000000,50423.000000,50800.000000,26388.000000
30594.000000,50382.000000,50816.000000,26392.000000
30597.000000,50412.000000,50784.000000,26387.000000
30580.000000,50391.000000,50802.000000,26405.000000
30603.000000,50399.000000,50778.000000,26391.000000
30560.000000,50337.000000,50768.000000,26388.000000
30548.000000,50346.000000,50781.000000,26393.000000
30564.000000,50348.000000,50761.000000,26383.000000
30531.000000,50327.000000,50763.000000,26354.000000
30533.000000,50348.000000,50765.000000,26371.000000
30539.000000,50316.000000,50778.000000,26377.000000
30572.000000,50317.000000,50728.000000,26367.000000
30525.000000,50313.000000,50747.000000,26378.000000
30529.000000,50322.000000,50734.000000,26373.000000
30497.000000,50283.000000,50736.000000,26352.000000
30481.000000,50313.000000,50729.000000,26369.000000
30475.000000,50280.000000,50708.000000,26355.000000
30491.000000,50286.000000,50734.000000,26366.000000
30462.000000,50293.000000,50720.000000,26354.000000
30473.000000,50255.000000,50716.000000,26360.000000
30454.000000,50240.000000,50730.000000,26341.000000
30458.000000,50228.000000,50693.000000,26347.000000
30413.000000,50241.000000,50684.000000,26328.000000
30409.000000,50230.000000,50680.000000,26329.000000
30412.000000,50224.000000,50698.000000,26321.000000
30372.000000,50190.000000,50665.000000,26332.000000
30413.000000,50177.000000,50668.000000,26338.000000
30372.000000,50221.000000,50689.000000,26318.000000
30382.000000,50150.000000,50642.000000,26315.000000
30366.000000,50166.000000,50673.000000,26326.000000
30342.000000,50162.000000,50629.000000,26307.000000
30338.000000,50161.000000,50672.000000,26327.000000
30346.000000,50194.000000,50636.000000,26324.000000
30330.000000,50151.000000,50635.000000,26323.000000
30323.000000,50158.000000,50644.000000,26302.000000
30367.000000,50112.000000,50637.000000,26325.000000
30351.000000,50128.000000,50652.000000,26332.000000
30343.000000,50186.000000,50639.000000,26331.000000
30356.000000,50148.000000,50642.000000,26321.000000
30350.000000,50192.000000,50663.000000,26322.000000
30393.000000,50211.000000,50689.000000,26338.000000
30401.000000,50211.000000,50706.000000,26309.000000
30422.000000,50198.000000,50686.000000,26336.000000
30408.000000,50217.000000,50704.000000,26324.000000
30419.000000,50226.000000,50716.000000,26335.000000
30490.000000,50244.000000,50709.000000,26352.000000
30481.000000,50275.000000,50709.000000,26372.000000
30521.000000,50283.000000,50730.000000,26350.000000
30526.000000,50296.000000,50733.000000,26364.000000
30523.000000,50323.000000,50744.000000,26388.000000
30546.000000,50368.000000,50752.000000,26392.000000
30586.000000,50379.000000,50775.000000,26396.000000
30567.000000,50378.000000,50778.000000,26365.000000
30654.000000,50451.000000,50769.000000,26402.000000
30624.000000,50454.000000,50830.000000,26394.000000
30722.000000,50497.000000,50865.000000,26423.000000
30664.000000,50504.000000,50842.000000,26420.000000
30774.000000,50588.000000,50875.000000,26424.000000
30785.000000,50586.000000,50908.000000,26445.000000
30835.000000,50656.000000,50915.000000,26418.000000
30850.000000,50654.000000,50907.000000,26464.000000
30843.000000,50683.000000,50975.000000,26470.000000
30871.000000,50696.000000,50957.000000,26494.000000
30886.000000,50741.000000,50987.000000,26475.000000
30907.000000,50737.000000,50979.000000,26480.000000
30921.000000,50749.000000,51003.000000,26507.000000
30958.000000,50735.000000,50980.000000,26500.000000
30949.000000,50769.000000,51018.000000,26493.000000
30939.000000,50747.000000,51009.000000,26498.000000
30939.000000,50705.000000,50996.000000,26499.000000
30937.000000,50730.000000,50977.000000,26491.000000
30936.000000,50718.000000,51006.000000,26493.000000
30910.000000,50737.000000,50998.000000,26503.000000
30891.000000,50705.000000,50967.000000,26473.000000
30856.000000,50681.000000,50979.000000,26471.000000
30880.000000,50719.000000,50986.000000,26492.000000
30864.000000,50678.000000,50993.000000,26465.000000
30869.000000,50680.000000,50941.000000,26462.000000
30877.000000,50665.000000,50951.000000,26480.000000
30822.000000,50635.000000,50939.000000,26459.000000
30830.000000,50635.000000,50930.000000,26471.000000
30815.000000,50641.000000,50955.000000,26475.000000
30854.000000,50605.000000,50904.000000,26429.000000
30818.000000,50616.000000,50942.000000,26470.000000
30850.000000,50613.000000,50915.000000,26443.000000
30796.000000,50596.000000,50909.000000,26453.000000
30767.000000,50605.000000,50896.000000,26443.000000
30793.000000,50569.000000,50887.000000,26464.000000
30798.000000,50594.000000,50903.000000,26433.000000
30753.000000,50530.000000,50892.000000,26452.000000
30741.000000,50531.000000,50894.000000,26422.000000
30724.000000,50530.000000,50855.000000,26411.000000
30731.000000,50500.000000,50850.000000,26439.000000
30706.000000,50511.000000,50833.000000,26408.000000
30715.000000,50470.000000,50867.000000,26434.000000
30691.000000,50520.000000,50846.000000,26412.000000
30677.000000,50455.000000,50821.000000,26441.000000
30656.000000,50431.000000,50834.000000,26447.000000
30663.000000,50440.000000,50785.000000,26400.000000
30610.000000,50360.000000,50804.000000,26405.000000
30601.000000,50427.000000,50827.000000,26419.000000
30605.000000,50398.000000,50782.000000,26414.000000
30600.000000,50363.000000,50802.000000,26393.000000
30610.000000,50379.000000,50764.000000,26396.000000
30575.000000,50379.000000,50787.000000,26406.000000
30540.000000,50383.000000,50750.000000,26395.000000
30576.000000,50328.000000,50747.000000,26417.000000
30518.000000,50307.000000,50761.000000,26389.000000
30501.000000,50268.000000,50709.000000,26388.000000
30510.000000,50279.000000,50742.000000,26407.000000
30501.000000,50283.000000,50722.000000,26395.000000
30510.000000,50265.000000,50738.000000,26390.000000
30506.000000,50281.000000,50693.000000,26379.000000
