660nm,730nm,850nm,940nm
19167.000000,40115.000000,44413.000000,23224.000000
19179.000000,40213.000000,44431.000000,23172.000000
19123.000000,40133.000000,44433.000000,23275.000000
19136.000000,40162.000000,44377.000000,23179.000000
19069.000000,40096.000000,44438.000000,23223.000000
19157.000000,40177.000000,44359.000000,23180.000000
19051.000000,40086.000000,44458.000000,23201.000000
19168.000000,40135.000000,44333.000000,23218.000000
19046.000000,40124.000000,44464.000000,23202.000000
19126.000000,40075.000000,44337.000000,23249.000000
19073.000000,40157.000000,44414.000000,23155.000000
19170.000000,40046.000000,44378.000000,23272.000000
19154.000000,40159.000000,44375.000000,23183.000000
19094.000000,40138.000000,44433.000000,23258.000000
19184.000000,40191.000000,44363.000000,23160.000000
19089.000000,40143.000000,44429.000000,23261.000000
19196.000000,40180.000000,44377.000000,23227.000000
19161.000000,40201.000000,44514.000000,23229.000000
19219.000000,40208.000000,44424.000000,23222.000000
19142.000000,40246.000000,44459.000000,23194.000000
19243.000000,40218.000000,44408.000000,23220.000000
19205.000000,40278.000000,44488.000000,23182.000000
19242.000000,40260.000000,44452.000000,23270.000000
19232.000000,40322.000000,44510.000000,23217.000000
19292.000000,40272.000000,44488.000000,23299.000000
19262.000000,40359.000000,44545.000000,23212.000000
19323.000000,40311.000000,44546.000000,23291.000000
19344.000000,40434.000000,44519.000000,23197.000000
19361.000000,40336.000000,44591.000000,23364.000000
19419.000000,40455.000000,44539.000000,23255.000000
19356.000000,40418.000000,44630.000000,23295.000000
19492.000000,40463.000000,44577.000000,23319.000000
19405.000000,40500.000000,44659.000000,23275.000000
19542.000000,40527.000000,44582.000000,23304.000000
19458.000000,40628.000000,44708.000000,23324.000000
19577.000000,40585.000000,44675.000000,23398.000000
19565.000000,40701.000000,44749.000000,23316.000000
19629.000000,40667.000000,44705.000000,23390.000000
19683.000000,40815.000000,44786.000000,23334.000000
19706.000000,40789.000000,44809.000000,23470.000000
19690.000000,40903.000000,44835.000000,23400.000000
19702.000000,40816.000000,44799.000000,23468.000000
19786.000000,40937.000000,44851.000000,23368.000000
19780.000000,40881.000000,44884.000000,23471.000000
19829.000000,40978.000000,44875.000000,23437.000000
19799.000000,40947.000000,44916.000000,23466.000000
19875.000000,41012.000000,44843.000000,23445.000000
19807.000000,40981.000000,44960.000000,23484.000000
19872.000000,41008.000000,44836.000000,23468.000000
19798.000000,41011.000000,44958.000000,23409.000000
19880.000000,40992.000000,44857.000000,23486.000000
19831.000000,41025.000000,44973.000000,23418.000000
19888.000000,40941.000000,44852.000000,23534.000000
19808.000000,41003.000000,44911.000000,23441.000000
19846.000000,40926.000000,44859.000000,23513.000000
19838.000000,41024.000000,44868.000000,23425.000000
19777.000000,40927.000000,44878.000000,23516.000000
19810.000000,40999.000000,44871.000000,23426.000000
19801.000000,40941.000000,44814.000000,23528.000000
19824.000000,40960.000000,44808.000000,23406.000000
19797.000000,40901.000000,44908.000000,23475.000000
19861.000000,40939.000000,44843.000000,23424.000000
19792.000000,40920.000000,44921.000000,23485.000000
19816.000000,40899.000000,44798.000000,23465.000000
19766.000000,40920.000000,44889.000000,23421.000000
19779.000000,40864.000000,44819.000000,23505.000000
19723.000000,40906.000000,44896.000000,23392.000000
19798.000000,40868.000000,44836.000000,23476.000000
19780.000000,40921.000000,44840.000000,23373.000000
19780.000000,40834.000000,44873.000000,23423.000000
19802.000000,40892.000000,44778.000000,23388.000000
19736.000000,40884.000000,44862.000000,23431.000000
19780.000000,40849.000000,44799.000000,23447.000000
19723.000000,40824.000000,44839.000000,23431.000000
19767.000000,40797.000000,44792.000000,23431.000000
19724.000000,40823.000000,44756.000000,23360.000000
19726.000000,40798.000000,44819.000000,23413.000000
19715.000000,40812.000000,44784.000000,23439.000000
19681.000000,40797.000000,44812.000000,23441.000000
19743.000000,40803.000000,44762.000000,23416.000000
19697.000000,40790.000000,44778.000000,23430.000000
19687.000000,40748.000000,44797.000000,23423.000000
19655.000000,40779.000000,44768.000000,23414.000000
19714.000000,40774.000000,44766.000000,23427.000000
19683.000000,40760.000000,44763.000000,23414.000000
19659.000000,40753.000000,44760.000000,23420.000000
19664.000000,40731.000000,44760.000000,23421.000000
19649.000000,40730.000000,44754.000000,23436.000000
19650.000000,40705.000000,44764.000000,23425.000000
19623.000000,40718.000000,44746.000000,23417.000000
19629.000000,40719.000000,44726.000000,23409.000000
19643.000000,40653.000000,44728.000000,23422.000000
19590.000000,40706.000000,44747.000000,23408.000000
19575.000000,40643.000000,44716.000000,23393.000000
19575.000000,40655.000000,44687.000000,23407.000000
19567.000000,40674.000000,44722.000000,23404.000000
19551.000000,40606.000000,44698.000000,23402.000000
19572.000000,40599.000000,44708.000000,23393.000000
19544.000000,40580.000000,44690.000000,23410.000000
19521.000000,40593.000000,44688.000000,23398.000000
19493.000000,40555.000000,44671.000000,23366.000000
19551.000000,40549.000000,44679.000000,23386.000000
19489.000000,40601.000000,44656.000000,23372.000000
19509.000000,40543.000000,44641.000000,23356.000000
19499.000000,40540.000000,44651.000000,23342.000000
19484.000000,40534.000000,44658.000000,23343.000000
19449.000000,40464.000000,44606.000000,23361.000000
19432.000000,40514.000000,44620.000000,23348.000000
19438.000000,40489.000000,44603.000000,23327.000000
19438.000000,40463.000000,44610.000000,23336.000000
19427.000000,40459.000000,44635.000000,23332.000000
19424.000000,40455.000000,44580.000000,23337.000000
19403.000000,40458.000000,44574.000000,23340.000000
19379.000000,40414.000000,44589.000000,23337.000000
19376.000000,40408.000000,44562.000000,23301.000000
19404.000000,40380.000000,44573.000000,23358.000000
19341.000000,40389.000000,44563.000000,23342.000000
19354.000000,40358.000000,44546.000000,23303.000000
19372.000000,40356.000000,44536.000000,23340.000000
19347.000000,40357.000000,44548.000000,23340.000000
19343.000000,40335.000000,44533.000000,23339.000000
19298.000000,40365.000000,44532.000000,23296.000000
19303.000000,40335.000000,44546.000000,23307.000000
19300.000000,40352.000000,44530.000000,23276.000000
19305.000000,40315.000000,44535.000000,23308.000000
19299.000000,40292.000000,44503.000000,23286.000000
19278.000000,40318.000000,44492.000000,23317.000000
19287.000000,40267.000000,44529.000000,23326.000000
19281.000000,40318.000000,44503.000000,23292.000000
19279.000000,40299.000000,44483.000000,23309.000000
19286.000000,40291.000000,44478.000000,23285.000000
19247.000000,40249.000000,44488.000000,23294.000000
19266.000000,40234.000000,44469.000000,23279.000000
19231.000000,40268.000000,44487.000000,23298.000000
19231.000000,40230.000000,44469.000000,23279.000000
19216.000000,40204.000000,44442.000000,23276.000000
19213.000000,40169.000000,44431.000000,23292.000000
19207.000000,40197.000000,44424.000000,23272.000000
19183.000000,40186.000000,44436.000000,23274.000000
19165.000000,40165.000000,44407.000000,23288.000000
19143.000000,40165.000000,44410.000000,23243.000000
19126.000000,40098.000000,44406.000000,23238.000000
19111.000000,40099.000000,44375.000000,23245.000000
19096.000000,40105.000000,44395.000000,23242.000000
19124.000000,40093.000000,44368.000000,23244.000000
19092.000000,40070.000000,44392.000000,23245.000000
19073.000000,40053.000000,44371.000000,23246.000000
19105.000000,40063.000000,44380.000000,23245.000000
19086.000000,40059.000000,44374.000000,23235.000000
19083.000000,40063.000000,44376.000000,23231.000000
19091.000000,40079.000000,44387.000000,23244.000000
19098.000000,40074.000000,44367.000000,23257.000000
19105.000000,40111.000000,44366.000000,23242.000000
19101.000000,40062.000000,44378.000000,23233.000000
19132.000000,40097.000000,44376.000000,23227.000000
19110.000000,40127.000000,44414.000000,23254.000000
19110.000000,40136.000000,44388.000000,23245.000000
19158.000000,40142.000000,44421.000000,23253.000000
19168.000000,40198.000000,44440.000000,23269.000000
19193.000000,40185.000000,44432.000000,23254.000000
19192.000000,40207.000000,44430.000000,23275.000000
19202.000000,40208.000000,44451.000000,23285.000000
19270.000000,40243.000000,44471.000000,23289.000000
19274.000000,40300.000000,44470.000000,23288.000000
19275.000000,40283.000000,44498.000000,23303.000000
19311.000000,40293.000000,44512.000000,23283.000000
19353.000000,40347.000000,44513.000000,23322.000000
19386.000000,40342.000000,44547.000000,23331.000000
19398.000000,40416.000000,44553.000000,23342.000000
19369.000000,40450.000000,44581.000000,23331.000000
19442.000000,40466.000000,44585.000000,23346.000000
19479.000000,40493.000000,44601.000000,23358.000000
19511.000000,40526.000000,44676.000000,23389.000000
19557.000000,40557.000000,44679.000000,23398.000000
19579.000000,40623.000000,44705.000000,23390.000000
19649.000000,40663.000000,44710.000000,23433.000000
19663.000000,40749.000000,44759.000000,23421.000000
19725.000000,40747.000000,44752.000000,23462.000000
19723.000000,40840.000000,44787.000000,23466.000000
19770.000000,40859.000000,44835.000000,23481.000000
19822.000000,40896.000000,44832.000000,23477.000000
19811.000000,40954.000000,44872.000000,23495.000000
19859.000000,40926.000000,44874.000000,23531.000000
19847.000000,40994.000000,44872.000000,23491.000000
19878.000000,40996.000000,44929.000000,23525.000000
19895.000000,40996.000000,44915.000000,23506.000000
19855.000000,41014.000000,44914.000000,23506.000000
19888.000000,40976.000000,44923.000000,23538.000000
19899.000000,41017.000000,44919.000000,23510.000000
19870.000000,41004.000000,44914.000000,23533.000000
19859.000000,41007.000000,44910.000000,23523.000000
19886.000000,40967.000000,44916.000000,23528.000000
19889.000000,40991.000000,44897.000000,23525.000000
19859.000000,40971.000000,44908.000000,23536.000000
19886.000000,40998.000000,44902.000000,23517.000000
19865.000000,40974.000000,44914.000000,23502.000000
19856.000000,40940.000000,44890.000000,23524.000000
19895.000000,40959.000000,44889.000000,23506.000000
19821.000000,40966.000000,44909.000000,23529.000000
19869.000000,40946.000000,44862.000000,23520.000000
19826.000000,40971.000000,44869.000000,23507.000000
19823.000000,40950.000000,44879.000000,23503.000000
19808.000000,40928.000000,44881.000000,23501.000000
19829.000000,40953.000000,44886.000000,23513.000000
19844.000000,40898.000000,44851.000000,23504.000000
19794.000000,40915.000000,44847.000000,23488.000000
19794.000000,40907.000000,44867.000000,23511.000000
19798.000000,40916.000000,44841.000000,23483.000000
19776.000000,40917.000000,44864.000000,23476.000000
19772.000000,40872.000000,44841.000000,23488.000000
19778.000000,40885.000000,44846.000000,23504.000000
19771.000000,40869.000000,44855.000000,23492.000000
19778.000000,40864.000000,44847.000000,23468.000000
19723.000000,40848.000000,44819.000000,23480.000000
19770.000000,40846.000000,44810.000000,23486.000000
19756.000000,40836.000000,44830.000000,23469.000000
19756.000000,40876.000000,44809.000000,23472.000000
19713.000000,40837.000000,44799.000000,23451.000000
19731.000000,40825.000000,44814.000000,23486.000000
19710.000000,40791.000000,44813.000000,23486.000000
19715.000000,40816.000000,44781.000000,23454.000000
19692.000000,40821.000000,44791.000000,23464.000000
19708.000000,40786.000000,44803.000000,23475.000000
19703.000000,40786.000000,44774.000000,23470.000000
19679.000000,40784.000000,44759.000000,23461.000000
19681.000000,40761.000000,44796.000000,23445.000000
19705.000000,40762.000000,44756.000000,23431.000000
19658.000000,40737.000000,44791.000000,23460.000000
19653.000000,40725.000000,44749.000000,23437.000000
19635.000000,40740.000000,44743.000000,23432.000000
19650.000000,40730.000000,44745.000000,23422.000000
19652.000000,40682.000000,44743.000000,23452.000000
19589.000000,40703.000000,44749.000000,23431.000000
19615.000000,40701.000000,44754.000000,23430.000000
19578.000000,40731.000000,44732.000000,23422.000000
19595.000000,40654.000000,44718.000000,23436.000000
19589.000000,40675.000000,44718.000000,23395.000000
19573.000000,40685.000000,44726.000000,23422.000000
19590.000000,40633.000000,44694.000000,23425.000000
19571.000000,40638.000000,44690.000000,23396.000000
19589.000000,40613.000000,44690.000000,23429.000000
19523.000000,40609.000000,44695.000000,23402.000000
19510.000000,40587.000000,44673.000000,23404.000000
19537.000000,40550.000000,44676.000000,23409.000000
19506.000000,40623.000000,44676.000000,23392.000000
19523.000000,40548.000000,44639.000000,23404.000000
19500.000000,40558.000000,44664.000000,23406.000000
19494.000000,40510.000000,44630.000000,23413.000000
19509.000000,40512.000000,44651.000000,23386.000000
19451.000000,40547.000000,44621.000000,23384.000000
19457.000000,40477.000000,44625.000000,23365.000000
19455.000000,40476.000000,44577.000000,23357.000000
19397.000000,40446.000000,44605.000000,23379.000000
19412.000000,40435.000000,44587.000000,23354.000000
19392.000000,40449.000000,44606.000000,23365.000000
19398.000000,40426.000000,44560.000000,23359.000000
19387.000000,40436.000000,44553.000000,23368.000000
19376.000000,40405.000000,44541.000000,23357.000000
19393.000000,40393.000000,44555.000000,23345.000000
19350.000000,40370.000000,44567.000000,23372.000000
19350.000000,40356.000000,44550.000000,23350.000000
19341.000000,40394.000000,44580.000000,23329.000000
19375.000000,40327.000000,44530.000000,23360.000000
19337.000000,40376.000000,44540.000000,23357.000000
19347.000000,40344.000000,44541.000000,23349.000000
19338.000000,40353.000000,44525.000000,23320.000000
19304.000000,40323.000000,44521.000000,23342.000000
19334.000000,40320.000000,44518.000000,23362.000000
19278.000000,40310.000000,44547.000000,23352.000000
19317.000000,40277.000000,44501.000000,23353.000000
19283.000000,40311.000000,44483.000000,23341.000000
19279.000000,40278.000000,44506.000000,23335.000000
19254.000000,40271.000000,44508.000000,23315.000000
19252.000000,40240.000000,44501.000000,23312.000000
19227.000000,40255.000000,44457.000000,23310.000000
19239.000000,40191.000000,44452.000000,23319.000000
19180.000000,40195.000000,44438.000000,23322.000000
19183.000000,40201.000000,44438.000000,23299.000000
19179.000000,40158.000000,44431.000000,23285.000000
19187.000000,40152.000000,44398.000000,23271.000000
19148.000000,40127.000000,44409.000000,23275.000000
19131.000000,40137.000000,44404.000000,23279.000000
19108.000000,40133.000000,44420.000000,23260.000000
19095.000000,40089.000000,44361.000000,23241.000000
19071.000000,40088.000000,44355.000000,23247.000000
19085.000000,40079.000000,44360.000000,23244.000000
19081.000000,40059.000000,44343.000000,23259.000000
19055.000000,40051.000000,44383.000000,23261.000000
19061.000000,40075.000000,44363.000000,23267.000000
19083.000000,40055.000000,44420.000000,23245.000000
19105.000000,40088.000000,44370.000000,23255.000000
19125.000000,40108.000000,44395.000000,23286.000000
19113.000000,40103.000000,44402.000000,23279.000000
19121.000000,40101.000000,44392.000000,23265.000000
19105.000000,40131.000000,44391.000000,23277.000000
19160.000000,40144.000000,44410.000000,23283.000000
19130.000000,40169.000000,44420.000000,23296.000000
19175.000000,40166.000000,44417.000000,23289.000000
19186.000000,40176.000000,44439.000000,23297.000000
19208.000000,40174.000000,44471.000000,23292.000000
19239.000000,40227.000000,44417.000000,23288.000000
19224.000000,40260.000000,44479.000000,23297.000000
19286.000000,40270.000000,44491.000000,23335.000000
19280.000000,40290.000000,44520.000000,23317.000000
19351.000000,40292.000000,44527.000000,23320.000000
19336.000000,40341.000000,44516.000000,23337.000000
19338.000000,40358.000000,44557.000000,23333.000000
19383.000000,40375.000000,44553.000000,23365.000000
19386.000000,40464.000000,44588.000000,23375.000000
19445.000000,40473.000000,44617.000000,23365.000000
19480.000000,40547.000000,44627.000000,23386.000000
19537.000000,40531.000000,44664.000000,23401.000000
19552.000000,40629.000000,44679.000000,23399.000000
19581.000000,40635.000000,44716.000000,23424.000000
19636.000000,40673.000000,44715.000000,23429.000000
19641.000000,40774.000000,44763.000000,23443.000000
19701.000000,40745.000000,44756.000000,23467.000000
19732.000000,40830.000000,44782.000000,23441.000000
19762.000000,40837.000000,44795.000000,23499.000000
19801.000000,40898.000000,44845.000000,23510.000000
19787.000000,40886.000000,44854.000000,23488.000000
19808.000000,40929.000000,44857.000000,23523.000000
19818.000000,40979.000000,44868.000000,23513.000000
19841.000000,40941.000000,44890.000000,23541.000000
19879.000000,40984.000000,44877.000000,23526.000000
19847.000000,40985.000000,44918.000000,23496.000000
19857.000000,40977.000000,44892.000000,23539.000000
19846.000000,40989.000000,44925.000000,23534.000000
19834.000000,40971.000000,44891.000000,23525.000000
19849.000000,41008.000000,44883.000000,23535.000000
19863.000000,40988.000000,44903.000000,23554.000000
19840.000000,40962.000000,44892.000000,23518.000000
19839.000000,40961.000000,44885.000000,23494.000000
19856.000000,40948.000000,44869.000000,23528.000000
19821.000000,40962.000000,44860.000000,23542.000000
19807.000000,40926.000000,44904.000000,23535.000000
19853.000000,40910.000000,44880.000000,23508.000000
19820.000000,40922.000000,44889.000000,23508.000000
19823.000000,40906.000000,44857.000000,23520.000000
19801.000000,40963.000000,44876.000000,23520.000000
19792.000000,40907.000000,44872.000000,23507.000000
19833.000000,40865.000000,44856.000000,23508.000000
19769.000000,40894.000000,44861.000000,23517.000000
19773.000000,40895.000000,44837.000000,23513.000000
19773.000000,40915.000000,44849.000000,23507.000000
19763.000000,40867.000000,44818.000000,23503.000000
19753.000000,40895.000000,44822.000000,23499.000000
19746.000000,40889.000000,44839.000000,23481.000000
19760.000000,40850.000000,44831.000000,23519.000000
19743.000000,40880.000000,44806.000000,23480.000000
19736.000000,40846.000000,44845.000000,23490.000000
19732.000000,40853.000000,44799.000000,23493.000000
19702.000000,40821.000000,44837.000000,23489.000000
19744.000000,40793.000000,44806.000000,23490.000000
19685.000000,40844.000000,44828.000000,23490.000000
19720.000000,40824.000000,44797.000000,23497.000000
19688.000000,40837.000000,44779.000000,23476.000000
19701.000000,40788.000000,44804.000000,23494.000000
19701.000000,40829.000000,44793.000000,23470.000000
19655.000000,40806.000000,44807.000000,23480.000000
19706.000000,40779.000000,44784.000000,23495.000000
19670.000000,40804.000000,44763.000000,23470.000000
19651.000000,40766.000000,44783.000000,23471.000000
19666.000000,40756.000000,44773.000000,23452.000000
19671.000000,40762.000000,44773.000000,23497.000000
19668.000000,40765.000000,44756.000000,23471.000000
19631.000000,40740.000000,44755.000000,23429.000000
19638.000000,40706.000000,44756.000000,23446.000000
19597.000000,40762.000000,44744.000000,23448.000000
19627.000000,40706.000000,44749.000000,23460.000000
19610.000000,40693.000000,44731.000000,23426.000000
19558.000000,40701.000000,44730.000000,23465.000000
19592.000000,40659.000000,44711.000000,23442.000000
19554.000000,40675.000000,44718.000000,23427.000000
19586.000000,40642.000000,44709.000000,23429.000000
19561.000000,40666.000000,44703.000000,23434.000000
19557.000000,40624.000000,44714.000000,23424.000000
19561.000000,40620.000000,44687.000000,23411.000000
19538.000000,40601.000000,44713.000000,23427.000000
19531.000000,40589.000000,44697.000000,23413.000000
19491.000000,40617.000000,44648.000000,23405.000000
19472.000000,40531.000000,44673.000000,23397.000000
19494.000000,40579.000000,44644.000000,23403.000000
19445.000000,40529.000000,44646.000000,23414.000000
19478.000000,40531.000000,44618.000000,23399.000000
19432.000000,40495.000000,44644.000000,23376.000000
19432.000000,40487.000000,44599.000000,23387.000000
19425.000000,40474.000000,44604.000000,23383.000000
19420.000000,40479.000000,44613.000000,23400.000000
19426.000000,40473.000000,44600.000000,23366.000000
19358.000000,40453.000000,44593.000000,23383.000000
19411.000000,40429.000000,44561.000000,23385.000000
19366.000000,40436.000000,44582.000000,23391.000000
19370.000000,40398.000000,44580.000000,23378.000000
19350.000000,40394.000000,44604.000000,23377.000000
19349.000000,40367.000000,44539.000000,23398.000000
19333.000000,40386.000000,44580.000000,23373.000000
19353.000000,40315.000000,44556.000000,23375.000000
19343.000000,40349.000000,44561.000000,23369.000000
19323.000000,40356.000000,44546.000000,23377.000000
19341.000000,40354.000000,44529.000000,23366.000000
19300.000000,40327.000000,44511.000000,23368.000000
19306.000000,40305.000000,44501.000000,23359.000000
19307.000000,40309.000000,44519.000000,23352.000000
19302.000000,40306.000000,44531.000000,23348.000000
19305.000000,40309.000000,44496.000000,23345.000000
19286.000000,40276.000000,44515.000000,23315.000000
19295.000000,40270.000000,44509.000000,23342.000000
19241.000000,40293.000000,44465.000000,23339.000000
19246.000000,40241.000000,44470.000000,23372.000000
19261.000000,40239.000000,44463.000000,23317.000000
19188.000000,40224.000000,44473.000000,23317.000000
19227.000000,40227.000000,44450.000000,23331.000000
19183.000000,40200.000000,44465.000000,23318.000000
19197.000000,40158.000000,44448.000000,23305.000000
19184.000000,40205.000000,44447.000000,23325.000000
19169.000000,40157.000000,44421.000000,23312.000000
19152.000000,40174.000000,44426.000000,23272.000000
19118.000000,40107.000000,44418.000000,23302.000000
19107.000000,40121.000000,44393.000000,23281.000000
19110.000000,40114.000000,44404.000000,23296.000000
19108.000000,40077.000000,44381.000000,23281.000000
19057.000000,40084.000000,44378.000000,23280.000000
19082.000000,40089.000000,44370.000000,23270.000000
19094.000000,40045.000000,44360.000000,23265.000000
19084.000000,40062.000000,44374.000000,23281.000000
19094.000000,40102.000000,44408.000000,23260.000000
19068.000000,40087.000000,44366.000000,23264.000000
19113.000000,40093.000000,44374.000000,23288.000000
19106.000000,40132.000000,44393.000000,23268.000000
19126.000000,40101.000000,44405.000000,23302.000000
19130.000000,40120.000000,44404.000000,23262.000000
19128.000000,40143.000000,44416.000000,23291.000000
19159.000000,40139.000000,44423.000000,23294.000000
19144.000000,40159.000000,44417.000000,23280.000000
19180.000000,40145.000000,44429.000000,23312.000000
19170.000000,40199.000000,44444.000000,23310.000000
19201.000000,40192.000000,44446.000000,23321.000000
19236.000000,40226.000000,44447.000000,23309.000000
19209.000000,40219.000000,44487.000000,23301.000000
19267.000000,40263.000000,44471.000000,23333.000000
19249.000000,40282.000000,44512.000000,23324.000000
19305.000000,40303.000000,44492.000000,23319.000000
19289.000000,40319.000000,44552.000000,23331.000000
19354.000000,40350.000000,44515.000000,23349.000000
19373.000000,40392.000000,44569.000000,23365.000000
19411.000000,40428.000000,44592.000000,23366.000000
19444.000000,40489.000000,44607.000000,23387.000000
19455.000000,40513.000000,44628.000000,23399.000000
19548.000000,40565.000000,44650.000000,23407.000000
19525.000000,40593.000000,44648.000000,23410.000000
19557.000000,40621.000000,44719.000000,23416.000000
19596.000000,40705.000000,44741.000000,23431.000000
19616.000000,40713.000000,44772.000000,23428.000000
19647.000000,40738.000000,44779.000000,23443.000000
19687.000000,40771.000000,44787.000000,23450.000000
19709.000000,40805.000000,44802.000000,23459.000000
19703.000000,40858.000000,44833.000000,23476.000000
19739.000000,40895.000000,44849.000000,23501.000000
19758.000000,40923.000000,44839.000000,23482.000000
19772.000000,40891.000000,44891.000000,23494.000000
19814.000000,40900.000000,44861.000000,23507.000000
19757.000000,40929.000000,44882.000000,23516.000000
19810.000000,40901.000000,44871.000000,23520.000000
19762.000000,40949.000000,44879.000000,23510.000000
19778.000000,40925.000000,44861.000000,23513.000000
19810.000000,40921.000000,44824.000000,23503.000000
19783.000000,40900.000000,44872.000000,23503.000000
19760.000000,40925.000000,44861.000000,23520.000000
19794.000000,40907.000000,44861.000000,23514.000000
19736.000000,40881.000000,44867.000000,23508.000000
19727.000000,40871.000000,44855.000000,23496.000000
19766.000000,40880.000000,44838.000000,23496.000000
19757.000000,40896.000000,44838.000000,23482.000000
19718.000000,40854.000000,44853.000000,23494.000000
19714.000000,40851.000000,44835.000000,23490.000000
19715.000000,40820.000000,44831.000000,23519.000000
19683.000000,40849.000000,44815.000000,23485.000000
19714.000000,40817.000000,44812.000000,23480.000000
19691.000000,40835.000000,44830.000000,23485.000000
19657.000000,40797.000000,44825.000000,23475.000000
19677.000000,40800.000000,44805.000000,23463.000000
19676.000000,40777.000000,44823.000000,23454.000000
19666.000000,40801.000000,44779.000000,23490.000000
19672.000000,40801.000000,44780.000000,23451.000000
19628.000000,40797.000000,44795.000000,23485.000000
19646.000000,40745.000000,44787.000000,23478.000000
19634.000000,40740.000000,44780.000000,23464.000000
19626.000000,40706.000000,44752.000000,23462.000000
19624.000000,40754.000000,44780.000000,23456.000000
19626.000000,40725.000000,44759.000000,23467.000000
19594.000000,40730.000000,44754.000000,23473.000000
19602.000000,40727.000000,44768.000000,23475.000000
19610.000000,40690.000000,44703.000000,23442.000000
19580.000000,40689.000000,44779.000000,23458.000000
19607.000000,40672.000000,44740.000000,23462.000000
19601.000000,40691.000000,44712.000000,23447.000000
19569.000000,40676.000000,44725.000000,23457.000000
19546.000000,40690.000000,44710.000000,23436.000000
19540.000000,40631.000000,44735.000000,23457.000000
19568.000000,40625.000000,44725.000000,23445.000000
19532.000000,40611.000000,44751.000000,23433.000000
19503.000000,40607.000000,44711.000000,23435.000000
19552.000000,40602.000000,44703.000000,23419.000000
19495.000000,40576.000000,44687.000000,23422.000000
19482.000000,40582.000000,44670.000000,23407.000000
19488.000000,40556.000000,44656.000000,23419.000000
19485.000000,40563.000000,44674.000000,23408.000000
19463.000000,40565.000000,44639.000000,23416.000000
19449.000000,40520.000000,44637.000000,23387.000000
19435.000000,40531.000000,44638.000000,23416.000000
19424.000000,40488.000000,44647.000000,23398.000000
19421.000000,40483.000000,44611.000000,23377.000000
19394.000000,40480.000000,44617.000000,23384.000000
19398.000000,40471.000000,44614.000000,23408.000000
19407.000000,40471.000000,44596.000000,23391.000000
19361.000000,40412.000000,44606.000000,23400.000000
19354.000000,40432.000000,44573.000000,23366.000000
19337.000000,40414.000000,44593.000000,23355.000000
19343.000000,40378.000000,44572.000000,23378.000000
19312.000000,40370.000000,44548.000000,23376.000000
19279.000000,40370.000000,44553.000000,23359.000000
19284.000000,40343.000000,44529.000000,23353.000000
19312.000000,40308.000000,44546.000000,23365.000000
19291.000000,40308.000000,44516.000000,23339.000000
19223.000000,40312.000000,44520.000000,23357.000000
19275.000000,40272.000000,44507.000000,23335.000000
19227.000000,40282.000000,44483.000000,23349.000000
19243.000000,40232.000000,44501.000000,23327.000000
19236.000000,40262.000000,44481.000000,23324.000000
19196.000000,40237.000000,44492.000000,23339.000000
19229.000000,40208.000000,44469.000000,23336.000000
19182.000000,40238.000000,44449.000000,23316.000000
19181.000000,40198.000000,44471.000000,23353.000000
19179.000000,40166.000000,44422.000000,23314.000000
19190.000000,40184.000000,44473.000000,23328.000000
19157.000000,40172.000000,44415.000000,23299.000000
19115.000000,40174.000000,44420.000000,23308.000000
19165.000000,40112.000000,44414.000000,23322.000000
19132.000000,40155.000000,44415.000000,23307.000000
19116.000000,40138.000000,44421.000000,23329.000000
19160.000000,40115.000000,44395.000000,23318.000000
19106.000000,40114.000000,44445.000000,23320.000000
19153.000000,40082.000000,44375.000000,23303.000000
19123.000000,40110.000000,44395.000000,23306.000000
19112.000000,40103.000000,44396.000000,23328.000000
19143.000000,40055.000000,44397.000000,23333.000000
19089.000000,40074.000000,44366.000000,23302.000000
19088.000000,40072.000000,44346.000000,23295.000000
19058.000000,40052.000000,44330.000000,23314.000000
19029.000000,39985.000000,44358.000000,23280.000000
19080.000000,40002.000000,44357.000000,23309.000000
19025.000000,40006.000000,44305.000000,23289.000000
19011.000000,39942.000000,44311.000000,23291.000000
18978.000000,39976.000000,44322.000000,23264.000000
18978.000000,39943.000000,44306.000000,23254.000000
18984.000000,39867.000000,44279.000000,23270.000000
18945.000000,39901.000000,44266.000000,23240.000000
18907.000000,39875.000000,44265.000000,23249.000000
18951.000000,39917.000000,44265.000000,23235.000000
18899.000000,39855.000000,44278.000000,23260.000000
18929.000000,39840.000000,44255.000000,23233.000000
18891.000000,39878.000000,44265.000000,23242.000000
18931.000000,39859.000000,44258.000000,23267.000000
18911.000000,39892.000000,44276.000000,23237.000000
18935.000000,39908.000000,44285.000000,23249.000000
18936.000000,39860.000000,44270.000000,23280.000000
18964.000000,39881.000000,44306.000000,23265.000000
18967.000000,39912.000000,44307.000000,23266.000000
18966.000000,39948.000000,44321.000000,23258.000000
18968.000000,39962.000000,44334.000000,23278.000000
18997.000000,39941.000000,44292.000000,23265.000000
19006.000000,39978.000000,44314.000000,23280.000000
19040.000000,39953.000000,44322.000000,23275.000000
19040.000000,39993.000000,44339.000000,23264.000000
19017.000000,40024.000000,44346.000000,23284.000000
19071.000000,40036.000000,44351.000000,23284.000000
19105.000000,40081.000000,44367.000000,23290.000000
19116.000000,40066.000000,44391.000000,23309.000000
19122.000000,40129.000000,44367.000000,23289.000000
19176.000000,40097.000000,44425.000000,23342.000000
19204.000000,40169.000000,44404.000000,23299.000000
19244.000000,40198.000000,44449.000000,23345.000000
19240.000000,40212.000000,44479.000000,23378.000000
19302.000000,40307.000000,44477.000000,23394.000000
19278.000000,40312.000000,44538.000000,23388.000000
19387.000000,40351.000000,44561.000000,23395.000000
19394.000000,40431.000000,44595.000000,23417.000000
19468.000000,40465.000000,44609.000000,23420.000000
19488.000000,40535.000000,44646.000000,23424.000000
19530.000000,40560.000000,44693.000000,23442.000000
19566.000000,40615.000000,44705.000000,23457.000000
19622.000000,40640.000000,44719.000000,23474.000000
19672.000000,40709.000000,44735.000000,23498.000000
19650.000000,40762.000000,44778.000000,23507.000000
19748.000000,40730.000000,44783.000000,23499.000000
19735.000000,40802.000000,44781.000000,23513.000000
19758.000000,40825.000000,44831.000000,23540.000000
19764.000000,40837.000000,44835.000000,23517.000000
19738.000000,40879.000000,44835.000000,23528.000000
19801.000000,40834.000000,44849.000000,23558.000000
19805.000000,40873.000000,44834.000000,23557.000000
19760.000000,40863.000000,44840.000000,23553.000000
19788.000000,40869.000000,44825.000000,23538.000000
19739.000000,40852.000000,44852.000000,23559.000000
19784.000000,40846.000000,44865.000000,23535.000000
19755.000000,40866.000000,44853.000000,23532.000000
19777.000000,40843.000000,44824.000000,23556.000000
19749.000000,40848.000000,44808.000000,23532.000000
19739.000000,40833.000000,44822.000000,23536.000000
19726.000000,40821.000000,44811.000000,23547.000000
19760.000000,40815.000000,44827.000000,23550.000000
19745.000000,40791.000000,44813.000000,23505.000000
19706.000000,40813.000000,44801.000000,23522.000000
19728.000000,40800.000000,44774.000000,23531.000000
19725.000000,40815.000000,44792.000000,23515.000000
19728.000000,40780.000000,44789.000000,23563.000000
19715.000000,40799.000000,44777.000000,23522.000000
19712.000000,40759.000000,44812.000000,23508.000000
19710.000000,40740.000000,44762.000000,23521.000000
19675.000000,40767.000000,44778.000000,23530.000000
19662.000000,40738.000000,44756.000000,23508.000000
19664.000000,40742.000000,44782.000000,23509.000000
19662.000000,40730.000000,44781.000000,23499.000000
19680.000000,40709.000000,44747.000000,23499.000000
19627.000000,40739.000000,44744.000000,23513.000000
19641.000000,40675.000000,44729.000000,23497.000000
19624.000000,40695.000000,44739.000000,23499.000000
19614.000000,40664.000000,44754.000000,23480.000000
19650.000000,40673.000000,44739.000000,23472.000000
19624.000000,40677.000000,44738.000000,23496.000000
19622.000000,40674.000000,44726.000000,23488.000000
19581.000000,40659.000000,44723.000000,23474.000000
19588.000000,40610.000000,44742.000000,23464.000000
19591.000000,40629.000000,44746.000000,23501.000000
19568.000000,40658.000000,44720.000000,23464.000000
19562.000000,40601.000000,44701.000000,23487.000000
19585.000000,40611.000000,44683.000000,23470.000000
19565.000000,40607.000000,44721.000000,23473.000000
19562.000000,40581.000000,44710.000000,23462.000000
19548.000000,40578.000000,44688.000000,23461.000000
19536.000000,40567.000000,44679.000000,23466.000000
19533.000000,40560.000000,44676.000000,23461.000000
19508.000000,40534.000000,44667.000000,23442.000000
19524.000000,40547.000000,44637.000000,23485.000000
19521.000000,40546.000000,44634.000000,23429.000000
19490.000000,40504.000000,44659.000000,23467.000000
19464.000000,40529.000000,44658.000000,23429.000000
19472.000000,40494.000000,44643.000000,23439.000000
19455.000000,40486.000000,44620.000000,23449.000000
19437.000000,40460.000000,44643.000000,23431.000000
19449.000000,40420.000000,44590.000000,23459.000000
19425.000000,40459.000000,44603.000000,23425.000000
19449.000000,40414.000000,44605.000000,23424.000000
19407.000000,40449.000000,44572.000000,23423.000000
19388.000000,40393.000000,44592.000000,23417.000000
19369.000000,40378.000000,44569.000000,23435.000000
19410.000000,40372.000000,44567.000000,23417.000000
19371.000000,40353.000000,44569.000000,23426.000000
19367.000000,40378.000000,44554.000000,23398.000000
19344.000000,40324.000000,44550.000000,23419.000000
19357.000000,40343.000000,44544.000000,23398.000000
19305.000000,40313.000000,44531.000000,23396.000000
19302.000000,40296.000000,44516.000000,23403.000000
19272.000000,40281.000000,44538.000000,23414.000000
19283.000000,40244.000000,44505.000000,23382.000000
19275.000000,40247.000000,44479.000000,23384.000000
19260.000000,40229.000000,44483.000000,23383.000000
19292.000000,40210.000000,44460.000000,23399.000000
19208.000000,40171.000000,44489.000000,23378.000000
19220.000000,40197.000000,44437.000000,23379.000000
19219.000000,40208.000000,44437.000000,23363.000000
19188.000000,40161.000000,44437.000000,23372.000000
19201.000000,40165.000000,44427.000000,23362.000000
19197.000000,40129.000000,44454.000000,23363.000000
19205.000000,40130.000000,44432.000000,23367.000000
19165.000000,40137.000000,44451.000000,23344.000000
19170.000000,40106.000000,44408.000000,23377.000000
19142.000000,40149.000000,44394.000000,23339.000000
19179.000000,40095.000000,44431.000000,23356.000000
19163.000000,40103.000000,44409.000000,23349.000000
19126.000000,40060.000000,44428.000000,23353.000000
19149.000000,40029.000000,44383.000000,23371.000000
19096.000000,40088.000000,44400.000000,23332.000000
19126.000000,40055.000000,44388.000000,23390.000000
19097.000000,40063.000000,44369.000000,23350.000000
19087.000000,40035.000000,44386.000000,23334.000000
19116.000000,40009.000000,44371.000000,23345.000000
19077.000000,40009.000000,44338.000000,23335.000000
19053.000000,39985.000000,44363.000000,23323.000000
19038.000000,39979.000000,44341.000000,23331.000000
19024.000000,39978.000000,44336.000000,23307.000000
19028.000000,39927.000000,44293.000000,23328.000000
19000.000000,39926.000000,44295.000000,23318.000000
18954.000000,39920.000000,44297.000000,23299.000000
18975.000000,39879.000000,44275.000000,23292.000000
18944.000000,39851.000000,44262.000000,23308.000000
18915.000000,39842.000000,44283.000000,23291.000000
18909.000000,39855.000000,44268.000000,23260.000000
18914.000000,39824.000000,44252.000000,23265.000000
18918.000000,39794.000000,44245.000000,23299.000000
18878.000000,39807.000000,44233.000000,23285.000000
18910.000000,39790.000000,44253.000000,23269.000000
18917.000000,39794.000000,44236.000000,23260.000000
18924.000000,39791.000000,44262.000000,23307.000000
18957.000000,39834.000000,44248.000000,23281.000000
18910.000000,39828.000000,44280.000000,23303.000000
18963.000000,39816.000000,44250.000000,23302.000000
18971.000000,39860.000000,44258.000000,23280.000000
18976.000000,39848.000000,44279.000000,23300.000000
19004.000000,39878.000000,44292.000000,23310.000000
19015.000000,39894.000000,44318.000000,23312.000000
19023.000000,39900.000000,44299.000000,23295.000000
19026.000000,39969.000000,44285.000000,23335.000000
19043.000000,39938.000000,44317.000000,23335.000000
19087.000000,39974.000000,44330.000000,23329.000000
19084.000000,39971.000000,44361.000000,23360.000000
19124.000000,39972.000000,44362.000000,23342.000000
19100.000000,40071.000000,44386.000000,23347.000000
19128.000000,40057.000000,44376.000000,23354.000000
19189.000000,40089.000000,44387.000000,23371.000000
19203.000000,40127.000000,44431.000000,23380.000000
19252.000000,40146.000000,44421.000000,23399.000000
19286.000000,40196.000000,44437.000000,23379.000000
19310.000000,40206.000000,44496.000000,23409.000000
19369.000000,40239.000000,44505.000000,23413.000000
19390.000000,40315.000000,44565.000000,23433.000000
19441.000000,40375.000000,44554.000000,23448.000000
19496.000000,40433.000000,44605.000000,23479.000000
19555.000000,40497.000000,44651.000000,23472.000000
19608.000000,40537.000000,44699.000000,23492.000000
19621.000000,40626.000000,44710.000000,23504.000000
19683.000000,40657.000000,44756.000000,23525.000000
19721.000000,40693.000000,44771.000000,23552.000000
19757.000000,40777.000000,44823.000000,23546.000000
19811.000000,40809.000000,44807.000000,23538.000000
19824.000000,40863.000000,44860.000000,23558.000000
19866.000000,40885.000000,44863.000000,23573.000000
19877.000000,40918.000000,44878.000000,23558.000000
19897.000000,40916.000000,44896.000000,23597.000000
19897.000000,40933.000000,44895.000000,23606.000000
19919.000000,40945.000000,44912.000000,23623.000000
19935.000000,40942.000000,44924.000000,23617.000000
19914.000000,40961.000000,44914.000000,23608.000000
19911.000000,40958.000000,44932.000000,23627.000000
19943.000000,40951.000000,44904.000000,23624.000000
19883.000000,40969.000000,44884.000000,23617.000000
19888.000000,40944.000000,44917.000000,23629.000000
19914.000000,40960.000000,44902.000000,23613.000000
19882.000000,40978.000000,44900.000000,23607.000000
19942.000000,40933.000000,44903.000000,23626.000000
19887.000000,40948.000000,44891.000000,23606.000000
19922.000000,40895.000000,44910.000000,23638.000000
19891.000000,40954.000000,44899.000000,23607.000000
19842.000000,40891.000000,44881.000000,23600.000000
19896.000000,40910.000000,44904.000000,23617.000000
19832.000000,40914.000000,44887.000000,23618.000000
19879.000000,40881.000000,44857.000000,23601.000000
19838.000000,40910.000000,44859.000000,23598.000000
19840.000000,40861.000000,44876.000000,23572.000000
19853.000000,40862.000000,44867.000000,23587.000000
19818.000000,40876.000000,44856.000000,23587.000000
19824.000000,40823.000000,44868.000000,23598.000000
19766.000000,40860.000000,44858.000000,23584.000000
19805.000000,40814.000000,44817.000000,23560.000000
19786.000000,40833.000000,44836.000000,23561.000000
19758.000000,40853.000000,44846.000000,23579.000000
19761.000000,40809.000000,44857.000000,23579.000000
19789.000000,40824.000000,44817.000000,23559.000000
19778.000000,40782.000000,44824.000000,23544.000000
19775.000000,40812.000000,44830.000000,23529.000000
19715.000000,40801.000000,44810.000000,23536.000000
19731.000000,40765.000000,44815.000000,23542.000000
19731.000000,40762.000000,44819.000000,23541.000000
19705.000000,40761.000000,44805.000000,23533.000000
19695.000000,40743.000000,44784.000000,23535.000000
19689.000000,40765.000000,44785.000000,23542.000000
19727.000000,40730.000000,44774.000000,23512.000000
19655.000000,40733.000000,44783.000000,23514.000000
19716.000000,40698.000000,44786.000000,23538.000000
19681.000000,40746.000000,44766.000000,23508.000000
19675.000000,40699.000000,44763.000000,23520.000000
19698.000000,40697.000000,44783.000000,23504.000000
19646.000000,40659.000000,44760.000000,23492.000000
19664.000000,40658.000000,44760.000000,23507.000000
19638.000000,40690.000000,44742.000000,23503.000000
19630.000000,40660.000000,44738.000000,23510.000000
19638.000000,40662.000000,44733.000000,23512.000000
19635.000000,40621.000000,44739.000000,23519.000000
19637.000000,40606.000000,44732.000000,23470.000000
19568.000000,40610.000000,44722.000000,23497.000000
19576.000000,40578.000000,44710.000000,23521.000000
19582.000000,40585.000000,44726.000000,23497.000000
19560.000000,40562.000000,44704.000000,23503.000000
19576.000000,40587.000000,44679.000000,23499.000000
19530.000000,40562.000000,44693.000000,23471.000000
19576.000000,40520.000000,44661.000000,23462.000000
19514.000000,40511.000000,44683.000000,23478.000000
19515.000000,40488.000000,44657.000000,23473.000000
19499.000000,40497.000000,44635.000000,23468.000000
19486.000000,40457.000000,44673.000000,23483.000000
19440.000000,40458.000000,44617.000000,23482.000000
19475.000000,40452.000000,44663.000000,23438.000000
19452.000000,40458.000000,44610.000000,23457.000000
19428.000000,40431.000000,44601.000000,23446.000000
19425.000000,40376.000000,44587.000000,23450.000000
19433.000000,40408.000000,44593.000000,23469.000000
19414.000000,40340.000000,44595.000000,23452.000000
19417.000000,40391.000000,44571.000000,23436.000000
19374.000000,40324.000000,44586.000000,23421.000000
19393.000000,40333.000000,44535.000000,23442.000000
19370.000000,40346.000000,44555.000000,23418.000000
19372.000000,40303.000000,44539.000000,23446.000000
19366.000000,40300.000000,44513.000000,23438.000000
19332.000000,40256.000000,44549.000000,23439.000000
19322.000000,40287.000000,44530.000000,23426.000000
19299.000000,40273.000000,44541.000000,23393.000000
19343.000000,40251.000000,44505.000000,23412.000000
19304.000000,40239.000000,44519.000000,23397.000000
19289.000000,40239.000000,44517.000000,23423.000000
19324.000000,40205.000000,44495.000000,23415.000000
19286.000000,40241.000000,44492.000000,23415.000000
19268.000000,40236.000000,44501.000000,23400.000000
19286.000000,40202.000000,44474.000000,23406.000000
19263.000000,40205.000000,44467.000000,23411.000000
19262.000000,40180.000000,44475.000000,23417.000000
19248.000000,40217.000000,44458.000000,23389.000000
19201.000000,40139.000000,44450.000000,23395.000000
19203.000000,40140.000000,44447.000000,23371.000000
19206.000000,40144.000000,44448.000000,23377.000000
19192.000000,40111.000000,44439.000000,23383.000000
19152.000000,40115.000000,44431.000000,23375.000000
19122.000000,40069.000000,44428.000000,23376.000000
19160.000000,40075.000000,44393.000000,23343.000000
19096.000000,40039.000000,44401.000000,23368.000000
19110.000000,40030.000000,44376.000000,23361.000000
19118.000000,40019.000000,44353.000000,23346.000000
19110.000000,39971.000000,44382.000000,23361.000000
19072.000000,39990.000000,44355.000000,23351.000000
19073.000000,39971.000000,44353.000000,23308.000000
19070.000000,39973.000000,44328.000000,23341.000000
19063.000000,39973.000000,44355.000000,23349.000000
19046.000000,39959.000000,44322.000000,23333.000000
19045.000000,39959.000000,44352.000000,23332.000000
19076.000000,39959.000000,44367.000000,23348.000000
19104.000000,39985.000000,44347.000000,23340.000000
19068.000000,39988.000000,44387.000000,23359.000000
19117.000000,39969.000000,44364.000000,23359.000000
19135.000000,40006.000000,44390.000000,23352.000000
19104.000000,40013.000000,44393.000000,23369.000000
19163.000000,40024.000000,44397.000000,23337.000000
19155.000000,40047.000000,44409.000000,23342.000000
19171.000000,40059.000000,44387.000000,23352.000000
19203.000000,40092.000000,44380.000000,23377.000000
19178.000000,40104.000000,44430.000000,23377.000000
19196.000000,40117.000000,44433.000000,23378.000000
19193.000000,40135.000000,44438.000000,23378.000000
19254.000000,40129.000000,44453.000000,23412.000000
19267.000000,40211.000000,44489.000000,23389.000000
19278.000000,40186.000000,44458.000000,23410.000000
19290.000000,40228.000000,44494.000000,23393.000000
19330.000000,40227.000000,44546.000000,23406.000000
19383.000000,40289.000000,44549.000000,23427.000000
19435.000000,40372.000000,44582.000000,23445.000000
19447.000000,40374.000000,44590.000000,23502.000000
19508.000000,40456.000000,44595.000000,23447.000000
19505.000000,40456.000000,44646.000000,23483.000000
19536.000000,40497.000000,44673.000000,23475.000000
19632.000000,40576.000000,44702.000000,23521.000000
19664.000000,40603.000000,44743.000000,23523.000000
19719.000000,40721.000000,44762.000000,23524.000000
19746.000000,40729.000000,44813.000000,23548.000000
19820.000000,40790.000000,44825.000000,23574.000000
19825.000000,40872.000000,44823.000000,23587.000000
19856.000000,40880.000000,44872.000000,23625.000000
19901.000000,40942.000000,44889.000000,23622.000000
19906.000000,40974.000000,44916.000000,23621.000000
19975.000000,40992.000000,44940.000000,23619.000000
19932.000000,41031.000000,44961.000000,23645.000000
19997.000000,41022.000000,44958.000000,23646.000000
19988.000000,41055.000000,44969.000000,23660.000000
19944.000000,41038.000000,44961.000000,23665.000000
20012.000000,41062.000000,44992.000000,23668.000000
19998.000000,41067.000000,45018.000000,23659.000000
20008.000000,41063.000000,44968.000000,23648.000000
19979.000000,41086.000000,44970.000000,23632.000000
20010.000000,41039.000000,44983.000000,23655.000000
20010.000000,41043.000000,44957.000000,23660.000000
19972.000000,41037.000000,44977.000000,23632.000000
19976.000000,41044.000000,44964.000000,23663.000000
19945.000000,41028.000000,44962.000000,23646.000000
19962.000000,41025.000000,44954.000000,23671.000000
19960.000000,41028.000000,44934.000000,23650.000000
19958.000000,41015.000000,44960.000000,23651.000000
19926.000000,40977.000000,44940.000000,23631.000000
19923.000000,40971.000000,44959.000000,23630.000000
19973.000000,40969.000000,44913.000000,23641.000000
19909.000000,40992.000000,44928.000000,23604.000000
19894.000000,40981.000000,44904.000000,23655.000000
19907.000000,40965.000000,44905.000000,23596.000000
19891.000000,40931.000000,44945.000000,23616.000000
19902.000000,40961.000000,44903.000000,23646.000000
19891.000000,40966.000000,44921.000000,23625.000000
19853.000000,40891.000000,44905.000000,23619.000000
19897.000000,40925.000000,44887.000000,23620.000000
19866.000000,40902.000000,44901.000000,23604.000000
19874.000000,40890.000000,44903.000000,23606.000000
19859.000000,40921.000000,44882.000000,23636.000000
19860.000000,40888.000000,44873.000000,23633.000000
19830.000000,40887.000000,44857.000000,23595.000000
19844.000000,40881.000000,44881.000000,23605.000000
19850.000000,40880.000000,44865.000000,23606.000000
19815.000000,40896.000000,44843.000000,23605.000000
19777.000000,40840.000000,44883.000000,23603.000000
19809.000000,40865.000000,44861.000000,23615.000000
19806.000000,40808.000000,44855.000000,23589.000000
19812.000000,40817.000000,44836.000000,23559.000000
19789.000000,40791.000000,44853.000000,23561.000000
19771.000000,40772.000000,44812.000000,23584.000000
19747.000000,40823.000000,44815.000000,23575.000000
19734.000000,40756.000000,44833.000000,23578.000000
19734.000000,40802.000000,44781.000000,23593.000000
19728.000000,40771.000000,44799.000000,23568.000000
19744.000000,40722.000000,44795.000000,23555.000000
19745.000000,40758.000000,44787.000000,23588.000000
19717.000000,40736.000000,44785.000000,23580.000000
19685.000000,40725.000000,44802.000000,23537.000000
19718.000000,40732.000000,44765.000000,23588.000000
19660.000000,40723.000000,44806.000000,23547.000000
19708.000000,40671.000000,44736.000000,23568.000000
19680.000000,40705.000000,44719.000000,23559.000000
19669.000000,40647.000000,44762.000000,23567.000000
19661.000000,40654.000000,44739.000000,23530.000000
19615.000000,40622.000000,44743.000000,23523.000000
19642.000000,40607.000000,44732.000000,23537.000000
19610.000000,40627.000000,44716.000000,23522.000000
19600.000000,40600.000000,44705.000000,23530.000000
19613.000000,40616.000000,44696.000000,23517.000000
19535.000000,40541.000000,44682.000000,23501.000000
19594.000000,40572.000000,44698.000000,23523.000000
19571.000000,40552.000000,44721.000000,23503.000000
19543.000000,40572.000000,44655.000000,23508.000000
19541.000000,40535.000000,44657.000000,23493.000000
19532.000000,40505.000000,44662.000000,23530.000000
19495.000000,40475.000000,44658.000000,23502.000000
19522.000000,40502.000000,44678.000000,23503.000000
19521.000000,40460.000000,44644.000000,23497.000000
19480.000000,40456.000000,44643.000000,23486.000000
19469.000000,40444.000000,44635.000000,23487.000000
19474.000000,40452.000000,44605.000000,23483.000000
19420.000000,40449.000000,44607.000000,23480.000000
19464.000000,40407.000000,44604.000000,23477.000000
19420.000000,40412.000000,44589.000000,23479.000000
19436.000000,40410.000000,44598.000000,23466.000000
19401.000000,40398.000000,44587.000000,23463.000000
19410.000000,40356.000000,44614.000000,23462.000000
19402.000000,40376.000000,44584.000000,23447.000000
19372.000000,40352.000000,44586.000000,23470.000000
19369.000000,40337.000000,44584.000000,23461.000000
19377.000000,40358.000000,44572.000000,23433.000000
19362.000000,40313.000000,44560.000000,23447.000000
19356.000000,40326.000000,44553.000000,23430.000000
19323.000000,40301.000000,44554.000000,23425.000000
19344.000000,40299.000000,44512.000000,23455.000000
19337.000000,40322.000000,44533.000000,23461.000000
19328.000000,40273.000000,44537.000000,23436.000000
19319.000000,40284.000000,44520.000000,23406.000000
19271.000000,40263.000000,44529.000000,23404.000000
19283.000000,40254.000000,44529.000000,23429.000000
19270.000000,40255.000000,44496.000000,23433.000000
19293.000000,40198.000000,44485.000000,23415.000000
19260.000000,40227.000000,44467.000000,23392.000000
19238.000000,40210.000000,44476.000000,23419.000000
19243.000000,40245.000000,44462.000000,23401.000000
19209.000000,40135.000000,44470.000000,23386.000000
19201.000000,40162.000000,44442.000000,23389.000000
19169.000000,40144.000000,44430.000000,23390.000000
19162.000000,40131.000000,44451.000000,23376.000000
19170.000000,40096.000000,44437.000000,23376.000000
19130.000000,40071.000000,44432.000000,23373.000000
19145.000000,40106.000000,44415.000000,23392.000000
19126.000000,40093.000000,44431.000000,23362.000000
19142.000000,40077.000000,44400.000000,23368.000000
19136.000000,40106.000000,44391.000000,23360.000000
19124.000000,40098.000000,44422.000000,23380.000000
19179.000000,40115.000000,44426.000000,23382.000000
19125.000000,40123.000000,44442.000000,23387.000000
19195.000000,40133.000000,44431.000000,23368.000000
19136.000000,40119.000000,44468.000000,23376.000000
19149.000000,40129.000000,44415.000000,23404.000000
19207.000000,40151.000000,44455.000000,23382.000000
19216.000000,40144.000000,44445.000000,23394.000000
19220.000000,40158.000000,44473.000000,23391.000000
19224.000000,40157.000000,44493.000000,23404.000000
19248.000000,40193.000000,44497.000000,23383.000000
19215.000000,40206.000000,44482.000000,23423.000000
19297.000000,40223.000000,44497.000000,23410.000000
19282.000000,40279.000000,44521.000000,23426.000000
19343.000000,40282.000000,44517.000000,23436.000000
19339.000000,40297.000000,44507.000000,23431.000000
19353.000000,40319.000000,44606.000000,23410.000000
19375.000000,40361.000000,44568.000000,23459.000000
19406.000000,40391.000000,44608.000000,23453.000000
19448.000000,40426.000000,44606.000000,23470.000000
19498.000000,40502.000000,44647.000000,23469.000000
19524.000000,40499.000000,44685.000000,23510.000000
19571.000000,40556.000000,44669.000000,23479.000000
19594.000000,40593.000000,44760.000000,23501.000000
19631.000000,40665.000000,44723.000000,23537.000000
19680.000000,40740.000000,44757.000000,23536.000000
19714.000000,40761.000000,44816.000000,23568.000000
19787.000000,40796.000000,44841.000000,23562.000000
19766.000000,40834.000000,44884.000000,23585.000000
19824.000000,40907.000000,44868.000000,23570.000000
19822.000000,40928.000000,44861.000000,23597.000000
19863.000000,40932.000000,44898.000000,23622.000000
19868.000000,40963.000000,44910.000000,23629.000000
19885.000000,40933.000000,44923.000000,23629.000000
19892.000000,40960.000000,44920.000000,23664.000000
19862.000000,40964.000000,44921.000000,23628.000000
19921.000000,40986.000000,44922.000000,23669.000000
19878.000000,41011.000000,44954.000000,23650.000000
19947.000000,41020.000000,44914.000000,23670.000000
19912.000000,41018.000000,44923.000000,23662.000000
19875.000000,40976.000000,44926.000000,23657.000000
19901.000000,40988.000000,44910.000000,23653.000000
19880.000000,40975.000000,44906.000000,23641.000000
19896.000000,40946.000000,44911.000000,23635.000000
19839.000000,40978.000000,44910.000000,23639.000000
19845.000000,40953.000000,44920.000000,23625.000000
19872.000000,40935.000000,44882.000000,23644.000000
19835.000000,40957.000000,44903.000000,23632.000000
19850.000000,40922.000000,44887.000000,23647.000000
19831.000000,40934.000000,44908.000000,23618.000000
19884.000000,40921.000000,44904.000000,23658.000000
19839.000000,40895.000000,44868.000000,23628.000000
19806.000000,40913.000000,44864.000000,23609.000000
19807.000000,40908.000000,44882.000000,23620.000000
19804.000000,40903.000000,44849.000000,23628.000000
19808.000000,40859.000000,44864.000000,23649.000000
19772.000000,40876.000000,44866.000000,23619.000000
19761.000000,40878.000000,44856.000000,23619.000000
19771.000000,40827.000000,44865.000000,23599.000000
19752.000000,40854.000000,44861.000000,23608.000000
19759.000000,40839.000000,44874.000000,23605.000000
19733.000000,40841.000000,44827.000000,23595.000000
19749.000000,40843.000000,44802.000000,23565.000000
19750.000000,40813.000000,44816.000000,23573.000000
19747.000000,40821.000000,44832.000000,23601.000000
19690.000000,40795.000000,44855.000000,23572.000000
19717.000000,40801.000000,44813.000000,23600.000000
19716.000000,40810.000000,44810.000000,23566.000000
19678.000000,40751.000000,44807.000000,23574.000000
19682.000000,40776.000000,44805.000000,23577.000000
19707.000000,40753.000000,44803.000000,23556.000000
19683.000000,40742.000000,44790.000000,23562.000000
19665.000000,40743.000000,44786.000000,23532.000000
19658.000000,40706.000000,44793.000000,23579.000000
19657.000000,40723.000000,44787.000000,23540.000000
19622.000000,40719.000000,44780.000000,23537.000000
19633.000000,40691.000000,44761.000000,23543.000000
19625.000000,40689.000000,44776.000000,23536.000000
19586.000000,40667.000000,44760.000000,23525.000000
19601.000000,40664.000000,44731.000000,23524.000000
19558.000000,40682.000000,44737.000000,23530.000000
19575.000000,40626.000000,44736.000000,23535.000000
19565.000000,40642.000000,44743.000000,23528.000000
19525.000000,40630.000000,44719.000000,23502.000000
19524.000000,40602.000000,44680.000000,23539.000000
19505.000000,40596.000000,44691.000000,23530.000000
19500.000000,40561.000000,44705.000000,23514.000000
19521.000000,40566.000000,44674.000000,23489.000000
19457.000000,40546.000000,44675.000000,23492.000000
19494.000000,40556.000000,44682.000000,23497.000000
19485.000000,40535.000000,44645.000000,23507.000000
19446.000000,40528.000000,44669.000000,23501.000000
19432.000000,40526.000000,44672.000000,23459.000000
19472.000000,40470.000000,44649.000000,23488.000000
19426.000000,40478.000000,44631.000000,23459.000000
19393.000000,40455.000000,44637.000000,23471.000000
19419.000000,40470.000000,44614.000000,23473.000000
19376.000000,40425.000000,44643.000000,23462.000000
19360.000000,40398.000000,44583.000000,23469.000000
19360.000000,40407.000000,44581.000000,23455.000000
19303.000000,40363.000000,44579.000000,23455.000000
19336.000000,40381.000000,44561.000000,23445.000000
19279.000000,40355.000000,44569.000000,23446.000000
19348.000000,40352.000000,44561.000000,23461.000000
19330.000000,40342.000000,44505.000000,23456.000000
19297.000000,40313.000000,44558.000000,23437.000000
19295.000000,40299.000000,44529.000000,23422.000000
19251.000000,40308.000000,44533.000000,23422.000000
19283.000000,40245.000000,44514.000000,23441.000000
19277.000000,40285.000000,44500.000000,23421.000000
19217.000000,40253.000000,44519.000000,23437.000000
19266.000000,40231.000000,44492.000000,23422.000000
19217.000000,40250.000000,44488.000000,23423.000000
19237.000000,40235.000000,44488.000000,23409.000000
19201.000000,40245.000000,44474.000000,23430.000000
19227.000000,40224.000000,44472.000000,23426.000000
19228.000000,40173.000000,44480.000000,23379.000000
19164.000000,40176.000000,44451.000000,23417.000000
19186.000000,40128.000000,44444.000000,23410.000000
19141.000000,40150.000000,44414.000000,23403.000000
19144.000000,40155.000000,44410.000000,23420.000000
19138.000000,40106.000000,44438.000000,23393.000000
19096.000000,40093.000000,44419.000000,23398.000000
19094.000000,40052.000000,44390.000000,23402.000000
19092.000000,40081.000000,44378.000000,23385.000000
19118.000000,40045.000000,44371.000000,23370.000000
19058.000000,40038.000000,44354.000000,23358.000000
19044.000000,39998.000000,44353.000000,23368.000000
19027.000000,39990.000000,44362.000000,23374.000000
18986.000000,39960.000000,44351.000000,23342.000000
19012.000000,39923.000000,44333.000000,23359.000000
18945.000000,39916.000000,44326.000000,23334.000000
18989.000000,39914.000000,44298.000000,23350.000000
18965.000000,39933.000000,44298.000000,23363.000000
18939.000000,39886.000000,44293.000000,23349.000000
18990.000000,39913.000000,44298.000000,23354.000000
18961.000000,39907.000000,44331.000000,23363.000000
18979.000000,39908.000000,44281.000000,23362.000000
19030.000000,39933.000000,44310.000000,23340.000000
19002.000000,39922.000000,44321.000000,23393.000000
19040.000000,39964.000000,44308.000000,23361.000000
19017.000000,39931.000000,44325.000000,23391.000000
19037.000000,39959.000000,44322.000000,23379.000000
19066.000000,39984.000000,44295.000000,23381.000000
19082.000000,40019.000000,44337.000000,23423.000000
19099.000000,40002.000000,44361.000000,23378.000000
19062.000000,40036.000000,44396.000000,23389.000000
19130.000000,39996.000000,44352.000000,23404.000000
19105.000000,40085.000000,44369.000000,23393.000000
19179.000000,40057.000000,44398.000000,23400.000000
19161.000000,40110.000000,44419.000000,23443.000000
19177.000000,40148.000000,44410.000000,23431.000000
19234.000000,40172.000000,44457.000000,23449.000000
19193.000000,40190.000000,44489.000000,23469.000000
19284.000000,40189.000000,44486.000000,23456.000000
19316.000000,40253.000000,44505.000000,23474.000000
19387.000000,40275.000000,44520.000000,23480.000000
19401.000000,40372.000000,44545.000000,23469.000000
19425.000000,40378.000000,44586.000000,23493.000000
19470.000000,40478.000000,44601.000000,23511.000000
19520.000000,40499.000000,44638.000000,23519.000000
19542.000000,40509.000000,44672.000000,23549.000000
19606.000000,40596.000000,44687.000000,23517.000000
19658.000000,40619.000000,44728.000000,23546.000000
19641.000000,40697.000000,44730.000000,23552.000000
19690.000000,40723.000000,44795.000000,23602.000000
19717.000000,40754.000000,44777.000000,23593.000000
19733.000000,40788.000000,44809.000000,23626.000000
19767.000000,40813.000000,44817.000000,23614.000000
19764.000000,40841.000000,44834.000000,23643.000000
19778.000000,40859.000000,44857.000000,23634.000000
19794.000000,40837.000000,44860.000000,23643.000000
19764.000000,40888.000000,44879.000000,23635.000000
19829.000000,40872.000000,44861.000000,23667.000000
19808.000000,40885.000000,44856.000000,23634.000000
19773.000000,40866.000000,44841.000000,23646.000000
19784.000000,40873.000000,44871.000000,23617.000000
19763.000000,40838.000000,44857.000000,23641.000000
19796.000000,40849.000000,44833.000000,23655.000000
19778.000000,40870.000000,44835.000000,23637.000000
19794.000000,40843.000000,44834.000000,23656.000000
19754.000000,40866.000000,44845.000000,23628.000000
19759.000000,40825.000000,44849.000000,23656.000000
19732.000000,40813.000000,44814.000000,23630.000000
19710.000000,40834.000000,44817.000000,23617.000000
19745.000000,40822.000000,44810.000000,23633.000000
19754.000000,40802.000000,44771.000000,23639.000000
19710.000000,40793.000000,44803.000000,23629.000000
19744.000000,40761.000000,44815.000000,23607.000000
19740.000000,40763.000000,44807.000000,23617.000000
19709.000000,40770.000000,44794.000000,23618.000000
19678.000000,40751.000000,44803.000000,23611.000000
19685.000000,40741.000000,44763.000000,23614.000000
19695.000000,40726.000000,44763.000000,23606.000000
19672.000000,40711.000000,44787.000000,23601.000000
19685.000000,40721.000000,44778.000000,23596.000000
19676.000000,40687.000000,44778.000000,23602.000000
19678.000000,40699.000000,44763.000000,23627.000000
19625.000000,40716.000000,44745.000000,23601.000000
19661.000000,40691.000000,44731.000000,23603.000000
19617.000000,40690.000000,44735.000000,23590.000000
19633.000000,40641.000000,44773.000000,23621.000000
19587.000000,40660.000000,44734.000000,23608.000000
19624.000000,40636.000000,44741.000000,23588.000000
19657.000000,40620.000000,44710.000000,23579.000000
19609.000000,40663.000000,44710.000000,23608.000000
19581.000000,40589.000000,44701.000000,23575.000000
19552.000000,40610.000000,44712.000000,23569.000000
19585.000000,40595.000000,44698.000000,23585.000000
19558.000000,40568.000000,44703.000000,23596.000000
19543.000000,40546.000000,44696.000000,23587.000000
19561.000000,40558.000000,44694.000000,23574.000000
19541.000000,40555.000000,44667.000000,23555.000000
19548.000000,40531.000000,44655.000000,23614.000000
19551.000000,40527.000000,44644.000000,23569.000000
19526.000000,40518.000000,44647.000000,23603.000000
19515.000000,40505.000000,44640.000000,23553.000000
19481.000000,40518.000000,44620.000000,23568.000000
19489.000000,40452.000000,44620.000000,23581.000000
19456.000000,40509.000000,44612.000000,23545.000000
19459.000000,40452.000000,44614.000000,23524.000000
19462.000000,40466.000000,44569.000000,23551.000000
19442.000000,40410.000000,44610.000000,23558.000000
19472.000000,40421.000000,44588.000000,23547.000000
19399.000000,40402.000000,44568.000000,23556.000000
19402.000000,40389.000000,44581.000000,23554.000000
19409.000000,40382.000000,44573.000000,23528.000000
19360.000000,40335.000000,44562.000000,23521.000000
19407.000000,40345.000000,44558.000000,23535.000000
19343.000000,40340.000000,44530.000000,23532.000000
19326.000000,40297.000000,44519.000000,23538.000000
19362.000000,40300.000000,44511.000000,23513.000000
19333.000000,40285.000000,44498.000000,23517.000000
19335.000000,40275.000000,44476.000000,23493.000000
19294.000000,40274.000000,44464.000000,23479.000000
19303.000000,40234.000000,44484.000000,23523.000000
19261.000000,40225.000000,44449.000000,23493.000000
19252.000000,40181.000000,44488.000000,23491.000000
19217.000000,40162.000000,44446.000000,23476.000000
19182.000000,40179.000000,44430.000000,23479.000000
19229.000000,40174.000000,44435.000000,23498.000000
19185.000000,40156.000000,44411.000000,23488.000000
19143.000000,40121.000000,44433.000000,23472.000000
19198.000000,40131.000000,44399.000000,23478.000000
19146.000000,40106.000000,44408.000000,23440.000000
19153.000000,40098.000000,44400.000000,23470.000000
19136.000000,40080.000000,44364.000000,23449.000000
19118.000000,40050.000000,44401.000000,23464.000000
19125.000000,40041.000000,44352.000000,23473.000000
19108.000000,40046.000000,44389.000000,23458.000000
19117.000000,40032.000000,44361.000000,23472.000000
19107.000000,40020.000000,44349.000000,23439.000000
19078.000000,40002.000000,44370.000000,23451.000000
19102.000000,39986.000000,44348.000000,23440.000000
19060.000000,39970.000000,44338.000000,23442.000000
19051.000000,39969.000000,44328.000000,23455.000000
19030.000000,39976.000000,44316.000000,23426.000000
19047.000000,39903.000000,44311.000000,23430.000000
19040.000000,39901.000000,44289.000000,23411.000000
18975.000000,39920.000000,44329.000000,23434.000000
18982.000000,39931.000000,44273.000000,23423.000000
18982.000000,39911.000000,44261.000000,23409.000000
18954.000000,39858.000000,44277.000000,23423.000000
18975.000000,39852.000000,44249.000000,23384.000000
18929.000000,39841.000000,44241.000000,23381.000000
18928.000000,39802.000000,44224.000000,23399.000000
18888.000000,39781.000000,44228.000000,23394.000000
18894.000000,39751.000000,44189.000000,23398.000000
18885.000000,39740.000000,44222.000000,23372.000000
18875.000000,39767.000000,44177.000000,23362.000000
18862.000000,39748.000000,44195.000000,23382.000000
18861.000000,39723.000000,44193.000000,23356.000000
18829.000000,39671.000000,44201.000000,23354.000000
18861.000000,39691.000000,44149.000000,23352.000000
18828.000000,39761.000000,44175.000000,23372.000000
18824.000000,39749.000000,44183.000000,23379.000000
18880.000000,39731.000000,44179.000000,23352.000000
18841.000000,39743.000000,44199.000000,23391.000000
18895.000000,39741.000000,44205.000000,23381.000000
18875.000000,39777.000000,44200.000000,23376.000000
18906.000000,39761.000000,44220.000000,23401.000000
18921.000000,39801.000000,44204.000000,23398.000000
18911.000000,39801.000000,44250.000000,23396.000000
18943.000000,39786.000000,44247.000000,23385.000000
18948.000000,39836.000000,44259.000000,23392.000000
18960.000000,39831.000000,44226.000000,23394.000000
19004.000000,39872.000000,44276.000000,23406.000000
19008.000000,39898.000000,44286.000000,23419.000000
19040.000000,39903.000000,44253.000000,23428.000000
19009.000000,39906.000000,44291.000000,23432.000000
19061.000000,39925.000000,44317.000000,23440.000000
19081.000000,39959.000000,44358.000000,23457.000000
19123.000000,40010.000000,44325.000000,23454.000000
19117.000000,40078.000000,44354.000000,23469.000000
19197.000000,40052.000000,44407.000000,23499.000000
19227.000000,40140.000000,44426.000000,23489.000000
19265.000000,40162.000000,44433.000000,23491.000000
19286.000000,40239.000000,44471.000000,23498.000000
19348.000000,40261.000000,44485.000000,23524.000000
19412.000000,40343.000000,44542.000000,23554.000000
19429.000000,40391.000000,44585.000000,23592.000000
19503.000000,40454.000000,44574.000000,23593.000000
19530.000000,40530.000000,44637.000000,23615.000000
19602.000000,40537.000000,44642.000000,23636.000000
19656.000000,40607.000000,44701.000000,23645.000000
19692.000000,40672.000000,44729.000000,23639.000000
19680.000000,40684.000000,44697.000000,23684.000000
19716.000000,40757.000000,44768.000000,23674.000000
19772.000000,40752.000000,44758.000000,23690.000000
19759.000000,40798.000000,44789.000000,23673.000000
19772.000000,40756.000000,44816.000000,23694.000000
19784.000000,40806.000000,44782.000000,23682.000000
19781.000000,40796.000000,44822.000000,23696.000000
19779.000000,40783.000000,44778.000000,23722.000000
19771.000000,40801.000000,44789.000000,23705.000000
19774.000000,40780.000000,44781.000000,23708.000000
19792.000000,40784.000000,44781.000000,23704.000000
19769.000000,40787.000000,44801.000000,23708.000000
19734.000000,40754.000000,44780.000000,23673.000000
19748.000000,40794.000000,44789.000000,23704.000000
19752.000000,40731.000000,44764.000000,23700.000000
19744.000000,40753.000000,44764.000000,23712.000000
19752.000000,40705.000000,44739.000000,23698.000000
19744.000000,40726.000000,44729.000000,23690.000000
19708.000000,40737.000000,44763.000000,23681.000000
19721.000000,40704.000000,44763.000000,23710.000000
19699.000000,40707.000000,44747.000000,23698.000000
19719.000000,40693.000000,44762.000000,23679.000000
19690.000000,40707.000000,44721.000000,23688.000000
19648.000000,40670.000000,44746.000000,23673.000000
19668.000000,40648.000000,44717.000000,23682.000000
19695.000000,40685.000000,44724.000000,23678.000000
19664.000000,40627.000000,44714.000000,23688.000000
19669.000000,40659.000000,44697.000000,23680.000000
19645.000000,40637.000000,44726.000000,23673.000000
19661.000000,40628.000000,44694.000000,23665.000000
19596.000000,40620.000000,44712.000000,23637.000000
19601.000000,40592.000000,44689.000000,23660.000000
19594.000000,40602.000000,44675.000000,23640.000000
19626.000000,40595.000000,44689.000000,23655.000000
19641.000000,40561.000000,44658.000000,23644.000000
19569.000000,40564.000000,44681.000000,23656.000000
19614.000000,40552.000000,44663.000000,23640.000000
19584.000000,40579.000000,44656.000000,23659.000000
19598.000000,40538.000000,44662.000000,23670.000000
19566.000000,40519.000000,44643.000000,23642.000000
19556.000000,40505.000000,44635.000000,23639.000000
19596.000000,40513.000000,44635.000000,23611.000000
19515.000000,40486.000000,44639.000000,23635.000000
19550.000000,40497.000000,44628.000000,23634.000000
19523.000000,40480.000000,44600.000000,23626.000000
19535.000000,40455.000000,44600.000000,23640.000000
19519.000000,40471.000000,44594.000000,23629.000000
19484.000000,40440.000000,44614.000000,23624.000000
19495.000000,40415.000000,44596.000000,23621.000000
19471.000000,40407.000000,44589.000000,23634.000000
19503.000000,40375.000000,44561.000000,23596.000000
19431.000000,40365.000000,44554.000000,23616.000000
19435.000000,40379.000000,44555.000000,23602.000000
19444.000000,40386.000000,44543.000000,23601.000000
19393.000000,40363.000000,44570.000000,23598.000000
19432.000000,40353.000000,44507.000000,23568.000000
19385.000000,40302.000000,44529.000000,23599.000000
19387.000000,40296.000000,44516.000000,23562.000000
19369.000000,40284.000000,44484.000000,23579.000000
19364.000000,40264.000000,44488.000000,23594.000000
19370.000000,40281.000000,44510.000000,23581.000000
19309.000000,40276.000000,44501.000000,23563.000000
19353.000000,40231.000000,44478.000000,23563.000000
19307.000000,40211.000000,44474.000000,23557.000000
19336.000000,40210.000000,44450.000000,23563.000000
19284.000000,40230.000000,44449.000000,23544.000000
19305.000000,40176.000000,44452.000000,23526.000000
19269.000000,40165.000000,44425.000000,23535.000000
19237.000000,40152.000000,44430.000000,23561.000000
19231.000000,40140.000000,44415.000000,23540.000000
19220.000000,40121.000000,44423.000000,23533.000000
19229.000000,40113.000000,44420.000000,23526.000000
19183.000000,40084.000000,44392.000000,23533.000000
19187.000000,40068.000000,44355.000000,23532.000000
19169.000000,40076.000000,44374.000000,23522.000000
19177.000000,40025.000000,44364.000000,23522.000000
19148.000000,40063.000000,44364.000000,23527.000000
19143.000000,40016.000000,44371.000000,23506.000000
19149.000000,40027.000000,44343.000000,23492.000000
19152.000000,40027.000000,44375.000000,23502.000000
19121.000000,40028.000000,44322.000000,23501.000000
19094.000000,40001.000000,44332.000000,23457.000000
19106.000000,39979.000000,44317.000000,23505.000000
19116.000000,39993.000000,44341.000000,23479.000000
19095.000000,39955.000000,44323.000000,23485.000000
19072.000000,39978.000000,44323.000000,23465.000000
19071.000000,39968.000000,44312.000000,23478.000000
19067.000000,39927.000000,44316.000000,23496.000000
19060.000000,39948.000000,44291.000000,23465.000000
19068.000000,39947.000000,44316.000000,23476.000000
19070.000000,39908.000000,44287.000000,23471.000000
18995.000000,39909.000000,44288.000000,23431.000000
18997.000000,39852.000000,44251.000000,23473.000000
18994.000000,39878.000000,44283.000000,23457.000000
18984.000000,39862.000000,44259.000000,23457.000000
18999.000000,39858.000000,44250.000000,23452.000000
18963.000000,39792.000000,44248.000000,23433.000000
18962.000000,39772.000000,44241.000000,23433.000000
18935.000000,39782.000000,44196.000000,23419.000000
18899.000000,39764.000000,44194.000000,23435.000000
18906.000000,39730.000000,44174.000000,23433.000000
18840.000000,39727.000000,44179.000000,23431.000000
18890.000000,39732.000000,44166.000000,23408.000000
18833.000000,39696.000000,44180.000000,23433.000000
18860.000000,39655.000000,44156.000000,23395.000000
18834.000000,39683.000000,44179.000000,23418.000000
18883.000000,39676.000000,44157.000000,23414.000000
18883.000000,39712.000000,44169.000000,23407.000000
18873.000000,39709.000000,44207.000000,23434.000000
18894.000000,39699.000000,44170.000000,23416.000000
18913.000000,39712.000000,44191.000000,23424.000000
18918.000000,39743.000000,44209.000000,23426.000000
18907.000000,39795.000000,44190.000000,23428.000000
18928.000000,39777.000000,44197.000000,23453.000000
18965.000000,39822.000000,44225.000000,23459.000000
19010.000000,39798.000000,44274.000000,23457.000000
19025.000000,39821.000000,44243.000000,23457.000000
18984.000000,39872.000000,44269.000000,23467.000000
19024.000000,39857.000000,44266.000000,23457.000000
19069.000000,39898.000000,44284.000000,23448.000000
19070.000000,39909.000000,44325.000000,23483.000000
19111.000000,39919.000000,44321.000000,23489.000000
19096.000000,39956.000000,44326.000000,23464.000000
19169.000000,39978.000000,44343.000000,23502.000000
19172.000000,40063.000000,44360.000000,23465.000000
19184.000000,40038.000000,44390.000000,23507.000000
19203.000000,40107.000000,44412.000000,23508.000000
19244.000000,40133.000000,44450.000000,23531.000000
19335.000000,40147.000000,44448.000000,23532.000000
19353.000000,40241.000000,44468.000000,23515.000000
19389.000000,40266.000000,44541.000000,23578.000000
19461.000000,40330.000000,44527.000000,23571.000000
19483.000000,40434.000000,44606.000000,23600.000000
19543.000000,40464.000000,44632.000000,23615.000000
19608.000000,40571.000000,44673.000000,23623.000000
19619.000000,40562.000000,44697.000000,23628.000000
19724.000000,40612.000000,44692.000000,23669.000000
19692.000000,40677.000000,44750.000000,23670.000000
19769.000000,40702.000000,44757.000000,23679.000000
19806.000000,40782.000000,44805.000000,23698.000000
19826.000000,40762.000000,44783.000000,23712.000000
19815.000000,40802.000000,44824.000000,23698.000000
19854.000000,40822.000000,44825.000000,23700.000000
19846.000000,40865.000000,44847.000000,23733.000000
19832.000000,40886.000000,44852.000000,23729.000000
19862.000000,40862.000000,44821.000000,23727.000000
19850.000000,40878.000000,44875.000000,23743.000000
19887.000000,40857.000000,44837.000000,23741.000000
19884.000000,40841.000000,44846.000000,23744.000000
19884.000000,40872.000000,44849.000000,23751.000000
19874.000000,40842.000000,44853.000000,23733.000000
19852.000000,40844.000000,44818.000000,23738.000000
19868.000000,40844.000000,44820.000000,23742.000000
19837.000000,40832.000000,44827.000000,23719.000000
19846.000000,40824.000000,44806.000000,23756.000000
19797.000000,40784.000000,44818.000000,23754.000000
19828.000000,40802.000000,44835.000000,23742.000000
19818.000000,40806.000000,44786.000000,23741.000000
19808.000000,40778.000000,44817.000000,23726.000000
19818.000000,40779.000000,44800.000000,23737.000000
19770.000000,40772.000000,44835.000000,23732.000000
19814.000000,40764.000000,44806.000000,23723.000000
19784.000000,40776.000000,44780.000000,23716.000000
19789.000000,40752.000000,44785.000000,23728.000000
19788.000000,40745.000000,44778.000000,23716.000000
19795.000000,40722.000000,44798.000000,23716.000000
19789.000000,40703.000000,44760.000000,23714.000000
19756.000000,40731.000000,44794.000000,23731.000000
19794.000000,40701.000000,44778.000000,23717.000000
19769.000000,40730.000000,44754.000000,23713.000000
19734.000000,40709.000000,44764.000000,23720.000000
19727.000000,40687.000000,44752.000000,23705.000000
19721.000000,40659.000000,44768.000000,23735.000000
19747.000000,40654.000000,44737.000000,23711.000000
19720.000000,40704.000000,44757.000000,23705.000000
19720.000000,40670.000000,44764.000000,23714.000000
19743.000000,40660.000000,44722.000000,23708.000000
19719.000000,40639.000000,44731.000000,23704.000000
19729.000000,40661.000000,44749.000000,23690.000000
19713.000000,40702.000000,44740.000000,23702.000000
19681.000000,40613.000000,44720.000000,23724.000000
19696.000000,40645.000000,44729.000000,23669.000000
19688.000000,40604.000000,44702.000000,23708.000000
19666.000000,40611.000000,44711.000000,23686.000000
19676.000000,40616.000000,44703.000000,23701.000000
19659.000000,40587.000000,44735.000000,23703.000000
19643.000000,40601.000000,44704.000000,23678.000000
19662.000000,40586.000000,44716.000000,23685.000000
19663.000000,40584.000000,44706.000000,23657.000000
19634.000000,40544.000000,44696.000000,23661.000000
19633.000000,40521.000000,44664.000000,23670.000000
19615.000000,40532.000000,44684.000000,23656.000000
19601.000000,40500.000000,44671.000000,23670.000000
19623.000000,40540.000000,44665.000000,23678.000000
19567.000000,40482.000000,44643.000000,23660.000000
19577.000000,40485.000000,44649.000000,23635.000000
19568.000000,40481.000000,44651.000000,23651.000000
19578.000000,40462.000000,44629.000000,23655.000000
19551.000000,40465.000000,44631.000000,23650.000000
19543.000000,40405.000000,44625.000000,23638.000000
19541.000000,40436.000000,44633.000000,23615.000000
19504.000000,40429.000000,44606.000000,23619.000000
19499.000000,40394.000000,44572.000000,23629.000000
19464.000000,40407.000000,44573.000000,23597.000000
19471.000000,40347.000000,44564.000000,23599.000000
19484.000000,40366.000000,44557.000000,23609.000000
19446.000000,40350.000000,44571.000000,23613.000000
19456.000000,40285.000000,44533.000000,23609.000000
19426.000000,40342.000000,44521.000000,23611.000000
19427.000000,40281.000000,44533.000000,23589.000000
19399.000000,40272.000000,44517.000000,23621.000000
19380.000000,40272.000000,44524.000000,23596.000000
19392.000000,40248.000000,44501.000000,23598.000000
19380.000000,40271.000000,44501.000000,23588.000000
19346.000000,40252.000000,44500.000000,23607.000000
19393.000000,40218.000000,44490.000000,23576.000000
19328.000000,40204.000000,44506.000000,23567.000000
19358.000000,40158.000000,44494.000000,23582.000000
19319.000000,40219.000000,44494.000000,23563.000000
19315.000000,40180.000000,44460.000000,23576.000000
19312.000000,40175.000000,44447.000000,23564.000000
19296.000000,40138.000000,44483.000000,23597.000000
19318.000000,40169.000000,44433.000000,23573.000000
19334.000000,40197.000000,44464.000000,23580.000000
19302.000000,40132.000000,44455.000000,23599.000000
19298.000000,40131.000000,44472.000000,23570.000000
19292.000000,40115.000000,44460.000000,23574.000000
19313.000000,40135.000000,44428.000000,23566.000000
19273.000000,40154.000000,44439.000000,23539.000000
19264.000000,40102.000000,44442.000000,23572.000000
19275.000000,40102.000000,44429.000000,23553.000000
19256.000000,40130.000000,44461.000000,23548.000000
19256.000000,40069.000000,44386.000000,23549.000000
19216.000000,40102.000000,44401.000000,23542.000000
19223.000000,40039.000000,44419.000000,23531.000000
19231.000000,40073.000000,44381.000000,23545.000000
19165.000000,39984.000000,44414.000000,23509.000000
19190.000000,39988.000000,44365.000000,23507.000000
19146.000000,39999.000000,44390.000000,23526.000000
19165.000000,39972.000000,44330.000000,23527.000000
19125.000000,39985.000000,44353.000000,23515.000000
19083.000000,39938.000000,44361.000000,23521.000000
19147.000000,39938.000000,44329.000000,23527.000000
19103.000000,39964.000000,44331.000000,23527.000000
19139.000000,39955.000000,44346.000000,23525.000000
19127.000000,39942.000000,44347.000000,23481.000000
19128.000000,39923.000000,44344.000000,23505.000000
19155.000000,39950.000000,44350.000000,23517.000000
19165.000000,39981.000000,44388.000000,23515.000000
19191.000000,39983.000000,44356.000000,23513.000000
19170.000000,40007.000000,44392.000000,23530.000000
19193.000000,39991.000000,44404.000000,23553.000000
19222.000000,40008.000000,44390.000000,23512.000000
19187.000000,40063.000000,44387.000000,23532.000000
19217.000000,40041.000000,44414.000000,23536.000000
19252.000000,40079.000000,44422.000000,23548.000000
19268.000000,40065.000000,44426.000000,23536.000000
19310.000000,40081.000000,44430.000000,23572.000000
19309.000000,40124.000000,44458.000000,23560.000000
19350.000000,40124.000000,44459.000000,23579.000000
19332.000000,40198.000000,44502.000000,23582.000000
19356.000000,40184.000000,44486.000000,23585.000000
19400.000000,40231.000000,44490.000000,23585.000000
19438.000000,40282.000000,44504.000000,23631.000000
19493.000000,40268.000000,44537.000000,23618.000000
19502.000000,40343.000000,44572.000000,23619.000000
19527.000000,40377.000000,44630.000000,23632.000000
19582.000000,40442.000000,44630.000000,23656.000000
19626.000000,40474.000000,44678.000000,23663.000000
19695.000000,40542.000000,44677.000000,23665.000000
19750.000000,40613.000000,44710.000000,23697.000000
19770.000000,40659.000000,44775.000000,23735.000000
19854.000000,40703.000000,44788.000000,23749.000000
19859.000000,40772.000000,44810.000000,23713.000000
19947.000000,40815.000000,44844.000000,23792.000000
19956.000000,40926.000000,44872.000000,23767.000000
20001.000000,40894.000000,44920.000000,23797.000000
20025.000000,40974.000000,44942.000000,23794.000000
20061.000000,41004.000000,44944.000000,23828.000000
20089.000000,41013.000000,44971.000000,23848.000000
20082.000000,41092.000000,44980.000000,23838.000000
20105.000000,41066.000000,44986.000000,23844.000000
20155.000000,41061.000000,45012.000000,23835.000000
20124.000000,41108.000000,45013.000000,23841.000000
20154.000000,41065.000000,45021.000000,23845.000000
20129.000000,41135.000000,45010.000000,23851.000000
20147.000000,41063.000000,45021.000000,23853.000000
20121.000000,41069.000000,45017.000000,23836.000000
20093.000000,41060.000000,45014.000000,23848.000000
20147.000000,41061.000000,45010.000000,23851.000000
20109.000000,41064.000000,45002.000000,23846.000000
20138.000000,41057.000000,44986.000000,23836.000000
20102.000000,41064.000000,44991.000000,23845.000000
20110.000000,41035.000000,44979.000000,23832.000000
20134.000000,41047.000000,44973.000000,23809.000000
20049.000000,41045.000000,45012.000000,23816.000000
20090.000000,41064.000000,44974.000000,23847.000000
20079.000000,41042.000000,44984.000000,23816.000000
20064.000000,41044.000000,45003.000000,23817.000000
20040.000000,41035.000000,44969.000000,23795.000000
20039.000000,40994.000000,44976.000000,23813.000000
20037.000000,41009.000000,44951.000000,23823.000000
20043.000000,41012.000000,44963.000000,23801.000000
20036.000000,40972.000000,44965.000000,23801.000000
20013.000000,40997.000000,44971.000000,23785.000000
20011.000000,40954.000000,44969.000000,23802.000000
19992.000000,40968.000000,44961.000000,23776.000000
19979.000000,40951.000000,44950.000000,23759.000000
19952.000000,40955.000000,44936.000000,23786.000000
19962.000000,40926.000000,44934.000000,23779.000000
19965.000000,40912.000000,44915.000000,23763.000000
19945.000000,40929.000000,44918.000000,23771.000000
19932.000000,40925.000000,44932.000000,23774.000000
19959.000000,40873.000000,44863.000000,23767.000000
19894.000000,40874.000000,44879.000000,23768.000000
19943.000000,40885.000000,44884.000000,23763.000000
19942.000000,40870.000000,44898.000000,23753.000000
19929.000000,40855.000000,44903.000000,23766.000000
19910.000000,40850.000000,44870.000000,23798.000000
19892.000000,40858.000000,44885.000000,23763.000000
19883.000000,40843.000000,44888.000000,23772.000000
19898.000000,40830.000000,44875.000000,23772.000000
19856.000000,40795.000000,44879.000000,23762.000000
19876.000000,40787.000000,44847.000000,23767.000000
19864.000000,40777.000000,44847.000000,23753.000000
19884.000000,40788.000000,44821.000000,23750.000000
19897.000000,40813.000000,44831.000000,23744.000000
19843.000000,40744.000000,44851.000000,23755.000000
19842.000000,40783.000000,44795.000000,23734.000000
19826.000000,40761.000000,44814.000000,23740.000000
19810.000000,40762.000000,44839.000000,23771.000000
19841.000000,40756.000000,44802.000000,23715.000000
19810.000000,40719.000000,44802.000000,23734.000000
19798.000000,40698.000000,44810.000000,23735.000000
19787.000000,40728.000000,44793.000000,23717.000000
19791.000000,40691.000000,44806.000000,23728.000000
19788.000000,40682.000000,44807.000000,23741.000000
19734.000000,40685.000000,44787.000000,23699.000000
19763.000000,40639.000000,44767.000000,23713.000000
19754.000000,40666.000000,44753.000000,23700.000000
19727.000000,40603.000000,44782.000000,23700.000000
19707.000000,40609.000000,44744.000000,23700.000000
19690.000000,40629.000000,44739.000000,23718.000000
19684.000000,40582.000000,44739.000000,23714.000000
19690.000000,40590.000000,44752.000000,23663.000000
19680.000000,40579.000000,44752.000000,23678.000000
19662.000000,40538.000000,44710.000000,23696.000000
19673.000000,40553.000000,44729.000000,23665.000000
19652.000000,40550.000000,44717.000000,23650.000000
19665.000000,40505.000000,44701.000000,23661.000000
19587.000000,40518.000000,44693.000000,23663.000000
19628.000000,40514.000000,44688.000000,23659.000000
19595.000000,40500.000000,44676.000000,23659.000000
19599.000000,40457.000000,44672.000000,23655.000000
19579.000000,40463.000000,44637.000000,23630.000000
19570.000000,40460.000000,44675.000000,23638.000000
19559.000000,40433.000000,44644.000000,23623.000000
19545.000000,40474.000000,44623.000000,23653.000000
19524.000000,40429.000000,44634.000000,23673.000000
19537.000000,40430.000000,44641.000000,23643.000000
19532.000000,40408.000000,44632.000000,23621.000000
19526.000000,40383.000000,44602.000000,23594.000000
19511.000000,40416.000000,44626.000000,23617.000000
19519.000000,40339.000000,44617.000000,23612.000000
19475.000000,40370.000000,44642.000000,23573.000000
19486.000000,40368.000000,44610.000000,23621.000000
19492.000000,40360.000000,44588.000000,23610.000000
19433.000000,40352.000000,44598.000000,23587.000000
19463.000000,40325.000000,44583.000000,23616.000000
19462.000000,40325.000000,44568.000000,23596.000000
19471.000000,40305.000000,44557.000000,23613.000000
19448.000000,40270.000000,44587.000000,23567.000000
19407.000000,40255.000000,44541.000000,23575.000000
19412.000000,40263.000000,44536.000000,23602.000000
19389.000000,40257.000000,44538.000000,23582.000000
19372.000000,40211.000000,44522.000000,23566.000000
19358.000000,40178.000000,44505.000000,23553.000000
19354.000000,40180.000000,44512.000000,23551.000000
19335.000000,40148.000000,44486.000000,23560.000000
19306.000000,40184.000000,44484.000000,23553.000000
19275.000000,40111.000000,44502.000000,23534.000000
19302.000000,40127.000000,44453.000000,23551.000000
19288.000000,40130.000000,44453.000000,23536.000000
19293.000000,40125.000000,44480.000000,23537.000000
19288.000000,40135.000000,44463.000000,23538.000000
19278.000000,40127.000000,44486.000000,23569.000000
19326.000000,40128.000000,44473.000000,23567.000000
19300.000000,40123.000000,44451.000000,23555.000000
19323.000000,40151.000000,44487.000000,23572.000000
19338.000000,40181.000000,44489.000000,23570.000000
19332.000000,40166.000000,44521.000000,23545.000000
19381.000000,40208.000000,44514.000000,23578.000000
19383.000000,40238.000000,44541.000000,23558.000000
19388.000000,40243.000000,44540.000000,23571.000000
19405.000000,40243.000000,44537.000000,23591.000000
19402.000000,40283.000000,44543.000000,23593.000000
19451.000000,40293.000000,44564.000000,23591.000000
19466.000000,40307.000000,44587.000000,23573.000000
19470.000000,40323.000000,44622.000000,23600.000000
19528.000000,40375.000000,44599.000000,23612.000000
19539.000000,40415.000000,44630.000000,23609.000000
19592.000000,40433.000000,44625.000000,23624.000000
19610.000000,40471.000000,44678.000000,23638.000000
19650.000000,40526.000000,44709.000000,23622.000000
19725.000000,40549.000000,44721.000000,23659.000000
19700.000000,40601.000000,44763.000000,23664.000000
19778.000000,40642.000000,44795.000000,23696.000000
19809.000000,40728.000000,44818.000000,23712.000000
19850.000000,40775.000000,44866.000000,23709.000000
19889.000000,40859.000000,44861.000000,23736.000000
19915.000000,40885.000000,44907.000000,23747.000000
19978.000000,40913.000000,44928.000000,23753.000000
20001.000000,40961.000000,44953.000000,23751.000000
20023.000000,40972.000000,45005.000000,23808.000000
20092.000000,41021.000000,44986.000000,23772.000000
20070.000000,41087.000000,45033.000000,23799.000000
20094.000000,41100.000000,45058.000000,23808.000000
20159.000000,41130.000000,45068.000000,23811.000000
20107.000000,41163.000000,45050.000000,23836.000000
20146.000000,41136.000000,45092.000000,23832.000000
20129.000000,41170.000000,45055.000000,23815.000000
20135.000000,41163.000000,45093.000000,23825.000000
20188.000000,41170.000000,45100.000000,23820.000000
20135.000000,41184.000000,45086.000000,23823.000000
20117.000000,41142.000000,45081.000000,23826.000000
20131.000000,41170.000000,45073.000000,23832.000000
20111.000000,41146.000000,45054.000000,23799.000000
20152.000000,41151.000000,45062.000000,23829.000000
20158.000000,41160.000000,45079.000000,23826.000000
20108.000000,41132.000000,45065.000000,23800.000000
20094.000000,41106.000000,45031.000000,23817.000000
20076.000000,41106.000000,45081.000000,23785.000000
20105.000000,41097.000000,45034.000000,23803.000000
20107.000000,41116.000000,45064.000000,23818.000000
20053.000000,41095.000000,45037.000000,23802.000000
20092.000000,41058.000000,45033.000000,23812.000000
20052.000000,41070.000000,45025.000000,23817.000000
20075.000000,41066.000000,45035.000000,23823.000000
20071.000000,41069.000000,45011.000000,23802.000000
20033.000000,41074.000000,45014.000000,23785.000000
20075.000000,41048.000000,45014.000000,23797.000000
20069.000000,41023.000000,45019.000000,23787.000000
20031.000000,41016.000000,45023.000000,23788.000000
20055.000000,41048.000000,44975.000000,23791.000000
20037.000000,41001.000000,44980.000000,23785.000000
20042.000000,40991.000000,44974.000000,23781.000000
20001.000000,41016.000000,44957.000000,23784.000000
20003.000000,40991.000000,44974.000000,23787.000000
19963.000000,40961.000000,44974.000000,23797.000000
19965.000000,40980.000000,44957.000000,23757.000000
19996.000000,40966.000000,44980.000000,23759.000000
19935.000000,40954.000000,44957.000000,23771.000000
19967.000000,40949.000000,44951.000000,23766.000000
19977.000000,40952.000000,44920.000000,23767.000000
19957.000000,40950.000000,44916.000000,23774.000000
19938.000000,40919.000000,44940.000000,23791.000000
19938.000000,40917.000000,44908.000000,23762.000000
19898.000000,40908.000000,44961.000000,23777.000000
19946.000000,40871.000000,44922.000000,23774.000000
19913.000000,40893.000000,44905.000000,23754.000000
19916.000000,40895.000000,44894.000000,23753.000000
19903.000000,40903.000000,44916.000000,23755.000000
19910.000000,40836.000000,44907.000000,23779.000000
19937.000000,40865.000000,44890.000000,23747.000000
19890.000000,40849.000000,44909.000000,23748.000000
19900.000000,40870.000000,44861.000000,23761.000000
19875.000000,40871.000000,44880.000000,23756.000000
19847.000000,40821.000000,44875.000000,23768.000000
19871.000000,40827.000000,44869.000000,23735.000000
19876.000000,40805.000000,44882.000000,23757.000000
19851.000000,40814.000000,44860.000000,23730.000000
19827.000000,40816.000000,44844.000000,23734.000000
19835.000000,40783.000000,44861.000000,23739.000000
19829.000000,40784.000000,44856.000000,23721.000000
19806.000000,40742.000000,44866.000000,23726.000000
19790.000000,40713.000000,44838.000000,23727.000000
19760.000000,40755.000000,44833.000000,23729.000000
19767.000000,40687.000000,44790.000000,23707.000000
19736.000000,40712.000000,44788.000000,23734.000000
19728.000000,40643.000000,44803.000000,23713.000000
19738.000000,40650.000000,44767.000000,23700.000000
19701.000000,40602.000000,44789.000000,23680.000000
19645.000000,40603.000000,44767.000000,23691.000000
19632.000000,40608.000000,44751.000000,23672.000000
19604.000000,40580.000000,44723.000000,23657.000000
19632.000000,40539.000000,44717.000000,23651.000000
19567.000000,40515.000000,44729.000000,23670.000000
19598.000000,40481.000000,44687.000000,23641.000000
19532.000000,40490.000000,44675.000000,23627.000000
19537.000000,40462.000000,44681.000000,23667.000000
19522.000000,40419.000000,44648.000000,23619.000000
19517.000000,40372.000000,44659.000000,23600.000000
19476.000000,40363.000000,44643.000000,23626.000000
19451.000000,40362.000000,44592.000000,23619.000000
19445.000000,40367.000000,44605.000000,23631.000000
19429.000000,40345.000000,44560.000000,23609.000000
19402.000000,40248.000000,44571.000000,23614.000000
19414.000000,40304.000000,44565.000000,23610.000000
19385.000000,40298.000000,44544.000000,23598.000000
19398.000000,40250.000000,44557.000000,23604.000000
19384.000000,40267.000000,44540.000000,23594.000000
19367.000000,40229.000000,44544.000000,23605.000000
19367.000000,40203.000000,44512.000000,23587.000000
19325.000000,40214.000000,44532.000000,23584.000000
19321.000000,40190.000000,44536.000000,23572.000000
19303.000000,40196.000000,44491.000000,23586.000000
19316.000000,40167.000000,44490.000000,23583.000000
19301.000000,40178.000000,44489.000000,23550.000000
19277.000000,40112.000000,44470.000000,23568.000000
19283.000000,40135.000000,44448.000000,23564.000000
19240.000000,40099.000000,44446.000000,23537.000000
19270.000000,40056.000000,44419.000000,23584.000000
19217.000000,40084.000000,44434.000000,23564.000000
19241.000000,40045.000000,44408.000000,23566.000000
19207.000000,40032.000000,44412.000000,23549.000000
19179.000000,40009.000000,44389.000000,23524.000000
19158.000000,39986.000000,44406.000000,23515.000000
19107.000000,39991.000000,44392.000000,23556.000000
19140.000000,39951.000000,44366.000000,23507.000000
19154.000000,39988.000000,44366.000000,23524.000000
19107.000000,39945.000000,44381.000000,23508.000000
19134.000000,39986.000000,44365.000000,23512.000000
19092.000000,39948.000000,44364.000000,23526.000000
19104.000000,39918.000000,44346.000000,23494.000000
19086.000000,39941.000000,44386.000000,23521.000000
19126.000000,39952.000000,44367.000000,23515.000000
19142.000000,40000.000000,44359.000000,23533.000000
19133.000000,39978.000000,44401.000000,23507.000000
19158.000000,39990.000000,44388.000000,23525.000000
19151.000000,40006.000000,44394.000000,23520.000000
19167.000000,39976.000000,44379.000000,23530.000000
19176.000000,40005.000000,44370.000000,23530.000000
19176.000000,40004.000000,44418.000000,23541.000000
19231.000000,40014.000000,44421.000000,23545.000000
19203.000000,40071.000000,44438.000000,23530.000000
19268.000000,40086.000000,44411.000000,23546.000000
19245.000000,40090.000000,44435.000000,23567.000000
19237.000000,40084.000000,44444.000000,23555.000000
19276.000000,40131.000000,44434.000000,23549.000000
19315.000000,40177.000000,44502.000000,23584.000000
19364.000000,40187.000000,44488.000000,23566.000000
19344.000000,40213.000000,44519.000000,23598.000000
19412.000000,40241.000000,44528.000000,23592.000000
19434.000000,40309.000000,44558.000000,23608.000000
19487.000000,40331.000000,44607.000000,23606.000000
19493.000000,40367.000000,44590.000000,23636.000000
19537.000000,40406.000000,44642.000000,23656.000000
19592.000000,40448.000000,44653.000000,23655.000000
19627.000000,40475.000000,44676.000000,23680.000000
19683.000000,40536.000000,44693.000000,23697.000000
19668.000000,40614.000000,44743.000000,23705.000000
19729.000000,40611.000000,44749.000000,23735.000000
19750.000000,40621.000000,44733.000000,23695.000000
19753.000000,40683.000000,44820.000000,23747.000000
19770.000000,40706.000000,44788.000000,23767.000000
19791.000000,40734.000000,44835.000000,23750.000000
19845.000000,40747.000000,44836.000000,23778.000000
19826.000000,40760.000000,44864.000000,23770.000000
19827.000000,40785.000000,44823.000000,23772.000000
19840.000000,40795.000000,44854.000000,23775.000000
19818.000000,40764.000000,44832.000000,23799.000000
19806.000000,40777.000000,44848.000000,23749.000000
19802.000000,40741.000000,44843.000000,23771.000000
19835.000000,40783.000000,44821.000000,23780.000000
19808.000000,40754.000000,44842.000000,23770.000000
19840.000000,40734.000000,44825.000000,23746.000000
19778.000000,40762.000000,44863.000000,23772.000000
19816.000000,40712.000000,44808.000000,23788.000000
19781.000000,40730.000000,44838.000000,23768.000000
19775.000000,40682.000000,44826.000000,23762.000000
19776.000000,40685.000000,44817.000000,23774.000000
19754.000000,40679.000000,44815.000000,23741.000000
19746.000000,40671.000000,44793.000000,23756.000000
19734.000000,40672.000000,44788.000000,23755.000000
19748.000000,40630.000000,44760.000000,23777.000000
19761.000000,40643.000000,44791.000000,23745.000000
19705.000000,40614.000000,44770.000000,23730.000000
19718.000000,40578.000000,44752.000000,23732.000000
19710.000000,40593.000000,44785.000000,23727.000000
19640.000000,40571.000000,44706.000000,23750.000000
19676.000000,40546.000000,44739.000000,23731.000000
19665.000000,40511.000000,44742.000000,23728.000000
19672.000000,40529.000000,44708.000000,23717.000000
19646.000000,40539.000000,44717.000000,23716.000000
19639.000000,40481.000000,44694.000000,23737.000000
19624.000000,40511.000000,44714.000000,23692.000000
19645.000000,40481.000000,44678.000000,23709.000000
19588.000000,40466.000000,44685.000000,23716.000000
19578.000000,40446.000000,44686.000000,23704.000000
19599.000000,40436.000000,44650.000000,23705.000000
19522.000000,40440.000000,44644.000000,23710.000000
19552.000000,40401.000000,44643.000000,23697.000000
19545.000000,40420.000000,44637.000000,23683.000000
19497.000000,40401.000000,44642.000000,23680.000000
19506.000000,40357.000000,44595.000000,23698.000000
19491.000000,40382.000000,44624.000000,23678.000000
19499.000000,40336.000000,44591.000000,23688.000000
19494.000000,40346.000000,44589.000000,23662.000000
19467.000000,40323.000000,44616.000000,23667.000000
19485.000000,40280.000000,44583.000000,23661.000000
19421.000000,40295.000000,44537.000000,23675.000000
19425.000000,40270.000000,44573.000000,23667.000000
19441.000000,40228.000000,44551.000000,23642.000000
19394.000000,40225.000000,44561.000000,23641.000000
19363.000000,40188.000000,44540.000000,23630.000000
19360.000000,40188.000000,44548.000000,23662.000000
19341.000000,40189.000000,44510.000000,23627.000000
19330.000000,40137.000000,44504.000000,23618.000000
19301.000000,40110.000000,44493.000000,23608.000000
19303.000000,40091.000000,44451.000000,23589.000000
19260.000000,40110.000000,44456.000000,23580.000000
19233.000000,40069.000000,44436.000000,23616.000000
19226.000000,40055.000000,44424.000000,23572.000000
19202.000000,40023.000000,44433.000000,23570.000000
19223.000000,39956.000000,44413.000000,23602.000000
19163.000000,39931.000000,44403.000000,23557.000000
19151.000000,39907.000000,44355.000000,23567.000000
19148.000000,39917.000000,44373.000000,23565.000000
19084.000000,39887.000000,44348.000000,23558.000000
19130.000000,39888.000000,44339.000000,23554.000000
19092.000000,39837.000000,44326.000000,23555.000000
19116.000000,39840.000000,44289.000000,23566.000000
19038.000000,39841.000000,44292.000000,23556.000000
19055.000000,39776.000000,44268.000000,23550.000000
19039.000000,39805.000000,44253.000000,23538.000000
19014.000000,39743.000000,44298.000000,23532.000000
19000.000000,39745.000000,44249.000000,23554.000000
18994.000000,39721.000000,44258.000000,23541.000000
18994.000000,39685.000000,44253.000000,23537.000000
18943.000000,39696.000000,44236.000000,23542.000000
18981.000000,39643.000000,44173.000000,23506.000000
18933.000000,39661.000000,44187.000000,23528.000000
18904.000000,39612.000000,44192.000000,23542.000000
18950.000000,39629.000000,44176.000000,23533.000000
18903.000000,39642.000000,44190.000000,23526.000000
18901.000000,39578.000000,44168.000000,23550.000000
18902.000000,39587.000000,44142.000000,23489.000000
18884.000000,39546.000000,44163.000000,23517.000000
18922.000000,39554.000000,44154.000000,23500.000000
18865.000000,39569.000000,44160.000000,23522.000000
18879.000000,39507.000000,44143.000000,23501.000000
18836.000000,39512.000000,44134.000000,23499.000000
18848.000000,39482.000000,44132.000000,23502.000000
18832.000000,39502.000000,44121.000000,23479.000000
18807.000000,39488.000000,44102.000000,23496.000000
18800.000000,39453.000000,44087.000000,23491.000000
18753.000000,39443.000000,44078.000000,23469.000000
18741.000000,39386.000000,44047.000000,23456.000000
18731.000000,39379.000000,44041.000000,23449.000000
18697.000000,39370.000000,44057.000000,23466.000000
18721.000000,39360.000000,44064.000000,23447.000000
18683.000000,39337.000000,44014.000000,23454.000000
18684.000000,39295.000000,44005.000000,23445.000000
18630.000000,39321.000000,43995.000000,23434.000000
18617.000000,39259.000000,43994.000000,23412.000000
18593.000000,39262.000000,43971.000000,23419.000000
18564.000000,39210.000000,43974.000000,23407.000000
18561.000000,39220.000000,43950.000000,23403.000000
18542.000000,39193.000000,43946.000000,23402.000000
18532.000000,39180.000000,43958.000000,23399.000000
18527.000000,39186.000000,43952.000000,23393.000000
18575.000000,39131.000000,43919.000000,23421.000000
18575.000000,39180.000000,43924.000000,23381.000000
18538.000000,39170.000000,43917.000000,23398.000000
18590.000000,39197.000000,43934.000000,23402.000000
18559.000000,39185.000000,43922.000000,23415.000000
18578.000000,39184.000000,43944.000000,23411.000000
18593.000000,39211.000000,43940.000000,23408.000000
18586.000000,39178.000000,43945.000000,23411.000000
18617.000000,39203.000000,43914.000000,23442.000000
18618.000000,39206.000000,43948.000000,23424.000000
18624.000000,39230.000000,43929.000000,23428.000000
18650.000000,39227.000000,43971.000000,23454.000000
18671.000000,39224.000000,43986.000000,23440.000000
18687.000000,39255.000000,43973.000000,23433.000000
18664.000000,39285.000000,43974.000000,23459.000000
18713.000000,39293.000000,44010.000000,23448.000000
18743.000000,39324.000000,44012.000000,23465.000000
18743.000000,39304.000000,44038.000000,23480.000000
18792.000000,39372.000000,44030.000000,23492.000000
18803.000000,39399.000000,44071.000000,23502.000000
18870.000000,39409.000000,44037.000000,23488.000000
18885.000000,39455.000000,44092.000000,23505.000000
18897.000000,39472.000000,44133.000000,23526.000000
18940.000000,39519.000000,44115.000000,23535.000000
18989.000000,39543.000000,44171.000000,23544.000000
19044.000000,39613.000000,44227.000000,23553.000000
19085.000000,39683.000000,44235.000000,23574.000000
19148.000000,39739.000000,44281.000000,23607.000000
19213.000000,39842.000000,44311.000000,23619.000000
19279.000000,39906.000000,44373.000000,23641.000000
19370.000000,39987.000000,44375.000000,23655.000000
19399.000000,40043.000000,44461.000000,23705.000000
19479.000000,40078.000000,44447.000000,23710.000000
19488.000000,40149.000000,44506.000000,23717.000000
19537.000000,40167.000000,44529.000000,23770.000000
19579.000000,40219.000000,44530.000000,23735.000000
19559.000000,40242.000000,44569.000000,23743.000000
19626.000000,40217.000000,44564.000000,23782.000000
19584.000000,40282.000000,44567.000000,23766.000000
19604.000000,40285.000000,44580.000000,23775.000000
19622.000000,40284.000000,44577.000000,23788.000000
19633.000000,40278.000000,44591.000000,23777.000000
19614.000000,40269.000000,44577.000000,23775.000000
19598.000000,40307.000000,44581.000000,23760.000000
19568.000000,40265.000000,44561.000000,23784.000000
19567.000000,40252.000000,44548.000000,23759.000000
19579.000000,40260.000000,44579.000000,23773.000000
19594.000000,40220.000000,44555.000000,23744.000000
19543.000000,40190.000000,44549.000000,23759.000000
19553.000000,40179.000000,44502.000000,23764.000000
19528.000000,40175.000000,44542.000000,23729.000000
19524.000000,40178.000000,44518.000000,23762.000000
19523.000000,40157.000000,44502.000000,23738.000000
19489.000000,40129.000000,44488.000000,23772.000000
19500.000000,40135.000000,44484.000000,23702.000000
19445.000000,40114.000000,44503.000000,23735.000000
19468.000000,40112.000000,44445.000000,23742.000000
19491.000000,40109.000000,44449.000000,23711.000000
19424.000000,40051.000000,44447.000000,23743.000000
19427.000000,40066.000000,44441.000000,23719.000000
19401.000000,40040.000000,44447.000000,23724.000000
19402.000000,40021.000000,44444.000000,23712.000000
19389.000000,40028.000000,44443.000000,23725.000000
19403.000000,39990.000000,44441.000000,23708.000000
19366.000000,39988.000000,44413.000000,23695.000000
19330.000000,39959.000000,44439.000000,23671.000000
19361.000000,39942.000000,44385.000000,23705.000000
19335.000000,39957.000000,44400.000000,23696.000000
19345.000000,39927.000000,44408.000000,23712.000000
19307.000000,39925.000000,44371.000000,23708.000000
19278.000000,39892.000000,44395.000000,23678.000000
19342.000000,39894.000000,44369.000000,23737.000000
19281.000000,39903.000000,44324.000000,23687.000000
19268.000000,39881.000000,44351.000000,23680.000000
19260.000000,39843.000000,44339.000000,23661.000000
19236.000000,39821.000000,44337.000000,23679.000000
19236.000000,39840.000000,44334.000000,23664.000000
19227.000000,39812.000000,44329.000000,23678.000000
19226.000000,39775.000000,44313.000000,23659.000000
19180.000000,39771.000000,44292.000000,23665.000000
19164.000000,39754.000000,44297.000000,23649.000000
19224.000000,39747.000000,44275.000000,23655.000000
19154.000000,39768.000000,44287.000000,23660.000000
19132.000000,39699.000000,44286.000000,23657.000000
19118.000000,39712.000000,44231.000000,23654.000000
19160.000000,39706.000000,44253.000000,23645.000000
19128.000000,39703.000000,44234.000000,23629.000000
19087.000000,39629.000000,44254.000000,23637.000000
19093.000000,39616.000000,44225.000000,23650.000000
19044.000000,39661.000000,44215.000000,23648.000000
19089.000000,39597.000000,44172.000000,23633.000000
19060.000000,39610.000000,44184.000000,23624.000000
19036.000000,39532.000000,44219.000000,23630.000000
19005.000000,39582.000000,44163.000000,23614.000000
18989.000000,39521.000000,44173.000000,23626.000000
19013.000000,39506.000000,44164.000000,23599.000000
18980.000000,39529.000000,44148.000000,23585.000000
18958.000000,39493.000000,44128.000000,23615.000000
18959.000000,39454.000000,44108.000000,23608.000000
18919.000000,39411.000000,44105.000000,23587.000000
18936.000000,39440.000000,44098.000000,23580.000000
18863.000000,39402.000000,44101.000000,23587.000000
18900.000000,39395.000000,44055.000000,23583.000000
18825.000000,39389.000000,44057.000000,23578.000000
18829.000000,39346.000000,44042.000000,23567.000000
18833.000000,39355.000000,44047.000000,23561.000000
18811.000000,39302.000000,44029.000000,23552.000000
18807.000000,39264.000000,44030.000000,23565.000000
18799.000000,39299.000000,43991.000000,23552.000000
18764.000000,39273.000000,44014.000000,23562.000000
18776.000000,39265.000000,44004.000000,23565.000000
18751.000000,39233.000000,43995.000000,23558.000000
18726.000000,39253.000000,43984.000000,23542.000000
18728.000000,39203.000000,44008.000000,23552.000000
18764.000000,39231.000000,43944.000000,23568.000000
18715.000000,39201.000000,43970.000000,23561.000000
18727.000000,39200.000000,43945.000000,23542.000000
18691.000000,39245.000000,43956.000000,23533.000000
18694.000000,39154.000000,43946.000000,23559.000000
18703.000000,39163.000000,43938.000000,23526.000000
18655.000000,39110.000000,43936.000000,23531.000000
18726.000000,39158.000000,43920.000000,23519.000000
18638.000000,39117.000000,43948.000000,23515.000000
18685.000000,39115.000000,43906.000000,23553.000000
18636.000000,39107.000000,43911.000000,23528.000000
18625.000000,39081.000000,43916.000000,23536.000000
18631.000000,39057.000000,43904.000000,23520.000000
18616.000000,39089.000000,43909.000000,23501.000000
18621.000000,39048.000000,43875.000000,23494.000000
18600.000000,39036.000000,43880.000000,23507.000000
18586.000000,39017.000000,43839.000000,23499.000000
18563.000000,39018.000000,43855.000000,23455.000000
18527.000000,39006.000000,43856.000000,23474.000000
18554.000000,38996.000000,43812.000000,23480.000000
18519.000000,38987.000000,43830.000000,23485.000000
18523.000000,38966.000000,43823.000000,23500.000000
18486.000000,38991.000000,43814.000000,23480.000000
18475.000000,38939.000000,43827.000000,23460.000000
18521.000000,38943.000000,43819.000000,23453.000000
18472.000000,38969.000000,43811.000000,23465.000000
18517.000000,38955.000000,43811.000000,23498.000000
18509.000000,38974.000000,43821.000000,23458.000000
18487.000000,38980.000000,43829.000000,23460.000000
18556.000000,38983.000000,43854.000000,23486.000000
18536.000000,38966.000000,43857.000000,23469.000000
18543.000000,39001.000000,43835.000000,23489.000000
18547.000000,39054.000000,43852.000000,23482.000000
18588.000000,39037.000000,43861.000000,23495.000000
18597.000000,39053.000000,43875.000000,23480.000000
18650.000000,39061.000000,43908.000000,23513.000000
18661.000000,39096.000000,43907.000000,23484.000000
18668.000000,39121.000000,43940.000000,23532.000000
18703.000000,39136.000000,43927.000000,23505.000000
18681.000000,39191.000000,43943.000000,23530.000000
18721.000000,39160.000000,43948.000000,23543.000000
18781.000000,39196.000000,43956.000000,23543.000000
18758.000000,39243.000000,43964.000000,23535.000000
18806.000000,39247.000000,43979.000000,23542.000000
18833.000000,39310.000000,44014.000000,23536.000000
18820.000000,39326.000000,44039.000000,23593.000000
18927.000000,39352.000000,44049.000000,23565.000000
18872.000000,39397.000000,44083.000000,23569.000000
18952.000000,39392.000000,44086.000000,23581.000000
18963.000000,39486.000000,44087.000000,23589.000000
18996.000000,39489.000000,44133.000000,23612.000000
19052.000000,39544.000000,44193.000000,23607.000000
19090.000000,39613.000000,44226.000000,23629.000000
19160.000000,39652.000000,44235.000000,23646.000000
19229.000000,39780.000000,44305.000000,23695.000000
19287.000000,39822.000000,44344.000000,23685.000000
19367.000000,39919.000000,44359.000000,23715.000000
19433.000000,39967.000000,44410.000000,23704.000000
19511.000000,40051.000000,44455.000000,23780.000000
19545.000000,40123.000000,44494.000000,23756.000000
19588.000000,40127.000000,44543.000000,23804.000000
19645.000000,40216.000000,44546.000000,23809.000000
19656.000000,40224.000000,44581.000000,23818.000000
19680.000000,40237.000000,44616.000000,23819.000000
19710.000000,40303.000000,44591.000000,23816.000000
19673.000000,40323.000000,44605.000000,23826.000000
19711.000000,40308.000000,44616.000000,23813.000000
19688.000000,40283.000000,44600.000000,23840.000000
19709.000000,40288.000000,44600.000000,23838.000000
19689.000000,40297.000000,44583.000000,23843.000000
19690.000000,40298.000000,44615.000000,23824.000000
19693.000000,40285.000000,44587.000000,23828.000000
19703.000000,40234.000000,44571.000000,23854.000000
19680.000000,40255.000000,44583.000000,23835.000000
19635.000000,40247.000000,44574.000000,23820.000000
19658.000000,40224.000000,44568.000000,23840.000000
19634.000000,40238.000000,44573.000000,23833.000000
19640.000000,40236.000000,44590.000000,23833.000000
19606.000000,40220.000000,44544.000000,23844.000000
19599.000000,40205.000000,44551.000000,23815.000000
19612.000000,40181.000000,44541.000000,23797.000000
19557.000000,40179.000000,44572.000000,23781.000000
19593.000000,40164.000000,44534.000000,23800.000000
19620.000000,40142.000000,44528.000000,23786.000000
19525.000000,40148.000000,44516.000000,23773.000000
19570.000000,40160.000000,44498.000000,23780.000000
19536.000000,40088.000000,44510.000000,23765.000000
19519.000000,40113.000000,44494.000000,23779.000000
19506.000000,40106.000000,44488.000000,23782.000000
19512.000000,40066.000000,44520.000000,23760.000000
19498.000000,40038.000000,44476.000000,23780.000000
19470.000000,40065.000000,44485.000000,23772.000000
19492.000000,40050.000000,44473.000000,23767.000000
19485.000000,40031.000000,44449.000000,23761.000000
19402.000000,40006.000000,44455.000000,23760.000000
19430.000000,40033.000000,44470.000000,23734.000000
19415.000000,39986.000000,44470.000000,23727.000000
19404.000000,39964.000000,44425.000000,23748.000000
19415.000000,39975.000000,44416.000000,23704.000000
19372.000000,39959.000000,44400.000000,23730.000000
19375.000000,39943.000000,44415.000000,23727.000000
19316.000000,39950.000000,44436.000000,23704.000000
19358.000000,39910.000000,44423.000000,23712.000000
19332.000000,39927.000000,44359.000000,23699.000000
19302.000000,39897.000000,44375.000000,23707.000000
19302.000000,39894.000000,44380.000000,23691.000000
19291.000000,39873.000000,44379.000000,23685.000000
19299.000000,39842.000000,44354.000000,23702.000000
19287.000000,39826.000000,44344.000000,23674.000000
19251.000000,39797.000000,44321.000000,23670.000000
19247.000000,39829.000000,44334.000000,23666.000000
19178.000000,39787.000000,44332.000000,23652.000000
19230.000000,39782.000000,44290.000000,23664.000000
19176.000000,39771.000000,44318.000000,23656.000000
19156.000000,39777.000000,44309.000000,23658.000000
19183.000000,39719.000000,44285.000000,23672.000000
19136.000000,39699.000000,44314.000000,23644.000000
19148.000000,39670.000000,44258.000000,23672.000000
19086.000000,39677.000000,44242.000000,23631.000000
19060.000000,39655.000000,44241.000000,23641.000000
19067.000000,39639.000000,44248.000000,23643.000000
19046.000000,39617.000000,44208.000000,23644.000000
19051.000000,39579.000000,44200.000000,23618.000000
19039.000000,39575.000000,44199.000000,23608.000000
19013.000000,39559.000000,44206.000000,23619.000000
19023.000000,39518.000000,44165.000000,23618.000000
18992.000000,39509.000000,44170.000000,23588.000000
18967.000000,39471.000000,44162.000000,23581.000000
18968.000000,39495.000000,44153.000000,23583.000000
18911.000000,39461.000000,44099.000000,23578.000000
18939.000000,39479.000000,44103.000000,23580.000000
18896.000000,39439.000000,44134.000000,23559.000000
18889.000000,39385.000000,44090.000000,23573.000000
18869.000000,39405.000000,44092.000000,23554.000000
18883.000000,39396.000000,44078.000000,23573.000000
18841.000000,39372.000000,44063.000000,23555.000000
18816.000000,39309.000000,44098.000000,23573.000000
18811.000000,39309.000000,44051.000000,23560.000000
18818.000000,39291.000000,44079.000000,23534.000000
18801.000000,39277.000000,44058.000000,23558.000000
18795.000000,39325.000000,44026.000000,23567.000000
18787.000000,39280.000000,44014.000000,23569.000000
18805.000000,39274.000000,44017.000000,23565.000000
18769.000000,39261.000000,44023.000000,23556.000000
18794.000000,39240.000000,44000.000000,23585.000000
18775.000000,39236.000000,43997.000000,23561.000000
18771.000000,39242.000000,44005.000000,23562.000000
18758.000000,39208.000000,44005.000000,23561.000000
18735.000000,39220.000000,44003.000000,23540.000000
18776.000000,39174.000000,43976.000000,23554.000000
18742.000000,39189.000000,43986.000000,23530.000000
18721.000000,39164.000000,43972.000000,23546.000000
18738.000000,39172.000000,43947.000000,23530.000000
18701.000000,39126.000000,43937.000000,23546.000000
18703.000000,39112.000000,43965.000000,23529.000000
18675.000000,39088.000000,43946.000000,23539.000000
18683.000000,39107.000000,43919.000000,23538.000000
18652.000000,39068.000000,43897.000000,23507.000000
18629.000000,39044.000000,43898.000000,23518.000000
18609.000000,39047.000000,43902.000000,23516.000000
18602.000000,38999.000000,43888.000000,23511.000000
18596.000000,39014.000000,43882.000000,23517.000000
18546.000000,39005.000000,43858.000000,23506.000000
18579.000000,38974.000000,43854.000000,23511.000000
18573.000000,38992.000000,43839.000000,23495.000000
18586.000000,38965.000000,43846.000000,23500.000000
18593.000000,38961.000000,43835.000000,23488.000000
18581.000000,38962.000000,43866.000000,23504.000000
18618.000000,38998.000000,43867.000000,23515.000000
18584.000000,39025.000000,43853.000000,23516.000000
18639.000000,39010.000000,43887.000000,23526.000000
18620.000000,39031.000000,43898.000000,23514.000000
18656.000000,39018.000000,43878.000000,23523.000000
18694.000000,39065.000000,43905.000000,23534.000000
18647.000000,39080.000000,43913.000000,23528.000000
18687.000000,39061.000000,43921.000000,23535.000000
18707.000000,39087.000000,43894.000000,23542.000000
18678.000000,39069.000000,43945.000000,23534.000000
18715.000000,39123.000000,43933.000000,23536.000000
18738.000000,39139.000000,43950.000000,23518.000000
18736.000000,39201.000000,43958.000000,23546.000000
18769.000000,39210.000000,43956.000000,23566.000000
18785.000000,39185.000000,43976.000000,23580.000000
18802.000000,39247.000000,44036.000000,23552.000000
18821.000000,39255.000000,44034.000000,23593.000000
18870.000000,39297.000000,44022.000000,23600.000000
18899.000000,39334.000000,44081.000000,23586.000000
18920.000000,39327.000000,44082.000000,23603.000000
18979.000000,39426.000000,44086.000000,23615.000000
19027.000000,39441.000000,44110.000000,23633.000000
19036.000000,39496.000000,44118.000000,23628.000000
19081.000000,39532.000000,44198.000000,23643.000000
19171.000000,39572.000000,44181.000000,23666.000000
19195.000000,39637.000000,44247.000000,23656.000000
19245.000000,39696.000000,44284.000000,23685.000000
19289.000000,39770.000000,44290.000000,23676.000000
19342.000000,39827.000000,44371.000000,23733.000000
19433.000000,39953.000000,44392.000000,23751.000000
19478.000000,39970.000000,44428.000000,23756.000000
19522.000000,40025.000000,44456.000000,23793.000000
19563.000000,40083.000000,44495.000000,23785.000000
19595.000000,40132.000000,44522.000000,23794.000000
19628.000000,40156.000000,44512.000000,23832.000000
19654.000000,40176.000000,44539.000000,23830.000000
19649.000000,40222.000000,44535.000000,23849.000000
19623.000000,40189.000000,44540.000000,23839.000000
19643.000000,40194.000000,44565.000000,23831.000000
19639.000000,40193.000000,44537.000000,23831.000000
19644.000000,40166.000000,44537.000000,23847.000000
19613.000000,40173.000000,44528.000000,23816.000000
19598.000000,40138.000000,44529.000000,23816.000000
19617.000000,40147.000000,44535.000000,23830.000000
19569.000000,40126.000000,44527.000000,23828.000000
19572.000000,40136.000000,44499.000000,23839.000000
19560.000000,40135.000000,44495.000000,23824.000000
19564.000000,40090.000000,44496.000000,23817.000000
19572.000000,40087.000000,44489.000000,23804.000000
19531.000000,40079.000000,44508.000000,23823.000000
19543.000000,40043.000000,44482.000000,23810.000000
19522.000000,40045.000000,44464.000000,23792.000000
19484.000000,40052.000000,44467.000000,23807.000000
19474.000000,40049.000000,44445.000000,23800.000000
19502.000000,39985.000000,44434.000000,23791.000000
19467.000000,39981.000000,44436.000000,23753.000000
19441.000000,40011.000000,44421.000000,23790.000000
19451.000000,39949.000000,44444.000000,23779.000000
19435.000000,39961.000000,44408.000000,23748.000000
19391.000000,39900.000000,44410.000000,23765.000000
19414.000000,39939.000000,44403.000000,23770.000000
19377.000000,39935.000000,44383.000000,23748.000000
19386.000000,39917.000000,44389.000000,23760.000000
19396.000000,39889.000000,44375.000000,23747.000000
19365.000000,39895.000000,44365.000000,23759.000000
19362.000000,39873.000000,44361.000000,23744.000000
19340.000000,39890.000000,44348.000000,23735.000000
19306.000000,39835.000000,44345.000000,23755.000000
19338.000000,39835.000000,44334.000000,23774.000000
19288.000000,39811.000000,44356.000000,23723.000000
19318.000000,39797.000000,44324.000000,23735.000000
19285.000000,39803.000000,44291.000000,23715.000000
19249.000000,39759.000000,44334.000000,23710.000000
19270.000000,39753.000000,44308.000000,23707.000000
