660nm,730nm,850nm,940nm
16944.000000,39706.000000,43942.000000,22363.000000
16846.000000,39676.000000,43971.000000,22361.000000
16868.000000,39655.000000,43903.000000,22368.000000
16825.000000,39634.000000,43982.000000,22366.000000
16874.000000,39630.000000,43927.000000,22320.000000
16802.000000,39598.000000,43972.000000,22341.000000
16830.000000,39604.000000,43872.000000,22329.000000
16753.000000,39565.000000,43945.000000,22338.000000
16781.000000,39543.000000,43860.000000,22346.000000
16732.000000,39518.000000,43903.000000,22327.000000
16749.000000,39485.000000,43854.000000,22330.000000
16699.000000,39485.000000,43891.000000,22306.000000
16758.000000,39460.000000,43822.000000,22295.000000
16682.000000,39464.000000,43847.000000,22284.000000
16680.000000,39422.000000,43795.000000,22285.000000
16635.000000,39450.000000,43827.000000,22316.000000
16660.000000,39406.000000,43795.000000,22300.000000
16629.000000,39379.000000,43814.000000,22295.000000
16667.000000,39383.000000,43756.000000,22270.000000
16583.000000,39376.000000,43791.000000,22274.000000
16612.000000,39352.000000,43746.000000,22271.000000
16570.000000,39340.000000,43788.000000,22265.000000
16597.000000,39308.000000,43735.000000,22249.000000
16543.000000,39296.000000,43746.000000,22289.000000
16545.000000,39307.000000,43725.000000,22233.000000
16514.000000,39226.000000,43752.000000,22270.000000
16515.000000,39249.000000,43734.000000,22240.000000
16477.000000,39188.000000,43665.000000,22278.000000
16467.000000,39240.000000,43684.000000,22212.000000
16480.000000,39176.000000,43675.000000,22239.000000
16423.000000,39182.000000,43699.000000,22195.000000
16428.000000,39135.000000,43662.000000,22262.000000
16394.000000,39151.000000,43656.000000,22182.000000
16414.000000,39095.000000,43631.000000,22216.000000
16332.000000,39109.000000,43617.000000,22173.000000
16341.000000,39070.000000,43617.000000,22236.000000
16310.000000,39057.000000,43571.000000,22166.000000
16224.000000,38975.000000,43596.000000,22205.000000
16272.000000,38997.000000,43576.000000,22164.000000
16204.000000,38918.000000,43535.000000,22175.000000
16235.000000,38937.000000,43524.000000,22135.000000
16172.000000,38877.000000,43520.000000,22159.000000
16193.000000,38873.000000,43450.000000,22109.000000
16127.000000,38824.000000,43459.000000,22157.000000
16155.000000,38832.000000,43419.000000,22117.000000
16078.000000,38783.000000,43465.000000,22130.000000
16092.000000,38783.000000,43432.000000,22090.000000
16038.000000,38726.000000,43410.000000,22144.000000
16004.000000,38715.000000,43393.000000,22098.000000
16009.000000,38678.000000,43374.000000,22111.000000
16040.000000,38709.000000,43345.000000,22084.000000
15996.000000,38646.000000,43374.000000,22084.000000
15965.000000,38662.000000,43341.000000,22046.000000
15921.000000,38583.000000,43370.000000,22084.000000
15931.000000,38628.000000,43266.000000,22035.000000
15914.000000,38574.000000,43319.000000,22055.000000
15920.000000,38592.000000,43279.000000,22021.000000
15877.000000,38495.000000,43275.000000,22059.000000
15877.000000,38569.000000,43234.000000,22025.000000
15809.000000,38533.000000,43336.000000,22066.000000
15825.000000,38478.000000,43244.000000,22029.000000
15766.000000,38439.000000,43260.000000,22043.000000
15815.000000,38476.000000,43233.000000,22006.000000
15751.000000,38383.000000,43248.000000,22027.000000
15739.000000,38395.000000,43176.000000,21984.000000
15697.000000,38349.000000,43225.000000,22036.000000
15718.000000,38395.000000,43177.000000,21980.000000
15658.000000,38327.000000,43185.000000,21999.000000
15706.000000,38350.000000,43157.000000,21966.000000
15637.000000,38328.000000,43169.000000,21994.000000
15668.000000,38268.000000,43148.000000,21991.000000
15613.000000,38262.000000,43126.000000,21956.000000
15615.000000,38270.000000,43103.000000,21974.000000
15611.000000,38235.000000,43106.000000,21957.000000
15624.000000,38220.000000,43126.000000,21970.000000
15574.000000,38205.000000,43111.000000,21943.000000
15578.000000,38198.000000,43102.000000,21945.000000
15591.000000,38151.000000,43079.000000,21943.000000
15500.000000,38158.000000,43090.000000,21948.000000
15520.000000,38139.000000,43055.000000,21924.000000
15491.000000,38133.000000,43071.000000,21933.000000
15500.000000,38104.000000,43055.000000,21931.000000
15497.000000,38129.000000,43040.000000,21922.000000
15466.000000,38073.000000,43031.000000,21930.000000
15463.000000,38097.000000,43021.000000,21935.000000
15438.000000,38057.000000,42999.000000,21893.000000
15414.000000,38088.000000,43012.000000,21902.000000
15443.000000,38054.000000,43023.000000,21908.000000
15395.000000,38058.000000,42985.000000,21892.000000
15399.000000,38006.000000,43012.000000,21898.000000
15419.000000,38040.000000,42975.000000,21887.000000
15391.000000,38015.000000,43002.000000,21882.000000
15407.000000,37968.000000,42950.000000,21840.000000
15374.000000,37947.000000,42994.000000,21854.000000
15390.000000,37949.000000,42978.000000,21861.000000
15324.000000,37920.000000,42956.000000,21858.000000
15331.000000,37923.000000,42942.000000,21851.000000
15291.000000,37922.000000,42939.000000,21854.000000
15320.000000,37907.000000,42918.000000,21838.000000
15284.000000,37914.000000,42926.000000,21835.000000
15271.000000,37884.000000,42892.000000,21874.000000
15255.000000,37831.000000,42910.000000,21835.000000
15252.000000,37849.000000,42888.000000,21844.000000
15235.000000,37819.000000,42905.000000,21829.000000
15194.000000,37797.000000,42859.000000,21823.000000
15188.000000,37794.000000,42864.000000,21787.000000
15184.000000,37744.000000,42846.000000,21811.000000
15173.000000,37743.000000,42825.000000,21777.000000
15124.000000,37709.000000,42836.000000,21783.000000
15132.000000,37702.000000,42789.000000,21796.000000
15077.000000,37658.000000,42807.000000,21781.000000
15078.000000,37652.000000,42794.000000,21763.000000
15060.000000,37633.000000,42776.000000,21763.000000
15064.000000,37648.000000,42766.000000,21762.000000
15038.000000,37603.000000,42783.000000,21771.000000
15013.000000,37618.000000,42736.000000,21738.000000
15029.000000,37595.000000,42754.000000,21746.000000
15027.000000,37586.000000,42736.000000,21749.000000
15014.000000,37544.000000,42769.000000,21758.000000
15048.000000,37623.000000,42734.000000,21736.000000
15034.000000,37566.000000,42768.000000,21729.000000
15058.000000,37607.000000,42754.000000,21748.000000
15037.000000,37629.000000,42799.000000,21748.000000
15069.000000,37645.000000,42788.000000,21756.000000
15080.000000,37627.000000,42795.000000,21751.000000
15118.000000,37732.000000,42799.000000,21790.000000
15118.000000,37702.000000,42813.000000,21774.000000
15180.000000,37753.000000,42833.000000,21809.000000
15184.000000,37780.000000,42869.000000,21770.000000
15226.000000,37792.000000,42846.000000,21801.000000
15218.000000,37786.000000,42887.000000,21803.000000
15300.000000,37842.000000,42877.000000,21830.000000
15280.000000,37899.000000,42917.000000,21832.000000
15341.000000,37912.000000,42943.000000,21835.000000
15373.000000,38009.000000,42980.000000,21857.000000
15463.000000,38029.000000,42971.000000,21859.000000
15464.000000,38083.000000,43009.000000,21874.000000
15544.000000,38097.000000,43056.000000,21897.000000
15612.000000,38179.000000,43087.000000,21901.000000
15627.000000,38215.000000,43127.000000,21929.000000
15653.000000,38303.000000,43139.000000,21945.000000
15682.000000,38298.000000,43159.000000,21961.000000
15801.000000,38349.000000,43189.000000,21971.000000
15801.000000,38415.000000,43223.000000,21973.000000
15882.000000,38473.000000,43279.000000,21985.000000
15919.000000,38519.000000,43296.000000,22013.000000
15996.000000,38594.000000,43301.000000,22035.000000
16000.000000,38651.000000,43383.000000,22059.000000
16099.000000,38711.000000,43388.000000,22063.000000
16115.000000,38778.000000,43471.000000,22079.000000
16201.000000,38873.000000,43470.000000,22099.000000
16264.000000,38928.000000,43493.000000,22146.000000
16362.000000,38995.000000,43549.000000,22170.000000
16446.000000,39126.000000,43649.000000,22178.000000
16584.000000,39207.000000,43700.000000,22232.000000
16655.000000,39362.000000,43780.000000,22257.000000
16757.000000,39490.000000,43851.000000,22288.000000
16855.000000,39618.000000,43931.000000,22318.000000
17011.000000,39772.000000,44013.000000,22401.000000
17117.000000,39889.000000,44072.000000,22406.000000
17162.000000,39977.000000,44125.000000,22426.000000
17262.000000,40067.000000,44190.000000,22453.000000
17285.000000,40120.000000,44190.000000,22496.000000
17333.000000,40174.000000,44247.000000,22500.000000
17332.000000,40182.000000,44254.000000,22513.000000
17342.000000,40190.000000,44273.000000,22500.000000
17342.000000,40219.000000,44276.000000,22508.000000
17352.000000,40163.000000,44242.000000,22498.000000
17345.000000,40162.000000,44239.000000,22512.000000
17323.000000,40139.000000,44254.000000,22501.000000
17267.000000,40130.000000,44271.000000,22501.000000
17327.000000,40124.000000,44224.000000,22494.000000
17257.000000,40143.000000,44231.000000,22462.000000
17270.000000,40095.000000,44218.000000,22482.000000
17227.000000,40105.000000,44204.000000,22465.000000
17223.000000,40067.000000,44184.000000,22476.000000
17208.000000,40065.000000,44185.000000,22432.000000
17189.000000,40027.000000,44148.000000,22445.000000
17161.000000,40027.000000,44171.000000,22457.000000
17183.000000,39998.000000,44178.000000,22476.000000
17136.000000,39978.000000,44154.000000,22453.000000
17132.000000,39948.000000,44157.000000,22433.000000
17118.000000,39957.000000,44142.000000,22458.000000
17097.000000,39974.000000,44147.000000,22435.000000
17087.000000,39921.000000,44116.000000,22444.000000
17062.000000,39885.000000,44132.000000,22422.000000
17071.000000,39875.000000,44058.000000,22423.000000
17030.000000,39871.000000,44060.000000,22430.000000
17043.000000,39826.000000,44088.000000,22439.000000
17016.000000,39840.000000,44040.000000,22384.000000
17020.000000,39798.000000,44030.000000,22396.000000
16986.000000,39804.000000,44038.000000,22400.000000
16951.000000,39754.000000,44053.000000,22382.000000
16966.000000,39746.000000,43981.000000,22388.000000
16945.000000,39739.000000,44009.000000,22386.000000
16943.000000,39719.000000,43992.000000,22399.000000
16911.000000,39711.000000,44014.000000,22378.000000
16934.000000,39687.000000,43972.000000,22368.000000
16843.000000,39681.000000,43965.000000,22352.000000
16880.000000,39644.000000,43958.000000,22382.000000
16854.000000,39638.000000,43972.000000,22341.000000
16860.000000,39637.000000,43959.000000,22333.000000
16817.000000,39628.000000,43963.000000,22352.000000
16823.000000,39584.000000,43927.000000,22351.000000
16822.000000,39603.000000,43898.000000,22369.000000
16823.000000,39560.000000,43904.000000,22358.000000
16802.000000,39580.000000,43887.000000,22371.000000
16798.000000,39521.000000,43888.000000,22325.000000
16748.000000,39508.000000,43878.000000,22314.000000
16747.000000,39498.000000,43883.000000,22286.000000
16784.000000,39473.000000,43841.000000,22317.000000
16726.000000,39471.000000,43887.000000,22289.000000
16712.000000,39474.000000,43862.000000,22305.000000
16681.000000,39433.000000,43848.000000,22335.000000
16699.000000,39415.000000,43837.000000,22301.000000
16681.000000,39417.000000,43815.000000,22282.000000
16673.000000,39403.000000,43810.000000,22311.000000
16646.000000,39391.000000,43841.000000,22268.000000
16646.000000,39403.000000,43817.000000,22292.000000
16645.000000,39371.000000,43775.000000,22270.000000
16612.000000,39373.000000,43746.000000,22290.000000
16606.000000,39350.000000,43747.000000,22261.000000
16578.000000,39294.000000,43781.000000,22247.000000
16574.000000,39337.000000,43731.000000,22254.000000
16524.000000,39254.000000,43739.000000,22260.000000
16545.000000,39269.000000,43712.000000,22231.000000
16518.000000,39260.000000,43706.000000,22254.000000
16524.000000,39221.000000,43697.000000,22218.000000
16472.000000,39200.000000,43704.000000,22232.000000
16463.000000,39161.000000,43640.000000,22216.000000
16414.000000,39145.000000,43656.000000,22221.000000
16435.000000,39161.000000,43667.000000,22198.000000
16376.000000,39121.000000,43645.000000,22181.000000
16406.000000,39106.000000,43642.000000,22207.000000
16391.000000,39100.000000,43631.000000,22184.000000
16353.000000,39049.000000,43603.000000,22220.000000
16342.000000,39035.000000,43567.000000,22174.000000
16342.000000,39028.000000,43591.000000,22199.000000
16319.000000,38985.000000,43562.000000,22165.000000
16304.000000,38974.000000,43571.000000,22141.000000
16249.000000,38972.000000,43532.000000,22144.000000
16236.000000,38919.000000,43564.000000,22143.000000
16241.000000,38938.000000,43546.000000,22148.000000
16201.000000,38895.000000,43533.000000,22124.000000
16198.000000,38884.000000,43513.000000,22128.000000
16196.000000,38855.000000,43531.000000,22100.000000
16175.000000,38859.000000,43488.000000,22127.000000
16137.000000,38850.000000,43472.000000,22125.000000
16132.000000,38802.000000,43443.000000,22115.000000
16124.000000,38793.000000,43448.000000,22084.000000
16088.000000,38758.000000,43432.000000,22103.000000
16040.000000,38774.000000,43420.000000,22081.000000
16041.000000,38723.000000,43398.000000,22099.000000
16032.000000,38686.000000,43395.000000,22084.000000
15983.000000,38652.000000,43408.000000,22081.000000
16003.000000,38676.000000,43359.000000,22071.000000
15956.000000,38627.000000,43350.000000,22069.000000
15962.000000,38621.000000,43368.000000,22055.000000
15951.000000,38624.000000,43359.000000,22065.000000
15936.000000,38602.000000,43330.000000,22035.000000
15918.000000,38593.000000,43323.000000,22035.000000
15918.000000,38551.000000,43314.000000,22018.000000
15891.000000,38549.000000,43318.000000,22036.000000
15856.000000,38520.000000,43290.000000,22020.000000
15866.000000,38522.000000,43261.000000,22003.000000
15832.000000,38471.000000,43300.000000,22022.000000
15812.000000,38508.000000,43274.000000,22011.000000
15790.000000,38477.000000,43286.000000,22010.000000
15789.000000,38430.000000,43225.000000,21993.000000
15774.000000,38430.000000,43273.000000,22008.000000
15798.000000,38443.000000,43228.000000,21979.000000
15721.000000,38416.000000,43238.000000,21994.000000
15743.000000,38378.000000,43208.000000,21994.000000
15743.000000,38397.000000,43228.000000,21982.000000
15749.000000,38380.000000,43188.000000,21962.000000
15694.000000,38356.000000,43205.000000,21972.000000
15688.000000,38343.000000,43185.000000,21974.000000
15647.000000,38308.000000,43192.000000,21958.000000
15701.000000,38311.000000,43186.000000,21979.000000
15661.000000,38312.000000,43159.000000,21968.000000
15667.000000,38268.000000,43148.000000,21935.000000
15608.000000,38284.000000,43130.000000,21950.000000
15586.000000,38236.000000,43133.000000,21937.000000
15575.000000,38239.000000,43145.000000,21912.000000
15558.000000,38191.000000,43101.000000,21935.000000
15571.000000,38218.000000,43128.000000,21932.000000
15567.000000,38180.000000,43129.000000,21912.000000
15528.000000,38189.000000,43085.000000,21886.000000
15513.000000,38145.000000,43073.000000,21895.000000
15516.000000,38146.000000,43077.000000,21897.000000
15457.000000,38084.000000,43068.000000,21890.000000
15460.000000,38088.000000,43046.000000,21858.000000
15440.000000,38021.000000,43038.000000,21860.000000
15453.000000,38053.000000,43012.000000,21865.000000
15370.000000,38008.000000,43024.000000,21870.000000
15404.000000,37934.000000,42970.000000,21862.000000
15363.000000,37950.000000,42974.000000,21843.000000
15327.000000,37920.000000,42949.000000,21859.000000
15304.000000,37914.000000,42951.000000,21828.000000
15298.000000,37918.000000,42946.000000,21850.000000
15277.000000,37891.000000,42952.000000,21818.000000
15280.000000,37855.000000,42921.000000,21817.000000
15270.000000,37871.000000,42933.000000,21813.000000
15239.000000,37857.000000,42919.000000,21818.000000
15295.000000,37868.000000,42886.000000,21783.000000
15236.000000,37839.000000,42925.000000,21809.000000
15256.000000,37857.000000,42914.000000,21806.000000
15253.000000,37818.000000,42918.000000,21794.000000
15265.000000,37838.000000,42891.000000,21810.000000
15270.000000,37860.000000,42938.000000,21797.000000
15296.000000,37889.000000,42943.000000,21791.000000
15285.000000,37877.000000,42941.000000,21820.000000
15315.000000,37899.000000,42955.000000,21834.000000
15334.000000,37927.000000,42953.000000,21825.000000
15355.000000,37908.000000,42969.000000,21836.000000
15350.000000,37945.000000,42995.000000,21836.000000
15389.000000,38009.000000,42982.000000,21856.000000
15412.000000,38034.000000,42996.000000,21848.000000
15457.000000,38020.000000,43034.000000,21852.000000
15510.000000,38048.000000,43036.000000,21850.000000
15518.000000,38118.000000,43073.000000,21880.000000
15544.000000,38104.000000,43068.000000,21897.000000
15580.000000,38187.000000,43105.000000,21918.000000
15646.000000,38254.000000,43135.000000,21912.000000
15701.000000,38273.000000,43133.000000,21920.000000
15728.000000,38312.000000,43190.000000,21937.000000
15776.000000,38370.000000,43209.000000,21936.000000
15813.000000,38397.000000,43247.000000,21959.000000
15869.000000,38438.000000,43244.000000,22012.000000
15914.000000,38505.000000,43261.000000,21974.000000
15981.000000,38538.000000,43300.000000,22014.000000
15997.000000,38617.000000,43330.000000,22029.000000
16039.000000,38652.000000,43377.000000,22034.000000
16084.000000,38726.000000,43423.000000,22081.000000
16098.000000,38742.000000,43439.000000,22099.000000
16198.000000,38809.000000,43479.000000,22094.000000
16236.000000,38847.000000,43506.000000,22126.000000
16329.000000,38924.000000,43542.000000,22112.000000
16365.000000,39040.000000,43562.000000,22150.000000
16423.000000,39088.000000,43642.000000,22179.000000
16519.000000,39187.000000,43691.000000,22226.000000
16596.000000,39268.000000,43758.000000,22232.000000
16749.000000,39407.000000,43812.000000,22249.000000
16811.000000,39539.000000,43880.000000,22295.000000
16987.000000,39702.000000,44000.000000,22371.000000
17095.000000,39837.000000,44115.000000,22385.000000
17218.000000,39998.000000,44160.000000,22453.000000
17312.000000,40092.000000,44217.000000,22476.000000
17342.000000,40139.000000,44295.000000,22488.000000
17426.000000,40265.000000,44312.000000,22525.000000
17442.000000,40289.000000,44368.000000,22532.000000
17506.000000,40325.000000,44379.000000,22541.000000
17495.000000,40359.000000,44348.000000,22534.000000
17520.000000,40337.000000,44367.000000,22546.000000
17511.000000,40376.000000,44378.000000,22558.000000
17527.000000,40365.000000,44367.000000,22559.000000
17477.000000,40374.000000,44364.000000,22542.000000
17495.000000,40328.000000,44355.000000,22542.000000
17461.000000,40373.000000,44357.000000,22547.000000
17468.000000,40325.000000,44368.000000,22553.000000
17466.000000,40323.000000,44364.000000,22522.000000
17436.000000,40266.000000,44326.000000,22532.000000
17403.000000,40312.000000,44337.000000,22515.000000
17394.000000,40254.000000,44324.000000,22543.000000
17425.000000,40242.000000,44309.000000,22523.000000
17398.000000,40207.000000,44297.000000,22491.000000
17392.000000,40234.000000,44290.000000,22529.000000
17329.000000,40192.000000,44305.000000,22514.000000
17358.000000,40166.000000,44251.000000,22521.000000
17288.000000,40172.000000,44253.000000,22490.000000
17313.000000,40126.000000,44265.000000,22472.000000
17272.000000,40124.000000,44212.000000,22482.000000
17258.000000,40091.000000,44232.000000,22504.000000
17241.000000,40112.000000,44214.000000,22477.000000
17244.000000,40079.000000,44196.000000,22485.000000
17241.000000,40032.000000,44171.000000,22445.000000
17193.000000,40052.000000,44211.000000,22473.000000
17228.000000,40019.000000,44174.000000,22456.000000
17179.000000,39996.000000,44166.000000,22461.000000
17141.000000,40014.000000,44154.000000,22460.000000
17154.000000,39973.000000,44137.000000,22460.000000
17115.000000,39931.000000,44135.000000,22445.000000
17127.000000,39963.000000,44118.000000,22456.000000
17110.000000,39915.000000,44102.000000,22432.000000
17097.000000,39948.000000,44092.000000,22418.000000
17082.000000,39879.000000,44092.000000,22431.000000
17026.000000,39878.000000,44065.000000,22411.000000
17049.000000,39862.000000,44085.000000,22424.000000
17037.000000,39892.000000,44063.000000,22406.000000
17027.000000,39828.000000,44042.000000,22392.000000
17030.000000,39803.000000,44046.000000,22380.000000
16990.000000,39795.000000,44033.000000,22403.000000
16999.000000,39765.000000,44041.000000,22376.000000
16987.000000,39766.000000,44052.000000,22392.000000
16952.000000,39757.000000,44017.000000,22391.000000
16919.000000,39686.000000,43996.000000,22370.000000
16936.000000,39712.000000,44008.000000,22365.000000
16882.000000,39659.000000,43988.000000,22350.000000
16912.000000,39636.000000,43963.000000,22353.000000
16833.000000,39639.000000,43964.000000,22322.000000
16841.000000,39599.000000,43919.000000,22336.000000
16823.000000,39615.000000,43966.000000,22327.000000
16834.000000,39609.000000,43902.000000,22343.000000
16801.000000,39573.000000,43905.000000,22333.000000
16783.000000,39541.000000,43890.000000,22322.000000
16743.000000,39541.000000,43885.000000,22327.000000
16745.000000,39498.000000,43883.000000,22319.000000
16697.000000,39518.000000,43868.000000,22321.000000
16713.000000,39479.000000,43862.000000,22310.000000
16744.000000,39461.000000,43845.000000,22293.000000
16664.000000,39428.000000,43843.000000,22303.000000
16647.000000,39442.000000,43826.000000,22298.000000
16644.000000,39434.000000,43819.000000,22304.000000
16650.000000,39394.000000,43795.000000,22314.000000
16646.000000,39404.000000,43792.000000,22282.000000
16626.000000,39387.000000,43817.000000,22302.000000
16627.000000,39354.000000,43787.000000,22287.000000
16563.000000,39311.000000,43793.000000,22269.000000
16612.000000,39323.000000,43766.000000,22265.000000
16555.000000,39326.000000,43763.000000,22268.000000
16560.000000,39319.000000,43741.000000,22264.000000
16519.000000,39270.000000,43743.000000,22245.000000
16530.000000,39240.000000,43737.000000,22239.000000
16486.000000,39234.000000,43719.000000,22233.000000
16479.000000,39213.000000,43729.000000,22227.000000
16473.000000,39202.000000,43685.000000,22215.000000
16478.000000,39185.000000,43717.000000,22216.000000
16441.000000,39135.000000,43655.000000,22186.000000
16403.000000,39156.000000,43681.000000,22226.000000
16406.000000,39126.000000,43648.000000,22215.000000
16384.000000,39143.000000,43625.000000,22181.000000
16356.000000,39073.000000,43610.000000,22180.000000
16330.000000,39056.000000,43594.000000,22181.000000
16286.000000,39031.000000,43601.000000,22179.000000
16291.000000,39020.000000,43559.000000,22165.000000
16257.000000,39019.000000,43588.000000,22149.000000
16243.000000,38960.000000,43545.000000,22167.000000
16227.000000,38963.000000,43545.000000,22145.000000
16204.000000,38870.000000,43537.000000,22167.000000
16191.000000,38903.000000,43502.000000,22138.000000
16160.000000,38849.000000,43544.000000,22123.000000
16146.000000,38876.000000,43479.000000,22130.000000
16142.000000,38818.000000,43509.000000,22107.000000
16097.000000,38803.000000,43478.000000,22121.000000
16081.000000,38829.000000,43445.000000,22113.000000
16115.000000,38784.000000,43442.000000,22117.000000
16054.000000,38786.000000,43431.000000,22119.000000
16065.000000,38760.000000,43440.000000,22081.000000
16029.000000,38760.000000,43424.000000,22070.000000
16018.000000,38721.000000,43416.000000,22089.000000
16052.000000,38723.000000,43396.000000,22067.000000
15988.000000,38717.000000,43393.000000,22082.000000
15981.000000,38627.000000,43362.000000,22053.000000
15915.000000,38633.000000,43387.000000,22055.000000
15952.000000,38602.000000,43339.000000,22087.000000
15918.000000,38622.000000,43346.000000,22027.000000
15904.000000,38569.000000,43327.000000,22058.000000
15875.000000,38591.000000,43338.000000,22029.000000
15839.000000,38542.000000,43330.000000,22033.000000
15843.000000,38504.000000,43302.000000,22014.000000
15827.000000,38525.000000,43324.000000,22000.000000
15821.000000,38471.000000,43291.000000,22009.000000
15792.000000,38473.000000,43276.000000,22015.000000
15816.000000,38456.000000,43249.000000,21996.000000
15774.000000,38474.000000,43259.000000,21988.000000
15781.000000,38448.000000,43259.000000,22002.000000
15747.000000,38429.000000,43261.000000,21996.000000
15759.000000,38414.000000,43227.000000,21980.000000
15725.000000,38444.000000,43225.000000,21979.000000
15716.000000,38361.000000,43230.000000,21990.000000
15710.000000,38382.000000,43219.000000,21983.000000
15701.000000,38332.000000,43181.000000,21955.000000
15668.000000,38347.000000,43157.000000,21965.000000
15626.000000,38307.000000,43197.000000,21976.000000
15678.000000,38289.000000,43188.000000,21945.000000
15627.000000,38250.000000,43163.000000,21937.000000
15608.000000,38266.000000,43129.000000,21953.000000
15582.000000,38203.000000,43143.000000,21925.000000
15567.000000,38212.000000,43097.000000,21912.000000
15531.000000,38175.000000,43098.000000,21914.000000
15524.000000,38153.000000,43058.000000,21902.000000
15482.000000,38144.000000,43086.000000,21899.000000
15491.000000,38103.000000,43049.000000,21896.000000
15472.000000,38073.000000,43058.000000,21889.000000
15471.000000,38075.000000,43062.000000,21877.000000
15424.000000,38089.000000,43044.000000,21880.000000
15481.000000,38050.000000,43024.000000,21863.000000
15405.000000,38069.000000,43017.000000,21845.000000
15429.000000,38015.000000,43014.000000,21876.000000
15407.000000,38040.000000,42994.000000,21883.000000
15393.000000,38003.000000,42990.000000,21860.000000
15410.000000,38044.000000,42992.000000,21846.000000
15374.000000,38012.000000,43020.000000,21870.000000
15384.000000,38010.000000,43002.000000,21862.000000
15410.000000,38016.000000,43054.000000,21862.000000
15441.000000,38040.000000,43012.000000,21864.000000
15440.000000,38038.000000,43049.000000,21859.000000
15491.000000,38060.000000,43068.000000,21887.000000
15471.000000,38141.000000,43047.000000,21874.000000
15520.000000,38109.000000,43063.000000,21882.000000
15520.000000,38137.000000,43063.000000,21898.000000
15552.000000,38160.000000,43096.000000,21881.000000
15590.000000,38201.000000,43092.000000,21902.000000
15624.000000,38230.000000,43129.000000,21909.000000
15645.000000,38258.000000,43147.000000,21916.000000
15656.000000,38278.000000,43173.000000,21942.000000
15714.000000,38320.000000,43155.000000,21952.000000
15714.000000,38373.000000,43213.000000,21955.000000
15767.000000,38394.000000,43196.000000,21981.000000
15773.000000,38447.000000,43260.000000,21999.000000
15887.000000,38454.000000,43251.000000,21999.000000
15871.000000,38509.000000,43291.000000,21997.000000
15929.000000,38527.000000,43313.000000,22037.000000
15973.000000,38619.000000,43323.000000,22008.000000
15993.000000,38613.000000,43342.000000,22020.000000
16037.000000,38668.000000,43374.000000,22067.000000
16079.000000,38705.000000,43397.000000,22074.000000
16125.000000,38770.000000,43435.000000,22074.000000
16200.000000,38799.000000,43476.000000,22110.000000
16246.000000,38876.000000,43495.000000,22118.000000
16306.000000,38928.000000,43541.000000,22143.000000
16354.000000,39003.000000,43576.000000,22137.000000
16433.000000,39084.000000,43645.000000,22210.000000
16535.000000,39186.000000,43666.000000,22199.000000
16609.000000,39273.000000,43751.000000,22256.000000
16706.000000,39410.000000,43806.000000,22264.000000
16808.000000,39544.000000,43927.000000,22329.000000
16945.000000,39686.000000,43992.000000,22361.000000
17077.000000,39862.000000,44059.000000,22418.000000
17181.000000,39954.000000,44137.000000,22433.000000
17295.000000,40118.000000,44189.000000,22478.000000
17351.000000,40156.000000,44253.000000,22510.000000
17395.000000,40248.000000,44305.000000,22515.000000
17394.000000,40267.000000,44340.000000,22538.000000
17479.000000,40296.000000,44338.000000,22519.000000
17476.000000,40337.000000,44365.000000,22535.000000
17442.000000,40348.000000,44383.000000,22569.000000
17463.000000,40331.000000,44403.000000,22563.000000
17476.000000,40333.000000,44345.000000,22551.000000
17439.000000,40342.000000,44356.000000,22532.000000
17446.000000,40288.000000,44348.000000,22556.000000
17434.000000,40298.000000,44336.000000,22536.000000
17417.000000,40290.000000,44326.000000,22534.000000
17373.000000,40264.000000,44302.000000,22515.000000
17373.000000,40240.000000,44306.000000,22532.000000
17373.000000,40234.000000,44309.000000,22520.000000
17340.000000,40213.000000,44288.000000,22502.000000
17352.000000,40180.000000,44288.000000,22512.000000
17301.000000,40172.000000,44277.000000,22497.000000
17275.000000,40140.000000,44221.000000,22500.000000
17243.000000,40144.000000,44244.000000,22520.000000
17266.000000,40092.000000,44243.000000,22471.000000
17245.000000,40100.000000,44220.000000,22501.000000
17205.000000,40035.000000,44196.000000,22475.000000
17224.000000,40023.000000,44192.000000,22482.000000
17191.000000,40000.000000,44185.000000,22482.000000
17173.000000,40020.000000,44138.000000,22442.000000
17152.000000,39965.000000,44177.000000,22438.000000
17168.000000,39983.000000,44132.000000,22442.000000
17127.000000,39944.000000,44131.000000,22460.000000
17113.000000,39905.000000,44125.000000,22443.000000
17091.000000,39946.000000,44109.000000,22432.000000
17113.000000,39894.000000,44108.000000,22442.000000
17082.000000,39871.000000,44094.000000,22440.000000
17045.000000,39842.000000,44078.000000,22426.000000
17045.000000,39832.000000,44088.000000,22410.000000
16977.000000,39812.000000,44080.000000,22409.000000
17000.000000,39789.000000,44047.000000,22392.000000
17007.000000,39784.000000,44048.000000,22409.000000
17011.000000,39761.000000,44013.000000,22395.000000
16948.000000,39760.000000,44028.000000,22391.000000
16931.000000,39681.000000,43997.000000,22379.000000
16916.000000,39714.000000,43983.000000,22360.000000
16894.000000,39648.000000,43982.000000,22374.000000
16916.000000,39665.000000,43966.000000,22360.000000
16874.000000,39602.000000,43948.000000,22375.000000
16811.000000,39626.000000,43946.000000,22368.000000
16812.000000,39606.000000,43945.000000,22345.000000
16813.000000,39573.000000,43922.000000,22332.000000
16794.000000,39540.000000,43921.000000,22347.000000
16781.000000,39534.000000,43886.000000,22310.000000
16783.000000,39525.000000,43905.000000,22303.000000
16770.000000,39475.000000,43854.000000,22319.000000
16731.000000,39478.000000,43857.000000,22308.000000
16727.000000,39456.000000,43848.000000,22336.000000
16712.000000,39481.000000,43854.000000,22316.000000
16708.000000,39441.000000,43847.000000,22354.000000
16699.000000,39458.000000,43817.000000,22297.000000
16684.000000,39376.000000,43817.000000,22303.000000
16684.000000,39409.000000,43805.000000,22314.000000
16648.000000,39351.000000,43819.000000,22302.000000
16621.000000,39379.000000,43820.000000,22277.000000
16619.000000,39336.000000,43804.000000,22290.000000
16587.000000,39358.000000,43777.000000,22288.000000
16581.000000,39296.000000,43763.000000,22281.000000
16598.000000,39307.000000,43763.000000,22260.000000
16529.000000,39271.000000,43760.000000,22270.000000
16535.000000,39256.000000,43755.000000,22253.000000
16484.000000,39230.000000,43722.000000,22225.000000
16534.000000,39211.000000,43678.000000,22213.000000
16434.000000,39164.000000,43711.000000,22221.000000
16475.000000,39162.000000,43675.000000,22216.000000
16428.000000,39191.000000,43672.000000,22210.000000
16432.000000,39127.000000,43641.000000,22233.000000
16374.000000,39136.000000,43626.000000,22205.000000
16370.000000,39075.000000,43652.000000,22213.000000
16383.000000,39062.000000,43626.000000,22189.000000
16317.000000,39036.000000,43595.000000,22180.000000
16342.000000,39026.000000,43625.000000,22186.000000
16306.000000,38974.000000,43581.000000,22173.000000
16313.000000,38981.000000,43562.000000,22168.000000
16274.000000,38999.000000,43585.000000,22145.000000
16256.000000,38945.000000,43533.000000,22167.000000
16255.000000,38970.000000,43568.000000,22178.000000
16242.000000,38914.000000,43545.000000,22167.000000
16232.000000,38921.000000,43540.000000,22147.000000
16210.000000,38869.000000,43532.000000,22163.000000
16169.000000,38861.000000,43525.000000,22152.000000
16196.000000,38834.000000,43501.000000,22122.000000
16181.000000,38845.000000,43478.000000,22147.000000
16118.000000,38814.000000,43504.000000,22124.000000
16150.000000,38767.000000,43454.000000,22133.000000
16103.000000,38806.000000,43443.000000,22131.000000
16101.000000,38757.000000,43442.000000,22109.000000
16064.000000,38735.000000,43420.000000,22084.000000
16035.000000,38685.000000,43404.000000,22069.000000
16041.000000,38678.000000,43404.000000,22070.000000
16001.000000,38697.000000,43416.000000,22076.000000
16031.000000,38658.000000,43398.000000,22081.000000
15953.000000,38654.000000,43382.000000,22054.000000
15954.000000,38617.000000,43383.000000,22089.000000
15949.000000,38597.000000,43312.000000,22055.000000
15943.000000,38560.000000,43333.000000,22059.000000
15909.000000,38556.000000,43321.000000,22042.000000
15895.000000,38553.000000,43332.000000,22039.000000
15874.000000,38521.000000,43295.000000,22049.000000
15846.000000,38504.000000,43299.000000,22053.000000
15847.000000,38473.000000,43294.000000,22046.000000
15821.000000,38499.000000,43276.000000,21989.000000
15831.000000,38475.000000,43262.000000,22008.000000
15803.000000,38466.000000,43247.000000,22025.000000
15744.000000,38429.000000,43278.000000,21998.000000
15778.000000,38398.000000,43242.000000,22008.000000
15764.000000,38396.000000,43260.000000,21987.000000
15747.000000,38349.000000,43220.000000,21984.000000
15705.000000,38367.000000,43202.000000,22004.000000
15717.000000,38329.000000,43223.000000,21984.000000
15698.000000,38331.000000,43187.000000,21963.000000
15703.000000,38302.000000,43179.000000,21965.000000
15654.000000,38337.000000,43169.000000,21959.000000
15662.000000,38284.000000,43154.000000,21993.000000
15651.000000,38300.000000,43137.000000,21941.000000
15652.000000,38263.000000,43137.000000,21950.000000
15622.000000,38246.000000,43116.000000,21953.000000
15648.000000,38223.000000,43133.000000,21953.000000
15602.000000,38193.000000,43117.000000,21928.000000
15565.000000,38194.000000,43116.000000,21913.000000
15606.000000,38183.000000,43115.000000,21915.000000
15534.000000,38168.000000,43096.000000,21923.000000
15547.000000,38150.000000,43092.000000,21935.000000
15512.000000,38127.000000,43078.000000,21903.000000
15502.000000,38102.000000,43070.000000,21916.000000
15484.000000,38112.000000,43031.000000,21901.000000
15438.000000,38070.000000,43032.000000,21901.000000
15438.000000,38051.000000,43046.000000,21874.000000
15398.000000,38013.000000,43032.000000,21858.000000
15429.000000,38013.000000,42993.000000,21869.000000
15388.000000,37967.000000,43011.000000,21856.000000
15385.000000,37949.000000,42996.000000,21835.000000
15328.000000,37913.000000,42993.000000,21851.000000
15332.000000,37927.000000,42958.000000,21830.000000
15292.000000,37890.000000,42945.000000,21803.000000
15295.000000,37832.000000,42903.000000,21830.000000
15255.000000,37849.000000,42934.000000,21805.000000
15259.000000,37832.000000,42897.000000,21832.000000
15216.000000,37814.000000,42894.000000,21790.000000
15257.000000,37780.000000,42907.000000,21807.000000
15201.000000,37822.000000,42872.000000,21805.000000
15198.000000,37766.000000,42881.000000,21780.000000
15207.000000,37792.000000,42866.000000,21812.000000
15191.000000,37797.000000,42853.000000,21777.000000
15215.000000,37750.000000,42859.000000,21791.000000
15197.000000,37760.000000,42863.000000,21772.000000
15217.000000,37799.000000,42867.000000,21755.000000
15189.000000,37773.000000,42897.000000,21787.000000
15235.000000,37825.000000,42905.000000,21774.000000
15201.000000,37805.000000,42913.000000,21796.000000
15268.000000,37832.000000,42927.000000,21791.000000
15288.000000,37845.000000,42912.000000,21811.000000
15302.000000,37859.000000,42918.000000,21795.000000
15299.000000,37893.000000,42964.000000,21819.000000
15338.000000,37901.000000,42946.000000,21816.000000
15332.000000,37947.000000,42982.000000,21813.000000
15384.000000,37968.000000,42998.000000,21832.000000
15390.000000,38006.000000,43018.000000,21827.000000
15447.000000,38025.000000,43021.000000,21835.000000
15464.000000,38048.000000,43048.000000,21874.000000
15545.000000,38098.000000,43051.000000,21873.000000
15515.000000,38142.000000,43104.000000,21856.000000
15585.000000,38182.000000,43095.000000,21908.000000
15643.000000,38226.000000,43156.000000,21871.000000
15688.000000,38279.000000,43157.000000,21889.000000
15715.000000,38331.000000,43189.000000,21922.000000
15773.000000,38351.000000,43228.000000,21950.000000
15845.000000,38418.000000,43246.000000,21944.000000
15851.000000,38463.000000,43266.000000,21975.000000
15930.000000,38523.000000,43297.000000,21995.000000
15950.000000,38580.000000,43339.000000,22019.000000
16042.000000,38639.000000,43383.000000,22027.000000
16085.000000,38672.000000,43419.000000,22038.000000
16139.000000,38749.000000,43434.000000,22051.000000
16173.000000,38778.000000,43502.000000,22101.000000
16249.000000,38878.000000,43524.000000,22110.000000
16311.000000,38938.000000,43558.000000,22114.000000
16366.000000,39035.000000,43610.000000,22146.000000
16459.000000,39113.000000,43638.000000,22170.000000
16552.000000,39221.000000,43710.000000,22211.000000
16662.000000,39326.000000,43762.000000,22227.000000
16740.000000,39447.000000,43840.000000,22288.000000
16892.000000,39598.000000,43941.000000,22333.000000
16980.000000,39739.000000,44002.000000,22342.000000
17142.000000,39904.000000,44099.000000,22395.000000
17207.000000,39986.000000,44160.000000,22431.000000
17274.000000,40089.000000,44205.000000,22428.000000
17336.000000,40172.000000,44275.000000,22476.000000
17397.000000,40201.000000,44304.000000,22486.000000
17393.000000,40216.000000,44313.000000,22508.000000
17452.000000,40234.000000,44308.000000,22522.000000
17420.000000,40270.000000,44336.000000,22502.000000
17433.000000,40252.000000,44333.000000,22507.000000
17409.000000,40272.000000,44359.000000,22501.000000
17427.000000,40276.000000,44297.000000,22521.000000
17396.000000,40262.000000,44322.000000,22518.000000
17376.000000,40221.000000,44292.000000,22501.000000
17357.000000,40218.000000,44275.000000,22490.000000
17342.000000,40174.000000,44291.000000,22507.000000
17363.000000,40186.000000,44248.000000,22484.000000
17316.000000,40137.000000,44268.000000,22481.000000
17336.000000,40145.000000,44271.000000,22462.000000
17296.000000,40135.000000,44279.000000,22493.000000
17295.000000,40129.000000,44219.000000,22467.000000
17272.000000,40113.000000,44249.000000,22455.000000
17250.000000,40074.000000,44218.000000,22446.000000
17246.000000,40063.000000,44210.000000,22451.000000
17236.000000,40039.000000,44181.000000,22469.000000
17210.000000,40021.000000,44176.000000,22425.000000
17216.000000,39990.000000,44168.000000,22444.000000
17162.000000,40008.000000,44149.000000,22435.000000
17150.000000,39959.000000,44130.000000,22448.000000
17159.000000,39973.000000,44135.000000,22417.000000
17112.000000,39932.000000,44131.000000,22439.000000
17132.000000,39915.000000,44125.000000,22419.000000
17089.000000,39883.000000,44133.000000,22407.000000
17085.000000,39853.000000,44098.000000,22386.000000
17062.000000,39854.000000,44093.000000,22379.000000
17059.000000,39809.000000,44092.000000,22399.000000
17016.000000,39837.000000,44066.000000,22395.000000
17017.000000,39771.000000,44057.000000,22364.000000
16960.000000,39785.000000,44039.000000,22378.000000
16981.000000,39721.000000,44006.000000,22359.000000
16922.000000,39698.000000,44024.000000,22363.000000
16947.000000,39717.000000,44009.000000,22374.000000
16932.000000,39694.000000,43997.000000,22363.000000
16909.000000,39650.000000,43996.000000,22387.000000
16883.000000,39679.000000,43984.000000,22354.000000
16849.000000,39638.000000,43969.000000,22328.000000
16818.000000,39601.000000,43943.000000,22332.000000
16795.000000,39574.000000,43952.000000,22323.000000
16822.000000,39557.000000,43925.000000,22303.000000
16763.000000,39543.000000,43898.000000,22313.000000
16768.000000,39520.000000,43877.000000,22323.000000
16719.000000,39494.000000,43874.000000,22326.000000
16741.000000,39477.000000,43888.000000,22314.000000
16698.000000,39469.000000,43856.000000,22301.000000
16678.000000,39435.000000,43860.000000,22288.000000
16651.000000,39433.000000,43839.000000,22263.000000
16655.000000,39390.000000,43813.000000,22306.000000
16618.000000,39389.000000,43808.000000,22282.000000
16632.000000,39354.000000,43798.000000,22261.000000
16596.000000,39352.000000,43786.000000,22265.000000
16587.000000,39310.000000,43764.000000,22239.000000
16576.000000,39306.000000,43743.000000,22231.000000
16530.000000,39250.000000,43748.000000,22244.000000
16534.000000,39262.000000,43736.000000,22236.000000
16501.000000,39211.000000,43731.000000,22204.000000
16493.000000,39172.000000,43695.000000,22236.000000
16473.000000,39189.000000,43728.000000,22211.000000
16457.000000,39162.000000,43687.000000,22201.000000
16421.000000,39168.000000,43688.000000,22206.000000
16435.000000,39123.000000,43648.000000,22206.000000
16376.000000,39120.000000,43641.000000,22184.000000
16398.000000,39083.000000,43632.000000,22188.000000
16343.000000,39088.000000,43615.000000,22191.000000
16333.000000,39039.000000,43627.000000,22155.000000
16310.000000,38999.000000,43606.000000,22170.000000
16277.000000,39001.000000,43581.000000,22176.000000
16290.000000,38952.000000,43586.000000,22158.000000
16235.000000,38973.000000,43587.000000,22146.000000
16241.000000,38920.000000,43550.000000,22149.000000
16228.000000,38945.000000,43523.000000,22153.000000
16200.000000,38852.000000,43526.000000,22127.000000
16160.000000,38878.000000,43501.000000,22113.000000
16133.000000,38857.000000,43489.000000,22127.000000
16140.000000,38816.000000,43471.000000,22112.000000
16080.000000,38781.000000,43475.000000,22109.000000
16105.000000,38761.000000,43475.000000,22089.000000
16039.000000,38740.000000,43451.000000,22096.000000
16055.000000,38681.000000,43437.000000,22075.000000
16016.000000,38732.000000,43439.000000,22085.000000
16007.000000,38632.000000,43410.000000,22075.000000
15959.000000,38644.000000,43371.000000,22062.000000
15982.000000,38618.000000,43365.000000,22056.000000
15955.000000,38621.000000,43371.000000,22035.000000
15943.000000,38598.000000,43358.000000,22051.000000
15944.000000,38561.000000,43330.000000,22050.000000
15879.000000,38555.000000,43350.000000,22048.000000
15894.000000,38527.000000,43328.000000,22024.000000
15841.000000,38529.000000,43328.000000,22034.000000
15825.000000,38458.000000,43264.000000,22016.000000
15796.000000,38474.000000,43270.000000,21999.000000
15783.000000,38412.000000,43256.000000,22014.000000
15795.000000,38425.000000,43265.000000,22014.000000
15765.000000,38373.000000,43249.000000,22011.000000
15760.000000,38370.000000,43238.000000,21965.000000
15713.000000,38355.000000,43217.000000,21975.000000
15702.000000,38320.000000,43195.000000,21962.000000
15690.000000,38319.000000,43182.000000,21945.000000
15702.000000,38304.000000,43200.000000,21954.000000
15669.000000,38296.000000,43179.000000,21949.000000
15651.000000,38258.000000,43162.000000,21970.000000
15627.000000,38243.000000,43130.000000,21924.000000
15597.000000,38240.000000,43162.000000,21936.000000
15596.000000,38196.000000,43177.000000,21945.000000
15581.000000,38220.000000,43131.000000,21949.000000
15564.000000,38179.000000,43106.000000,21932.000000
15540.000000,38174.000000,43102.000000,21912.000000
15524.000000,38142.000000,43086.000000,21929.000000
15529.000000,38117.000000,43087.000000,21913.000000
15512.000000,38117.000000,43084.000000,21912.000000
15523.000000,38064.000000,43068.000000,21911.000000
15454.000000,38082.000000,43065.000000,21876.000000
15467.000000,38053.000000,43042.000000,21896.000000
15429.000000,38040.000000,43047.000000,21882.000000
15404.000000,38044.000000,43030.000000,21879.000000
15419.000000,38057.000000,43036.000000,21868.000000
15383.000000,38006.000000,43027.000000,21885.000000
15401.000000,37973.000000,43013.000000,21887.000000
15380.000000,37978.000000,42983.000000,21876.000000
15364.000000,37929.000000,43012.000000,21891.000000
15352.000000,37937.000000,42994.000000,21852.000000
15332.000000,37915.000000,42983.000000,21835.000000
15319.000000,37909.000000,42951.000000,21851.000000
15310.000000,37893.000000,42926.000000,21818.000000
15276.000000,37830.000000,42926.000000,21844.000000
15246.000000,37844.000000,42921.000000,21824.000000
15228.000000,37794.000000,42935.000000,21814.000000
15218.000000,37781.000000,42891.000000,21802.000000
15190.000000,37737.000000,42874.000000,21782.000000
15163.000000,37710.000000,42847.000000,21794.000000
15137.000000,37719.000000,42850.000000,21766.000000
15132.000000,37679.000000,42828.000000,21762.000000
15101.000000,37697.000000,42815.000000,21747.000000
15121.000000,37619.000000,42826.000000,21749.000000
15098.000000,37654.000000,42800.000000,21766.000000
15054.000000,37598.000000,42811.000000,21747.000000
15086.000000,37608.000000,42773.000000,21757.000000
15023.000000,37595.000000,42801.000000,21746.000000
15062.000000,37566.000000,42773.000000,21742.000000
15029.000000,37585.000000,42789.000000,21751.000000
15057.000000,37587.000000,42762.000000,21728.000000
15069.000000,37579.000000,42775.000000,21729.000000
15053.000000,37576.000000,42783.000000,21739.000000
15078.000000,37633.000000,42781.000000,21741.000000
15064.000000,37633.000000,42821.000000,21751.000000
15119.000000,37621.000000,42824.000000,21735.000000
15111.000000,37670.000000,42816.000000,21762.000000
15136.000000,37685.000000,42843.000000,21753.000000
15157.000000,37720.000000,42865.000000,21762.000000
15215.000000,37722.000000,42880.000000,21778.000000
15217.000000,37782.000000,42874.000000,21765.000000
15235.000000,37766.000000,42885.000000,21781.000000
15247.000000,37829.000000,42909.000000,21770.000000
15270.000000,37851.000000,42942.000000,21789.000000
15337.000000,37868.000000,42930.000000,21766.000000
15339.000000,37936.000000,42990.000000,21802.000000
15399.000000,37942.000000,42969.000000,21813.000000
15430.000000,37994.000000,43029.000000,21855.000000
15509.000000,38048.000000,43049.000000,21863.000000
15494.000000,38132.000000,43055.000000,21847.000000
15572.000000,38103.000000,43113.000000,21867.000000
15630.000000,38200.000000,43102.000000,21890.000000
15662.000000,38239.000000,43163.000000,21946.000000
15739.000000,38285.000000,43190.000000,21914.000000
15746.000000,38324.000000,43222.000000,21928.000000
15818.000000,38378.000000,43240.000000,21956.000000
15867.000000,38460.000000,43299.000000,21962.000000
15925.000000,38491.000000,43301.000000,21979.000000
15960.000000,38573.000000,43360.000000,22001.000000
16010.000000,38614.000000,43383.000000,22033.000000
16104.000000,38683.000000,43422.000000,22038.000000
16144.000000,38730.000000,43434.000000,22056.000000
16224.000000,38807.000000,43502.000000,22078.000000
16286.000000,38872.000000,43557.000000,22089.000000
16378.000000,38959.000000,43577.000000,22104.000000
16410.000000,39045.000000,43648.000000,22117.000000
16503.000000,39152.000000,43686.000000,22162.000000
16604.000000,39238.000000,43730.000000,22195.000000
16708.000000,39303.000000,43803.000000,22230.000000
16791.000000,39459.000000,43860.000000,22268.000000
16884.000000,39599.000000,43961.000000,22324.000000
17086.000000,39750.000000,44060.000000,22352.000000
17170.000000,39911.000000,44147.000000,22387.000000
17271.000000,40030.000000,44202.000000,22426.000000
17357.000000,40169.000000,44256.000000,22435.000000
17447.000000,40237.000000,44340.000000,22479.000000
17468.000000,40308.000000,44357.000000,22506.000000
17512.000000,40323.000000,44407.000000,22514.000000
17514.000000,40359.000000,44389.000000,22516.000000
17546.000000,40375.000000,44430.000000,22520.000000
17537.000000,40401.000000,44397.000000,22533.000000
17535.000000,40409.000000,44396.000000,22525.000000
17539.000000,40366.000000,44410.000000,22534.000000
17503.000000,40379.000000,44396.000000,22539.000000
17493.000000,40341.000000,44391.000000,22518.000000
17500.000000,40351.000000,44400.000000,22548.000000
17499.000000,40290.000000,44375.000000,22529.000000
17498.000000,40268.000000,44350.000000,22512.000000
17432.000000,40276.000000,44375.000000,22499.000000
17441.000000,40231.000000,44352.000000,22487.000000
17426.000000,40268.000000,44347.000000,22491.000000
17426.000000,40213.000000,44321.000000,22521.000000
17390.000000,40220.000000,44292.000000,22497.000000
17368.000000,40182.000000,44327.000000,22476.000000
17412.000000,40165.000000,44281.000000,22461.000000
17352.000000,40143.000000,44307.000000,22460.000000
17348.000000,40131.000000,44288.000000,22496.000000
17350.000000,40158.000000,44279.000000,22466.000000
17294.000000,40120.000000,44282.000000,22465.000000
17341.000000,40114.000000,44258.000000,22463.000000
17307.000000,40106.000000,44302.000000,22436.000000
17322.000000,40098.000000,44269.000000,22429.000000
17248.000000,40110.000000,44240.000000,22450.000000
17281.000000,40051.000000,44217.000000,22455.000000
17270.000000,40071.000000,44239.000000,22434.000000
17247.000000,40015.000000,44238.000000,22427.000000
17239.000000,40027.000000,44228.000000,22409.000000
17206.000000,40022.000000,44182.000000,22416.000000
17224.000000,39976.000000,44171.000000,22437.000000
17194.000000,40001.000000,44177.000000,22414.000000
17189.000000,39965.000000,44190.000000,22398.000000
17183.000000,39961.000000,44181.000000,22394.000000
17122.000000,39950.000000,44167.000000,22410.000000
17141.000000,39895.000000,44155.000000,22391.000000
17095.000000,39906.000000,44143.000000,22393.000000
17101.000000,39885.000000,44144.000000,22365.000000
17083.000000,39853.000000,44124.000000,22363.000000
17049.000000,39834.000000,44128.000000,22381.000000
17068.000000,39801.000000,44101.000000,22387.000000
17046.000000,39817.000000,44108.000000,22363.000000
17029.000000,39749.000000,44067.000000,22332.000000
17024.000000,39769.000000,44047.000000,22357.000000
16979.000000,39729.000000,44043.000000,22345.000000
16977.000000,39693.000000,44020.000000,22364.000000
16955.000000,39709.000000,44031.000000,22320.000000
16950.000000,39661.000000,44015.000000,22349.000000
16942.000000,39683.000000,44018.000000,22318.000000
16929.000000,39658.000000,43996.000000,22303.000000
16912.000000,39622.000000,43997.000000,22333.000000
16902.000000,39636.000000,43962.000000,22326.000000
16892.000000,39583.000000,43982.000000,22317.000000
16855.000000,39575.000000,43941.000000,22296.000000
16821.000000,39552.000000,43981.000000,22305.000000
16823.000000,39559.000000,43924.000000,22281.000000
16792.000000,39504.000000,43934.000000,22267.000000
16785.000000,39500.000000,43912.000000,22284.000000
16737.000000,39445.000000,43899.000000,22266.000000
16723.000000,39434.000000,43863.000000,22247.000000
16697.000000,39411.000000,43884.000000,22242.000000
16715.000000,39395.000000,43856.000000,22241.000000
16655.000000,39365.000000,43859.000000,22224.000000
16661.000000,39332.000000,43838.000000,22223.000000
16625.000000,39355.000000,43800.000000,22204.000000
16589.000000,39260.000000,43812.000000,22213.000000
16606.000000,39277.000000,43789.000000,22212.000000
16545.000000,39253.000000,43763.000000,22208.000000
16529.000000,39226.000000,43751.000000,22196.000000
16517.000000,39152.000000,43716.000000,22192.000000
16495.000000,39192.000000,43721.000000,22158.000000
16467.000000,39106.000000,43731.000000,22156.000000
16471.000000,39111.000000,43679.000000,22153.000000
16441.000000,39103.000000,43693.000000,22152.000000
16437.000000,39083.000000,43667.000000,22184.000000
16402.000000,39089.000000,43660.000000,22152.000000
16400.000000,39029.000000,43658.000000,22158.000000
16395.000000,39022.000000,43651.000000,22127.000000
16344.000000,39016.000000,43637.000000,22122.000000
16357.000000,38967.000000,43637.000000,22132.000000
16328.000000,38985.000000,43619.000000,22145.000000
16309.000000,38959.000000,43584.000000,22118.000000
16311.000000,38933.000000,43601.000000,22104.000000
16292.000000,38920.000000,43594.000000,22122.000000
16255.000000,38885.000000,43578.000000,22075.000000
16263.000000,38828.000000,43542.000000,22093.000000
16187.000000,38858.000000,43541.000000,22090.000000
16201.000000,38796.000000,43517.000000,22067.000000
16147.000000,38767.000000,43513.000000,22041.000000
16144.000000,38752.000000,43515.000000,22058.000000
16117.000000,38783.000000,43468.000000,22075.000000
16086.000000,38694.000000,43486.000000,22047.000000
16126.000000,38691.000000,43476.000000,22021.000000
16093.000000,38630.000000,43466.000000,22050.000000
16053.000000,38657.000000,43440.000000,22041.000000
16045.000000,38652.000000,43457.000000,22032.000000
16026.000000,38609.000000,43412.000000,22024.000000
16000.000000,38596.000000,43413.000000,22040.000000
16016.000000,38590.000000,43383.000000,22023.000000
15995.000000,38589.000000,43378.000000,22012.000000
15952.000000,38574.000000,43362.000000,22008.000000
15941.000000,38579.000000,43381.000000,22006.000000
15963.000000,38524.000000,43369.000000,22015.000000
15951.000000,38528.000000,43342.000000,21997.000000
15920.000000,38494.000000,43344.000000,21991.000000
15910.000000,38504.000000,43362.000000,21994.000000
15880.000000,38465.000000,43350.000000,21987.000000
15891.000000,38478.000000,43329.000000,21965.000000
15874.000000,38417.000000,43348.000000,21962.000000
15881.000000,38439.000000,43307.000000,21939.000000
15832.000000,38407.000000,43335.000000,21952.000000
15873.000000,38404.000000,43251.000000,21957.000000
15803.000000,38388.000000,43293.000000,21927.000000
15799.000000,38360.000000,43268.000000,21938.000000
15802.000000,38368.000000,43249.000000,21934.000000
15770.000000,38341.000000,43240.000000,21953.000000
15757.000000,38361.000000,43232.000000,21937.000000
15760.000000,38312.000000,43217.000000,21930.000000
15738.000000,38311.000000,43213.000000,21907.000000
15718.000000,38306.000000,43212.000000,21902.000000
15728.000000,38279.000000,43205.000000,21912.000000
15675.000000,38249.000000,43206.000000,21908.000000
15713.000000,38221.000000,43151.000000,21910.000000
15672.000000,38253.000000,43190.000000,21903.000000
15681.000000,38205.000000,43170.000000,21884.000000
15653.000000,38169.000000,43160.000000,21886.000000
15644.000000,38153.000000,43162.000000,21877.000000
15604.000000,38149.000000,43168.000000,21863.000000
15566.000000,38110.000000,43135.000000,21874.000000
15573.000000,38123.000000,43104.000000,21827.000000
15527.000000,38063.000000,43101.000000,21844.000000
15546.000000,38056.000000,43101.000000,21830.000000
15516.000000,38059.000000,43071.000000,21819.000000
15504.000000,38018.000000,43073.000000,21834.000000
15477.000000,38022.000000,43059.000000,21799.000000
15471.000000,37973.000000,43063.000000,21835.000000
15453.000000,38004.000000,43051.000000,21821.000000
15461.000000,37976.000000,43059.000000,21812.000000
15463.000000,37976.000000,43041.000000,21807.000000
15452.000000,37954.000000,43049.000000,21827.000000
15455.000000,37967.000000,43054.000000,21804.000000
15485.000000,37973.000000,43044.000000,21818.000000
15490.000000,38013.000000,43032.000000,21829.000000
15542.000000,38029.000000,43082.000000,21832.000000
15505.000000,38002.000000,43068.000000,21805.000000
15553.000000,38033.000000,43061.000000,21796.000000
15549.000000,38090.000000,43102.000000,21833.000000
15603.000000,38093.000000,43093.000000,21842.000000
15612.000000,38116.000000,43104.000000,21836.000000
15613.000000,38143.000000,43113.000000,21848.000000
15643.000000,38216.000000,43167.000000,21829.000000
15681.000000,38194.000000,43203.000000,21858.000000
15724.000000,38236.000000,43196.000000,21853.000000
15728.000000,38289.000000,43217.000000,21887.000000
15787.000000,38314.000000,43224.000000,21890.000000
15834.000000,38355.000000,43272.000000,21915.000000
15906.000000,38384.000000,43288.000000,21911.000000
15893.000000,38467.000000,43334.000000,21918.000000
15947.000000,38496.000000,43311.000000,21946.000000
15993.000000,38558.000000,43388.000000,21961.000000
16023.000000,38554.000000,43386.000000,21976.000000
16065.000000,38616.000000,43444.000000,21985.000000
16130.000000,38666.000000,43441.000000,22004.000000
16177.000000,38729.000000,43483.000000,22020.000000
16219.000000,38757.000000,43525.000000,22051.000000
16306.000000,38834.000000,43537.000000,22052.000000
16295.000000,38843.000000,43574.000000,22050.000000
16398.000000,38897.000000,43572.000000,22071.000000
16402.000000,39007.000000,43632.000000,22102.000000
16497.000000,39024.000000,43647.000000,22130.000000
16503.000000,39112.000000,43686.000000,22115.000000
16628.000000,39153.000000,43712.000000,22148.000000
16656.000000,39244.000000,43766.000000,22154.000000
16733.000000,39313.000000,43834.000000,22197.000000
16816.000000,39414.000000,43853.000000,22199.000000
16884.000000,39479.000000,43914.000000,22230.000000
16990.000000,39596.000000,43971.000000,22245.000000
17070.000000,39700.000000,44055.000000,22305.000000
17216.000000,39848.000000,44101.000000,22344.000000
17358.000000,40009.000000,44220.000000,22403.000000
17486.000000,40170.000000,44291.000000,22424.000000
17600.000000,40310.000000,44400.000000,22472.000000
17660.000000,40408.000000,44448.000000,22488.000000
17731.000000,40483.000000,44519.000000,22500.000000
17756.000000,40563.000000,44575.000000,22549.000000
17870.000000,40589.000000,44579.000000,22591.000000
17880.000000,40684.000000,44614.000000,22581.000000
17858.000000,40678.000000,44608.000000,22573.000000
17887.000000,40685.000000,44607.000000,22585.000000
17869.000000,40697.000000,44633.000000,22574.000000
17878.000000,40690.000000,44613.000000,22560.000000
17832.000000,40670.000000,44631.000000,22581.000000
17836.000000,40664.000000,44600.000000,22584.000000
17838.000000,40631.000000,44611.000000,22581.000000
17829.000000,40613.000000,44590.000000,22575.000000
17796.000000,40625.000000,44572.000000,22550.000000
17838.000000,40615.000000,44564.000000,22557.000000
17820.000000,40571.000000,44546.000000,22521.000000
17767.000000,40569.000000,44549.000000,22547.000000
17760.000000,40551.000000,44566.000000,22541.000000
17727.000000,40523.000000,44542.000000,22535.000000
17760.000000,40517.000000,44491.000000,22531.000000
17718.000000,40501.000000,44494.000000,22558.000000
17735.000000,40489.000000,44514.000000,22532.000000
17710.000000,40472.000000,44479.000000,22521.000000
17672.000000,40483.000000,44493.000000,22511.000000
17706.000000,40424.000000,44472.000000,22553.000000
17650.000000,40461.000000,44460.000000,22514.000000
17670.000000,40432.000000,44460.000000,22504.000000
17645.000000,40407.000000,44450.000000,22525.000000
17638.000000,40382.000000,44455.000000,22503.000000
17607.000000,40418.000000,44421.000000,22483.000000
17604.000000,40360.000000,44448.000000,22489.000000
17632.000000,40339.000000,44423.000000,22484.000000
17567.000000,40326.000000,44459.000000,22489.000000
17593.000000,40328.000000,44452.000000,22471.000000
17542.000000,40308.000000,44409.000000,22470.000000
17554.000000,40293.000000,44401.000000,22468.000000
17545.000000,40290.000000,44364.000000,22460.000000
17492.000000,40268.000000,44383.000000,22471.000000
17497.000000,40246.000000,44353.000000,22453.000000
17481.000000,40232.000000,44376.000000,22455.000000
17484.000000,40219.000000,44350.000000,22462.000000
17438.000000,40240.000000,44321.000000,22430.000000
17434.000000,40209.000000,44343.000000,22428.000000
17427.000000,40204.000000,44357.000000,22411.000000
17420.000000,40174.000000,44313.000000,22430.000000
17407.000000,40168.000000,44302.000000,22410.000000
17370.000000,40126.000000,44302.000000,22405.000000
17368.000000,40125.000000,44284.000000,22443.000000
17322.000000,40106.000000,44286.000000,22410.000000
17313.000000,40029.000000,44236.000000,22406.000000
17310.000000,40095.000000,44246.000000,22386.000000
17294.000000,40040.000000,44219.000000,22388.000000
17284.000000,40024.000000,44211.000000,22374.000000
17231.000000,39976.000000,44230.000000,22375.000000
17241.000000,39962.000000,44201.000000,22359.000000
17212.000000,39923.000000,44182.000000,22355.000000
17201.000000,39901.000000,44177.000000,22325.000000
17226.000000,39907.000000,44170.000000,22351.000000
17170.000000,39853.000000,44154.000000,22374.000000
17167.000000,39869.000000,44117.000000,22341.000000
17153.000000,39839.000000,44149.000000,22326.000000
17128.000000,39831.000000,44112.000000,22323.000000
17088.000000,39843.000000,44089.000000,22346.000000
17091.000000,39780.000000,44101.000000,22338.000000
17079.000000,39790.000000,44095.000000,22309.000000
17066.000000,39762.000000,44095.000000,22315.000000
17057.000000,39730.000000,44078.000000,22314.000000
17035.000000,39717.000000,44060.000000,22303.000000
17002.000000,39677.000000,44044.000000,22292.000000
17011.000000,39676.000000,44000.000000,22291.000000
16989.000000,39669.000000,44054.000000,22302.000000
16991.000000,39670.000000,44013.000000,22305.000000
16960.000000,39636.000000,44001.000000,22269.000000
16918.000000,39595.000000,43986.000000,22278.000000
16930.000000,39592.000000,44011.000000,22255.000000
16890.000000,39546.000000,43989.000000,22275.000000
16870.000000,39528.000000,43953.000000,22263.000000
16868.000000,39530.000000,43929.000000,22239.000000
16843.000000,39496.000000,43916.000000,22245.000000
16813.000000,39465.000000,43925.000000,22238.000000
16782.000000,39433.000000,43909.000000,22246.000000
16774.000000,39425.000000,43887.000000,22206.000000
16771.000000,39412.000000,43893.000000,22206.000000
16731.000000,39395.000000,43841.000000,22192.000000
16717.000000,39389.000000,43822.000000,22197.000000
16705.000000,39335.000000,43848.000000,22209.000000
16671.000000,39314.000000,43823.000000,22203.000000
16648.000000,39312.000000,43808.000000,22186.000000
16671.000000,39256.000000,43788.000000,22186.000000
16635.000000,39257.000000,43767.000000,22150.000000
16580.000000,39234.000000,43797.000000,22170.000000
16599.000000,39207.000000,43787.000000,22185.000000
16568.000000,39198.000000,43762.000000,22159.000000
16569.000000,39209.000000,43753.000000,22159.000000
16541.000000,39215.000000,43722.000000,22118.000000
16514.000000,39139.000000,43741.000000,22142.000000
16510.000000,39142.000000,43710.000000,22139.000000
16470.000000,39092.000000,43725.000000,22116.000000
16476.000000,39102.000000,43681.000000,22124.000000
16439.000000,39103.000000,43697.000000,22112.000000
16453.000000,39070.000000,43659.000000,22120.000000
16434.000000,39070.000000,43642.000000,22112.000000
16401.000000,39015.000000,43627.000000,22090.000000
16428.000000,39016.000000,43652.000000,22106.000000
16386.000000,39007.000000,43630.000000,22090.000000
16389.000000,38984.000000,43644.000000,22104.000000
16377.000000,38982.000000,43623.000000,22071.000000
16345.000000,38930.000000,43623.000000,22082.000000
16332.000000,38950.000000,43612.000000,22081.000000
16292.000000,38929.000000,43598.000000,22078.000000
16319.000000,38929.000000,43575.000000,22054.000000
16280.000000,38889.000000,43596.000000,22036.000000
16294.000000,38880.000000,43558.000000,22063.000000
16263.000000,38887.000000,43542.000000,22047.000000
16235.000000,38855.000000,43548.000000,22028.000000
16254.000000,38849.000000,43526.000000,22033.000000
16233.000000,38835.000000,43528.000000,22038.000000
16200.000000,38819.000000,43517.000000,22048.000000
16190.000000,38824.000000,43521.000000,22028.000000
16188.000000,38767.000000,43500.000000,22014.000000
16175.000000,38777.000000,43518.000000,22029.000000
16144.000000,38732.000000,43503.000000,22025.000000
16155.000000,38783.000000,43481.000000,22011.000000
16097.000000,38725.000000,43483.000000,21986.000000
16087.000000,38699.000000,43454.000000,21970.000000
16099.000000,38695.000000,43478.000000,21999.000000
16062.000000,38659.000000,43449.000000,21993.000000
16038.000000,38660.000000,43428.000000,21994.000000
16046.000000,38620.000000,43422.000000,21973.000000
16027.000000,38630.000000,43406.000000,21973.000000
16018.000000,38585.000000,43420.000000,21968.000000
16002.000000,38570.000000,43365.000000,21936.000000
15973.000000,38551.000000,43379.000000,21925.000000
15978.000000,38530.000000,43353.000000,21938.000000
15926.000000,38519.000000,43330.000000,21928.000000
15966.000000,38504.000000,43323.000000,21915.000000
15908.000000,38490.000000,43330.000000,21921.000000
15925.000000,38437.000000,43330.000000,21929.000000
15928.000000,38454.000000,43302.000000,21923.000000
15910.000000,38465.000000,43316.000000,21907.000000
15899.000000,38474.000000,43293.000000,21903.000000
15895.000000,38446.000000,43316.000000,21914.000000
15955.000000,38446.000000,43322.000000,21919.000000
15903.000000,38486.000000,43347.000000,21929.000000
15951.000000,38501.000000,43340.000000,21933.000000
15958.000000,38529.000000,43340.000000,21916.000000
16021.000000,38494.000000,43346.000000,21930.000000
15996.000000,38548.000000,43381.000000,21918.000000
16018.000000,38559.000000,43387.000000,21954.000000
16017.000000,38597.000000,43363.000000,21947.000000
16054.000000,38606.000000,43399.000000,21964.000000
16097.000000,38665.000000,43408.000000,21962.000000
16100.000000,38690.000000,43462.000000,21961.000000
16133.000000,38686.000000,43435.000000,21978.000000
16154.000000,38710.000000,43443.000000,21970.000000
16205.000000,38737.000000,43490.000000,21973.000000
16220.000000,38777.000000,43531.000000,21983.000000
16262.000000,38798.000000,43531.000000,22031.000000
16274.000000,38883.000000,43543.000000,22004.000000
16344.000000,38825.000000,43538.000000,22041.000000
16347.000000,38885.000000,43577.000000,22034.000000
16371.000000,38975.000000,43591.000000,22071.000000
16413.000000,38974.000000,43611.000000,22070.000000
16452.000000,39010.000000,43631.000000,22075.000000
16495.000000,39090.000000,43678.000000,22081.000000
16525.000000,39119.000000,43714.000000,22099.000000
16582.000000,39194.000000,43756.000000,22127.000000
16642.000000,39206.000000,43781.000000,22141.000000
16710.000000,39278.000000,43787.000000,22173.000000
16755.000000,39335.000000,43826.000000,22180.000000
16807.000000,39412.000000,43845.000000,22199.000000
16880.000000,39517.000000,43916.000000,22207.000000
16973.000000,39564.000000,43950.000000,22261.000000
17090.000000,39696.000000,44014.000000,22288.000000
17148.000000,39787.000000,44122.000000,22310.000000
17302.000000,39919.000000,44179.000000,22346.000000
17415.000000,40113.000000,44304.000000,22391.000000
17539.000000,40235.000000,44354.000000,22435.000000
17672.000000,40423.000000,44398.000000,22485.000000
17788.000000,40514.000000,44492.000000,22529.000000
17803.000000,40629.000000,44555.000000,22517.000000
17855.000000,40658.000000,44610.000000,22538.000000
17925.000000,40717.000000,44617.000000,22539.000000
17928.000000,40746.000000,44671.000000,22576.000000
17957.000000,40788.000000,44646.000000,22572.000000
17951.000000,40790.000000,44658.000000,22589.000000
17951.000000,40781.000000,44656.000000,22587.000000
17964.000000,40783.000000,44671.000000,22565.000000
17948.000000,40760.000000,44660.000000,22589.000000
17926.000000,40768.000000,44659.000000,22544.000000
17887.000000,40811.000000,44674.000000,22571.000000
17939.000000,40740.000000,44641.000000,22594.000000
17894.000000,40740.000000,44651.000000,22578.000000
17892.000000,40718.000000,44608.000000,22590.000000
17878.000000,40708.000000,44645.000000,22578.000000
17877.000000,40657.000000,44604.000000,22554.000000
17876.000000,40676.000000,44611.000000,22529.000000
17843.000000,40639.000000,44615.000000,22552.000000
17841.000000,40644.000000,44580.000000,22543.000000
17811.000000,40609.000000,44580.000000,22518.000000
17773.000000,40610.000000,44589.000000,22543.000000
17764.000000,40606.000000,44550.000000,22532.000000
17773.000000,40581.000000,44528.000000,22547.000000
17735.000000,40556.000000,44564.000000,22505.000000
17749.000000,40554.000000,44520.000000,22515.000000
17681.000000,40564.000000,44519.000000,22521.000000
17712.000000,40462.000000,44490.000000,22513.000000
17679.000000,40524.000000,44503.000000,22499.000000
17672.000000,40488.000000,44497.000000,22525.000000
17671.000000,40469.000000,44464.000000,22497.000000
17646.000000,40418.000000,44496.000000,22477.000000
17665.000000,40418.000000,44439.000000,22484.000000
17607.000000,40385.000000,44440.000000,22477.000000
17634.000000,40374.000000,44430.000000,22490.000000
17575.000000,40370.000000,44447.000000,22458.000000
17582.000000,40333.000000,44422.000000,22481.000000
17522.000000,40351.000000,44400.000000,22475.000000
17564.000000,40308.000000,44406.000000,22454.000000
17539.000000,40321.000000,44388.000000,22447.000000
17551.000000,40299.000000,44383.000000,22467.000000
17524.000000,40292.000000,44378.000000,22447.000000
17514.000000,40253.000000,44396.000000,22459.000000
17499.000000,40241.000000,44357.000000,22442.000000
17460.000000,40254.000000,44361.000000,22425.000000
17489.000000,40229.000000,44369.000000,22421.000000
17394.000000,40194.000000,44356.000000,22406.000000
17443.000000,40169.000000,44317.000000,22427.000000
17414.000000,40179.000000,44324.000000,22423.000000
17403.000000,40119.000000,44310.000000,22409.000000
17404.000000,40144.000000,44294.000000,22396.000000
17354.000000,40110.000000,44281.000000,22407.000000
17331.000000,40090.000000,44252.000000,22399.000000
17279.000000,40061.000000,44267.000000,22397.000000
17312.000000,40073.000000,44240.000000,22380.000000
17271.000000,40045.000000,44228.000000,22358.000000
17263.000000,40005.000000,44222.000000,22357.000000
17240.000000,40014.000000,44164.000000,22376.000000
17217.000000,39953.000000,44176.000000,22355.000000
17236.000000,39953.000000,44146.000000,22349.000000
17162.000000,39897.000000,44170.000000,22342.000000
17183.000000,39907.000000,44154.000000,22316.000000
17140.000000,39854.000000,44144.000000,22340.000000
17147.000000,39838.000000,44124.000000,22320.000000
17130.000000,39843.000000,44118.000000,22344.000000
17116.000000,39811.000000,44103.000000,22329.000000
17080.000000,39793.000000,44096.000000,22317.000000
17075.000000,39765.000000,44082.000000,22310.000000
17057.000000,39756.000000,44087.000000,22291.000000
17062.000000,39770.000000,44087.000000,22323.000000
16995.000000,39742.000000,44041.000000,22297.000000
17012.000000,39695.000000,44014.000000,22276.000000
16949.000000,39695.000000,44032.000000,22298.000000
16959.000000,39630.000000,43990.000000,22283.000000
16944.000000,39664.000000,43991.000000,22273.000000
16891.000000,39628.000000,43981.000000,22273.000000
16921.000000,39610.000000,43962.000000,22280.000000
16873.000000,39540.000000,43938.000000,22252.000000
16858.000000,39546.000000,43945.000000,22232.000000
16810.000000,39528.000000,43935.000000,22241.000000
16832.000000,39489.000000,43911.000000,22246.000000
16778.000000,39446.000000,43918.000000,22210.000000
16803.000000,39443.000000,43899.000000,22237.000000
16748.000000,39438.000000,43899.000000,22224.000000
16761.000000,39405.000000,43853.000000,22203.000000
16734.000000,39396.000000,43870.000000,22203.000000
16717.000000,39375.000000,43795.000000,22191.000000
16696.000000,39332.000000,43827.000000,22185.000000
16646.000000,39318.000000,43828.000000,22180.000000
16675.000000,39308.000000,43814.000000,22154.000000
16622.000000,39264.000000,43790.000000,22172.000000
16635.000000,39235.000000,43778.000000,22148.000000
16589.000000,39236.000000,43756.000000,22149.000000
16576.000000,39199.000000,43733.000000,22142.000000
16514.000000,39159.000000,43741.000000,22138.000000
16525.000000,39137.000000,43706.000000,22125.000000
16464.000000,39118.000000,43708.000000,22123.000000
16486.000000,39122.000000,43709.000000,22142.000000
16456.000000,39141.000000,43685.000000,22089.000000
16450.000000,39067.000000,43685.000000,22106.000000
16412.000000,39078.000000,43652.000000,22113.000000
16421.000000,39022.000000,43639.000000,22108.000000
16386.000000,39010.000000,43616.000000,22070.000000
16329.000000,38974.000000,43612.000000,22076.000000
16352.000000,38972.000000,43618.000000,22045.000000
16300.000000,38952.000000,43605.000000,22039.000000
16300.000000,38904.000000,43566.000000,22048.000000
16274.000000,38895.000000,43555.000000,22057.000000
16290.000000,38850.000000,43555.000000,22046.000000
16234.000000,38883.000000,43561.000000,22028.000000
16206.000000,38850.000000,43529.000000,22042.000000
16221.000000,38822.000000,43487.000000,22037.000000
16236.000000,38819.000000,43517.000000,22007.000000
16178.000000,38808.000000,43491.000000,22018.000000
16181.000000,38785.000000,43476.000000,22006.000000
16143.000000,38774.000000,43505.000000,22020.000000
16172.000000,38710.000000,43501.000000,21999.000000
16128.000000,38727.000000,43462.000000,22004.000000
16083.000000,38676.000000,43453.000000,21996.000000
16093.000000,38684.000000,43451.000000,22002.000000
16079.000000,38683.000000,43445.000000,21991.000000
16070.000000,38637.000000,43458.000000,22005.000000
16057.000000,38665.000000,43417.000000,21979.000000
16056.000000,38610.000000,43407.000000,21963.000000
16027.000000,38624.000000,43418.000000,21961.000000
16055.000000,38593.000000,43385.000000,21974.000000
15990.000000,38592.000000,43380.000000,21948.000000
15972.000000,38562.000000,43378.000000,21953.000000
15960.000000,38558.000000,43355.000000,21936.000000
15964.000000,38529.000000,43332.000000,21955.000000
15942.000000,38520.000000,43312.000000,21947.000000
15916.000000,38471.000000,43320.000000,21951.000000
15885.000000,38491.000000,43300.000000,21923.000000
15873.000000,38458.000000,43289.000000,21954.000000
15882.000000,38418.000000,43294.000000,21911.000000
15832.000000,38423.000000,43277.000000,21882.000000
15829.000000,38404.000000,43267.000000,21879.000000
15781.000000,38360.000000,43234.000000,21878.000000
15814.000000,38316.000000,43220.000000,21891.000000
15750.000000,38318.000000,43254.000000,21891.000000
15776.000000,38317.000000,43206.000000,21881.000000
15726.000000,38296.000000,43232.000000,21864.000000
15755.000000,38311.000000,43189.000000,21875.000000
15715.000000,38273.000000,43222.000000,21873.000000
15752.000000,38263.000000,43194.000000,21863.000000
15730.000000,38301.000000,43193.000000,21860.000000
15742.000000,38251.000000,43197.000000,21883.000000
15736.000000,38311.000000,43196.000000,21858.000000
15745.000000,38292.000000,43212.000000,21877.000000
15767.000000,38339.000000,43201.000000,21863.000000
15822.000000,38361.000000,43247.000000,21852.000000
15818.000000,38328.000000,43240.000000,21872.000000
15787.000000,38327.000000,43244.000000,21884.000000
15844.000000,38373.000000,43240.000000,21891.000000
15853.000000,38424.000000,43264.000000,21913.000000
15890.000000,38434.000000,43284.000000,21911.000000
15893.000000,38449.000000,43311.000000,21914.000000
15949.000000,38483.000000,43303.000000,21910.000000
15950.000000,38517.000000,43343.000000,21918.000000
15999.000000,38529.000000,43344.000000,21944.000000
16034.000000,38612.000000,43357.000000,21959.000000
16053.000000,38634.000000,43368.000000,21973.000000
16088.000000,38661.000000,43384.000000,21934.000000
16127.000000,38687.000000,43446.000000,21970.000000
16176.000000,38740.000000,43435.000000,21989.000000
16258.000000,38763.000000,43450.000000,22018.000000
16235.000000,38827.000000,43509.000000,21998.000000
16269.000000,38787.000000,43525.000000,22010.000000
16305.000000,38877.000000,43545.000000,22034.000000
16372.000000,38929.000000,43577.000000,22052.000000
16403.000000,38989.000000,43602.000000,22102.000000
16447.000000,38981.000000,43656.000000,22079.000000
16499.000000,39099.000000,43671.000000,22099.000000
16536.000000,39125.000000,43704.000000,22106.000000
16628.000000,39184.000000,43693.000000,22102.000000
16653.000000,39235.000000,43770.000000,22135.000000
16731.000000,39321.000000,43818.000000,22163.000000
16792.000000,39404.000000,43868.000000,22194.000000
16862.000000,39511.000000,43917.000000,22219.000000
16926.000000,39577.000000,43934.000000,22214.000000
17041.000000,39639.000000,44006.000000,22267.000000
17149.000000,39799.000000,44109.000000,22300.000000
17268.000000,39935.000000,44169.000000,22325.000000
17448.000000,40161.000000,44277.000000,22374.000000
17544.000000,40262.000000,44352.000000,22409.000000
17671.000000,40395.000000,44412.000000,22469.000000
17769.000000,40487.000000,44521.000000,22494.000000
17821.000000,40594.000000,44524.000000,22526.000000
17870.000000,40667.000000,44587.000000,22526.000000
17933.000000,40716.000000,44620.000000,22539.000000
17905.000000,40780.000000,44646.000000,22569.000000
17945.000000,40771.000000,44654.000000,22577.000000
17958.000000,40813.000000,44645.000000,22600.000000
17956.000000,40772.000000,44651.000000,22578.000000
17938.000000,40801.000000,44628.000000,22580.000000
17937.000000,40765.000000,44648.000000,22599.000000
17928.000000,40785.000000,44640.000000,22577.000000
17882.000000,40750.000000,44649.000000,22583.000000
17903.000000,40731.000000,44621.000000,22561.000000
17868.000000,40730.000000,44648.000000,22546.000000
17872.000000,40695.000000,44604.000000,22564.000000
17846.000000,40683.000000,44595.000000,22563.000000
17859.000000,40664.000000,44592.000000,22554.000000
17813.000000,40685.000000,44566.000000,22561.000000
17820.000000,40630.000000,44575.000000,22542.000000
17822.000000,40636.000000,44561.000000,22534.000000
17773.000000,40581.000000,44561.000000,22520.000000
17789.000000,40601.000000,44542.000000,22536.000000
17760.000000,40573.000000,44544.000000,22514.000000
17742.000000,40573.000000,44531.000000,22518.000000
17746.000000,40545.000000,44531.000000,22533.000000
17778.000000,40536.000000,44509.000000,22528.000000
17721.000000,40531.000000,44473.000000,22508.000000
17726.000000,40509.000000,44531.000000,22509.000000
17714.000000,40520.000000,44515.000000,22501.000000
17695.000000,40503.000000,44496.000000,22492.000000
17702.000000,40455.000000,44483.000000,22516.000000
17635.000000,40471.000000,44475.000000,22462.000000
17639.000000,40470.000000,44425.000000,22500.000000
17619.000000,40454.000000,44458.000000,22487.000000
17635.000000,40442.000000,44442.000000,22478.000000
17634.000000,40400.000000,44425.000000,22476.000000
17569.000000,40404.000000,44440.000000,22478.000000
17608.000000,40350.000000,44393.000000,22466.000000
17574.000000,40373.000000,44415.000000,22478.000000
17548.000000,40329.000000,44411.000000,22434.000000
17546.000000,40339.000000,44379.000000,22448.000000
17517.000000,40287.000000,44408.000000,22464.000000
17492.000000,40279.000000,44368.000000,22438.000000
17472.000000,40285.000000,44379.000000,22444.000000
17505.000000,40251.000000,44337.000000,22445.000000
17449.000000,40276.000000,44318.000000,22409.000000
17406.000000,40222.000000,44343.000000,22429.000000
17439.000000,40201.000000,44335.000000,22403.000000
17391.000000,40147.000000,44316.000000,22428.000000
17390.000000,40164.000000,44282.000000,22402.000000
17369.000000,40136.000000,44274.000000,22404.000000
17388.000000,40103.000000,44250.000000,22404.000000
17356.000000,40114.000000,44258.000000,22398.000000
17332.000000,40112.000000,44260.000000,22377.000000
17310.000000,40060.000000,44247.000000,22373.000000
17281.000000,40056.000000,44265.000000,22358.000000
17285.000000,40035.000000,44237.000000,22383.000000
17224.000000,40027.000000,44196.000000,22367.000000
17280.000000,40023.000000,44196.000000,22350.000000
17231.000000,40034.000000,44182.000000,22349.000000
17190.000000,39975.000000,44193.000000,22353.000000
17222.000000,39929.000000,44150.000000,22329.000000
17163.000000,39940.000000,44164.000000,22352.000000
17176.000000,39898.000000,44131.000000,22335.000000
17131.000000,39868.000000,44141.000000,22344.000000
17100.000000,39840.000000,44123.000000,22351.000000
17118.000000,39868.000000,44093.000000,22301.000000
17058.000000,39834.000000,44106.000000,22299.000000
17100.000000,39843.000000,44078.000000,22294.000000
17069.000000,39780.000000,44082.000000,22317.000000
17063.000000,39759.000000,44067.000000,22283.000000
16997.000000,39761.000000,44038.000000,22273.000000
16988.000000,39724.000000,44061.000000,22281.000000
16956.000000,39718.000000,44013.000000,22269.000000
16969.000000,39678.000000,44023.000000,22284.000000
16985.000000,39663.000000,44022.000000,22261.000000
16902.000000,39599.000000,44008.000000,22256.000000
16906.000000,39598.000000,43981.000000,22233.000000
16883.000000,39551.000000,43963.000000,22222.000000
16874.000000,39583.000000,43935.000000,22217.000000
16857.000000,39542.000000,43909.000000,22225.000000
16840.000000,39498.000000,43919.000000,22231.000000
16826.000000,39502.000000,43909.000000,22201.000000
16767.000000,39460.000000,43892.000000,22189.000000
16754.000000,39441.000000,43874.000000,22211.000000
16728.000000,39404.000000,43857.000000,22184.000000
16712.000000,39365.000000,43834.000000,22189.000000
16705.000000,39391.000000,43819.000000,22152.000000
16663.000000,39351.000000,43822.000000,22188.000000
16667.000000,39351.000000,43797.000000,22149.000000
16620.000000,39286.000000,43804.000000,22161.000000
16615.000000,39284.000000,43790.000000,22150.000000
16599.000000,39220.000000,43802.000000,22141.000000
16564.000000,39243.000000,43730.000000,22144.000000
16538.000000,39189.000000,43738.000000,22134.000000
16520.000000,39164.000000,43725.000000,22138.000000
16496.000000,39188.000000,43698.000000,22117.000000
16473.000000,39123.000000,43693.000000,22092.000000
16471.000000,39118.000000,43665.000000,22113.000000
16413.000000,39097.000000,43660.000000,22126.000000
16449.000000,39071.000000,43645.000000,22075.000000
16424.000000,39022.000000,43642.000000,22096.000000
16382.000000,39031.000000,43632.000000,22085.000000
16374.000000,38984.000000,43619.000000,22069.000000
16347.000000,38997.000000,43590.000000,22071.000000
16326.000000,38988.000000,43599.000000,22051.000000
16346.000000,38923.000000,43587.000000,22039.000000
16326.000000,38928.000000,43580.000000,22061.000000
16301.000000,38900.000000,43584.000000,22048.000000
16280.000000,38915.000000,43550.000000,22032.000000
16218.000000,38830.000000,43569.000000,22019.000000
16239.000000,38860.000000,43521.000000,22059.000000
16231.000000,38850.000000,43548.000000,22016.000000
16243.000000,38853.000000,43500.000000,22043.000000
16214.000000,38856.000000,43522.000000,22018.000000
16193.000000,38798.000000,43498.000000,22019.000000
16195.000000,38805.000000,43482.000000,22015.000000
16174.000000,38770.000000,43496.000000,22029.000000
16140.000000,38785.000000,43472.000000,21978.000000
16148.000000,38753.000000,43458.000000,21980.000000
16131.000000,38781.000000,43440.000000,21999.000000
16102.000000,38711.000000,43458.000000,21999.000000
16119.000000,38704.000000,43465.000000,21965.000000
16081.000000,38708.000000,43471.000000,21971.000000
16060.000000,38698.000000,43416.000000,22004.000000
16028.000000,38663.000000,43405.000000,21962.000000
16066.000000,38630.000000,43404.000000,21965.000000
16005.000000,38605.000000,43371.000000,21952.000000
16019.000000,38582.000000,43377.000000,21929.000000
16002.000000,38593.000000,43383.000000,21940.000000
15969.000000,38556.000000,43338.000000,21936.000000
15918.000000,38532.000000,43319.000000,21915.000000
15928.000000,38507.000000,43339.000000,21941.000000
15932.000000,38483.000000,43292.000000,21948.000000
15866.000000,38450.000000,43317.000000,21915.000000
15869.000000,38463.000000,43294.000000,21872.000000
15834.000000,38401.000000,43324.000000,21891.000000
15824.000000,38414.000000,43256.000000,21885.000000
15836.000000,38397.000000,43253.000000,21871.000000
15794.000000,38386.000000,43191.000000,21882.000000
15806.000000,38354.000000,43245.000000,21875.000000
15733.000000,38384.000000,43229.000000,21884.000000
15779.000000,38338.000000,43250.000000,21851.000000
15758.000000,38313.000000,43222.000000,21853.000000
15767.000000,38323.000000,43214.000000,21857.000000
15741.000000,38314.000000,43206.000000,21855.000000
15783.000000,38345.000000,43205.000000,21875.000000
15791.000000,38393.000000,43239.000000,21869.000000
15802.000000,38362.000000,43223.000000,21898.000000
15790.000000,38408.000000,43274.000000,21869.000000
15810.000000,38378.000000,43264.000000,21858.000000
15862.000000,38419.000000,43261.000000,21883.000000
15878.000000,38405.000000,43280.000000,21890.000000
15931.000000,38451.000000,43288.000000,21890.000000
15937.000000,38477.000000,43290.000000,21910.000000
15958.000000,38514.000000,43329.000000,21916.000000
15990.000000,38567.000000,43333.000000,21940.000000
16014.000000,38562.000000,43340.000000,21925.000000
16051.000000,38613.000000,43391.000000,21932.000000
16100.000000,38640.000000,43403.000000,21949.000000
16101.000000,38682.000000,43410.000000,21950.000000
16160.000000,38696.000000,43438.000000,21973.000000
16185.000000,38728.000000,43477.000000,21980.000000
16176.000000,38764.000000,43515.000000,22005.000000
16239.000000,38829.000000,43496.000000,21987.000000
16294.000000,38881.000000,43518.000000,22002.000000
16326.000000,38870.000000,43552.000000,22038.000000
16336.000000,38960.000000,43608.000000,22030.000000
16391.000000,38948.000000,43585.000000,22043.000000
16421.000000,39044.000000,43609.000000,22065.000000
16452.000000,39048.000000,43654.000000,22070.000000
16514.000000,39093.000000,43669.000000,22086.000000
16561.000000,39141.000000,43703.000000,22087.000000
16631.000000,39200.000000,43728.000000,22124.000000
16657.000000,39278.000000,43743.000000,22109.000000
16685.000000,39329.000000,43829.000000,22150.000000
16768.000000,39386.000000,43822.000000,22182.000000
16831.000000,39445.000000,43849.000000,22218.000000
16935.000000,39532.000000,43918.000000,22202.000000
16985.000000,39659.000000,44004.000000,22224.000000
17121.000000,39769.000000,44056.000000,22283.000000
17221.000000,39903.000000,44131.000000,22292.000000
17396.000000,40064.000000,44221.000000,22360.000000
17506.000000,40238.000000,44318.000000,22405.000000
17650.000000,40390.000000,44408.000000,22447.000000
17747.000000,40537.000000,44498.000000,22517.000000
17837.000000,40612.000000,44567.000000,22502.000000
17926.000000,40694.000000,44590.000000,22535.000000
17940.000000,40797.000000,44639.000000,22546.000000
17980.000000,40815.000000,44674.000000,22579.000000
18002.000000,40885.000000,44695.000000,22556.000000
18016.000000,40866.000000,44703.000000,22587.000000
18018.000000,40847.000000,44705.000000,22578.000000
18003.000000,40869.000000,44722.000000,22579.000000
18001.000000,40869.000000,44703.000000,22590.000000
17984.000000,40869.000000,44690.000000,22610.000000
18009.000000,40833.000000,44689.000000,22587.000000
17973.000000,40859.000000,44676.000000,22592.000000
17939.000000,40845.000000,44704.000000,22568.000000
17964.000000,40826.000000,44679.000000,22563.000000
17921.000000,40786.000000,44639.000000,22576.000000
17927.000000,40791.000000,44676.000000,22592.000000
17904.000000,40752.000000,44668.000000,22562.000000
17923.000000,40739.000000,44621.000000,22565.000000
17892.000000,40729.000000,44629.000000,22556.000000
17878.000000,40703.000000,44611.000000,22544.000000
17853.000000,40702.000000,44595.000000,22557.000000
17841.000000,40695.000000,44610.000000,22571.000000
17835.000000,40679.000000,44575.000000,22556.000000
17825.000000,40640.000000,44580.000000,22535.000000
17835.000000,40650.000000,44575.000000,22544.000000
17800.000000,40651.000000,44594.000000,22521.000000
17823.000000,40619.000000,44571.000000,22524.000000
17800.000000,40589.000000,44570.000000,22523.000000
17783.000000,40572.000000,44550.000000,22534.000000
17756.000000,40609.000000,44539.000000,22504.000000
17742.000000,40538.000000,44513.000000,22506.000000
17750.000000,40564.000000,44525.000000,22521.000000
17686.000000,40505.000000,44513.000000,22489.000000
17703.000000,40503.000000,44490.000000,22506.000000
17663.000000,40507.000000,44489.000000,22486.000000
17705.000000,40486.000000,44469.000000,22504.000000
17660.000000,40498.000000,44464.000000,22459.000000
17637.000000,40442.000000,44441.000000,22487.000000
17638.000000,40433.000000,44428.000000,22469.000000
17638.000000,40380.000000,44440.000000,22480.000000
17626.000000,40395.000000,44416.000000,22468.000000
17570.000000,40353.000000,44416.000000,22470.000000
17598.000000,40356.000000,44391.000000,22439.000000
17540.000000,40352.000000,44421.000000,22452.000000
17518.000000,40324.000000,44382.000000,22463.000000
17538.000000,40300.000000,44382.000000,22427.000000
17486.000000,40268.000000,44362.000000,22453.000000
17458.000000,40271.000000,44350.000000,22404.000000
17432.000000,40219.000000,44354.000000,22414.000000
17450.000000,40238.000000,44326.000000,22392.000000
17397.000000,40186.000000,44312.000000,22432.000000
17448.000000,40171.000000,44313.000000,22396.000000
17374.000000,40177.000000,44322.000000,22385.000000
17359.000000,40104.000000,44286.000000,22412.000000
17346.000000,40167.000000,44296.000000,22394.000000
17348.000000,40109.000000,44283.000000,22376.000000
17324.000000,40109.000000,44230.000000,22346.000000
17315.000000,40081.000000,44240.000000,22358.000000
17282.000000,40051.000000,44220.000000,22361.000000
17274.000000,40022.000000,44228.000000,22343.000000
17292.000000,40012.000000,44178.000000,22374.000000
17211.000000,39995.000000,44170.000000,22345.000000
17237.000000,39968.000000,44181.000000,22318.000000
17184.000000,39949.000000,44148.000000,22345.000000
17202.000000,39915.000000,44136.000000,22326.000000
17120.000000,39853.000000,44133.000000,22310.000000
17143.000000,39837.000000,44110.000000,22323.000000
17069.000000,39803.000000,44112.000000,22306.000000
17078.000000,39802.000000,44083.000000,22328.000000
17060.000000,39794.000000,44068.000000,22305.000000
17039.000000,39736.000000,44028.000000,22257.000000
17047.000000,39725.000000,44036.000000,22278.000000
16988.000000,39692.000000,44044.000000,22245.000000
16975.000000,39701.000000,43985.000000,22271.000000
16963.000000,39655.000000,43983.000000,22250.000000
16955.000000,39625.000000,43980.000000,22262.000000
16902.000000,39589.000000,43967.000000,22216.000000
16876.000000,39573.000000,43977.000000,22228.000000
16884.000000,39568.000000,43939.000000,22226.000000
16840.000000,39535.000000,43934.000000,22230.000000
16856.000000,39509.000000,43897.000000,22217.000000
16820.000000,39491.000000,43905.000000,22217.000000
16770.000000,39475.000000,43909.000000,22221.000000
16778.000000,39457.000000,43889.000000,22190.000000
16761.000000,39412.000000,43892.000000,22199.000000
16742.000000,39355.000000,43852.000000,22185.000000
16695.000000,39377.000000,43862.000000,22187.000000
16693.000000,39339.000000,43832.000000,22190.000000
16706.000000,39340.000000,43793.000000,22168.000000
16664.000000,39289.000000,43803.000000,22168.000000
16624.000000,39278.000000,43797.000000,22152.000000
16609.000000,39246.000000,43753.000000,22164.000000
16591.000000,39231.000000,43762.000000,22142.000000
16570.000000,39231.000000,43745.000000,22132.000000
16560.000000,39178.000000,43747.000000,22125.000000
16492.000000,39191.000000,43721.000000,22097.000000
16484.000000,39158.000000,43697.000000,22105.000000
16465.000000,39109.000000,43672.000000,22095.000000
16454.000000,39077.000000,43661.000000,22072.000000
16453.000000,39058.000000,43652.000000,22087.000000
16408.000000,39015.000000,43665.000000,22083.000000
16424.000000,39019.000000,43626.000000,22076.000000
16374.000000,38993.000000,43631.000000,22079.000000
16389.000000,38971.000000,43577.000000,22071.000000
16330.000000,38975.000000,43584.000000,22068.000000
16311.000000,38903.000000,43576.000000,22043.000000
16328.000000,38945.000000,43569.000000,22059.000000
16298.000000,38902.000000,43575.000000,22047.000000
16322.000000,38872.000000,43558.000000,22024.000000
16249.000000,38892.000000,43538.000000,22041.000000
16242.000000,38868.000000,43537.000000,22028.000000
16226.000000,38837.000000,43502.000000,22023.000000
16211.000000,38810.000000,43499.000000,22049.000000
16217.000000,38844.000000,43502.000000,22011.000000
16214.000000,38776.000000,43496.000000,22014.000000
16162.000000,38773.000000,43483.000000,22010.000000
16158.000000,38746.000000,43480.000000,22001.000000
16195.000000,38716.000000,43463.000000,21992.000000
16125.000000,38710.000000,43456.000000,21993.000000
16176.000000,38715.000000,43450.000000,21993.000000
16123.000000,38691.000000,43445.000000,21988.000000
16110.000000,38705.000000,43427.000000,22000.000000
16103.000000,38668.000000,43408.000000,21962.000000
16070.000000,38640.000000,43428.000000,21980.000000
16056.000000,38638.000000,43405.000000,21962.000000
16025.000000,38607.000000,43409.000000,21973.000000
16040.000000,38606.000000,43370.000000,21935.000000
15980.000000,38600.000000,43371.000000,21941.000000
16020.000000,38560.000000,43368.000000,21936.000000
15962.000000,38589.000000,43344.000000,21936.000000
15972.000000,38524.000000,43333.000000,21929.000000
15960.000000,38495.000000,43328.000000,21909.000000
15913.000000,38499.000000,43367.000000,21909.000000
15952.000000,38509.000000,43303.000000,21919.000000
15923.000000,38510.000000,43299.000000,21916.000000
15917.000000,38447.000000,43275.000000,21900.000000
15871.000000,38455.000000,43307.000000,21906.000000
15873.000000,38391.000000,43283.000000,21903.000000
15832.000000,38424.000000,43254.000000,21909.000000
15861.000000,38395.000000,43293.000000,21898.000000
15856.000000,38410.000000,43255.000000,21857.000000
15845.000000,38406.000000,43274.000000,21907.000000
15860.000000,38409.000000,43252.000000,21872.000000
15828.000000,38412.000000,43271.000000,21884.000000
15874.000000,38443.000000,43283.000000,21891.000000
15883.000000,38408.000000,43289.000000,21905.000000
15932.000000,38428.000000,43301.000000,21896.000000
15909.000000,38461.000000,43297.000000,21897.000000
15959.000000,38454.000000,43316.000000,21906.000000
15951.000000,38515.000000,43325.000000,21897.000000
16010.000000,38532.000000,43332.000000,21939.000000
15986.000000,38570.000000,43342.000000,21914.000000
16026.000000,38565.000000,43389.000000,21944.000000
16057.000000,38633.000000,43388.000000,21944.000000
16086.000000,38615.000000,43401.000000,21955.000000
16139.000000,38666.000000,43418.000000,21966.000000
16139.000000,38706.000000,43471.000000,21976.000000
16184.000000,38705.000000,43468.000000,21973.000000
16200.000000,38751.000000,43476.000000,21995.000000
16274.000000,38772.000000,43504.000000,21979.000000
16276.000000,38839.000000,43500.000000,22014.000000
16326.000000,38881.000000,43517.000000,22047.000000
16350.000000,38943.000000,43573.000000,22044.000000
16416.000000,38931.000000,43583.000000,22041.000000
16476.000000,39006.000000,43615.000000,22047.000000
16469.000000,39024.000000,43624.000000,22078.000000
16518.000000,39080.000000,43669.000000,22073.000000
16510.000000,39120.000000,43687.000000,22076.000000
16612.000000,39154.000000,43694.000000,22104.000000
16617.000000,39224.000000,43765.000000,22130.000000
16687.000000,39257.000000,43784.000000,22118.000000
16730.000000,39331.000000,43812.000000,22134.000000
16799.000000,39370.000000,43860.000000,22186.000000
16821.000000,39439.000000,43860.000000,22181.000000
16883.000000,39499.000000,43921.000000,22182.000000
16962.000000,39584.000000,43933.000000,22211.000000
17050.000000,39661.000000,44005.000000,22233.000000
17117.000000,39774.000000,44061.000000,22259.000000
17218.000000,39861.000000,44119.000000,22301.000000
17360.000000,40005.000000,44180.000000,22330.000000
17478.000000,40200.000000,44289.000000,22364.000000
17646.000000,40336.000000,44399.000000,22429.000000
17763.000000,40522.000000,44515.000000,22484.000000
17925.000000,40660.000000,44571.000000,22534.000000
17999.000000,40794.000000,44663.000000,22570.000000
18078.000000,40895.000000,44744.000000,22579.000000
18156.000000,40979.000000,44768.000000,22631.000000
18138.000000,41025.000000,44788.000000,22600.000000
18243.000000,41049.000000,44799.000000,22636.000000
18217.000000,41077.000000,44823.000000,22647.000000
18254.000000,41093.000000,44819.000000,22645.000000
18264.000000,41116.000000,44839.000000,22657.000000
18248.000000,41085.000000,44846.000000,22678.000000
18244.000000,41140.000000,44843.000000,22681.000000
18260.000000,41087.000000,44832.000000,22646.000000
18267.000000,41098.000000,44833.000000,22657.000000
18230.000000,41099.000000,44851.000000,22651.000000
18214.000000,41094.000000,44802.000000,22671.000000
18172.000000,41056.000000,44844.000000,22643.000000
18207.000000,41088.000000,44823.000000,22646.000000
18193.000000,41042.000000,44832.000000,22648.000000
18189.000000,41022.000000,44806.000000,22650.000000
18154.000000,41040.000000,44810.000000,22641.000000
18203.000000,41026.000000,44795.000000,22655.000000
18132.000000,41024.000000,44777.000000,22635.000000
18135.000000,41003.000000,44787.000000,22623.000000
18152.000000,41015.000000,44765.000000,22616.000000
18104.000000,41017.000000,44787.000000,22624.000000
18106.000000,40945.000000,44757.000000,22612.000000
18120.000000,40992.000000,44784.000000,22613.000000
18086.000000,40961.000000,44784.000000,22620.000000
18076.000000,40962.000000,44735.000000,22610.000000
18067.000000,40924.000000,44740.000000,22622.000000
18110.000000,40934.000000,44736.000000,22585.000000
18113.000000,40923.000000,44732.000000,22613.000000
18072.000000,40904.000000,44713.000000,22622.000000
18053.000000,40855.000000,44737.000000,22604.000000
18057.000000,40894.000000,44729.000000,22588.000000
18053.000000,40880.000000,44707.000000,22599.000000
18055.000000,40845.000000,44685.000000,22592.000000
18017.000000,40854.000000,44705.000000,22595.000000
18010.000000,40826.000000,44693.000000,22571.000000
17983.000000,40833.000000,44696.000000,22569.000000
17992.000000,40813.000000,44670.000000,22575.000000
17969.000000,40804.000000,44658.000000,22569.000000
17970.000000,40806.000000,44673.000000,22590.000000
17990.000000,40769.000000,44655.000000,22563.000000
17944.000000,40756.000000,44649.000000,22565.000000
17941.000000,40752.000000,44620.000000,22557.000000
17885.000000,40763.000000,44629.000000,22554.000000
17911.000000,40700.000000,44614.000000,22546.000000
17889.000000,40720.000000,44615.000000,22534.000000
17856.000000,40713.000000,44595.000000,22551.000000
17885.000000,40696.000000,44602.000000,22519.000000
17843.000000,40666.000000,44588.000000,22523.000000
17853.000000,40635.000000,44555.000000,22498.000000
17828.000000,40605.000000,44598.000000,22534.000000
17806.000000,40595.000000,44544.000000,22546.000000
17755.000000,40614.000000,44528.000000,22505.000000
17774.000000,40584.000000,44556.000000,22519.000000
17772.000000,40584.000000,44509.000000,22523.000000
17761.000000,40552.000000,44512.000000,22501.000000
17743.000000,40538.000000,44491.000000,22489.000000
17737.000000,40540.000000,44483.000000,22488.000000
17732.000000,40531.000000,44498.000000,22491.000000
17707.000000,40490.000000,44506.000000,22481.000000
17703.000000,40499.000000,44470.000000,22467.000000
17675.000000,40469.000000,44492.000000,22477.000000
17662.000000,40451.000000,44475.000000,22492.000000
17649.000000,40467.000000,44414.000000,22463.000000
17616.000000,40406.000000,44453.000000,22495.000000
17636.000000,40433.000000,44433.000000,22451.000000
17586.000000,40364.000000,44397.000000,22472.000000
17569.000000,40413.000000,44406.000000,22483.000000
17574.000000,40350.000000,44416.000000,22445.000000
17566.000000,40331.000000,44387.000000,22449.000000
17535.000000,40317.000000,44388.000000,22430.000000
17526.000000,40267.000000,44369.000000,22433.000000
17477.000000,40308.000000,44359.000000,22419.000000
17507.000000,40241.000000,44322.000000,22426.000000
17461.000000,40216.000000,44313.000000,22413.000000
17421.000000,40204.000000,44321.000000,22391.000000
17436.000000,40188.000000,44302.000000,22397.000000
17421.000000,40167.000000,44310.000000,22378.000000
17401.000000,40166.000000,44268.000000,22400.000000
17363.000000,40096.000000,44264.000000,22371.000000
17342.000000,40110.000000,44230.000000,22364.000000
17327.000000,40101.000000,44227.000000,22371.000000
17307.000000,40048.000000,44233.000000,22387.000000
17330.000000,40047.000000,44207.000000,22361.000000
17302.000000,40003.000000,44199.000000,22342.000000
17264.000000,39992.000000,44173.000000,22349.000000
17240.000000,39978.000000,44175.000000,22345.000000
17200.000000,39954.000000,44160.000000,22333.000000
17201.000000,39937.000000,44173.000000,22330.000000
17177.000000,39879.000000,44147.000000,22308.000000
17159.000000,39883.000000,44104.000000,22281.000000
17145.000000,39859.000000,44095.000000,22311.000000
17129.000000,39817.000000,44102.000000,22317.000000
17113.000000,39780.000000,44095.000000,22281.000000
17082.000000,39787.000000,44076.000000,22282.000000
17046.000000,39793.000000,44037.000000,22299.000000
17057.000000,39740.000000,44076.000000,22291.000000
17049.000000,39737.000000,44027.000000,22279.000000
17021.000000,39712.000000,44021.000000,22275.000000
17002.000000,39703.000000,44013.000000,22263.000000
16988.000000,39682.000000,44009.000000,22288.000000
16943.000000,39643.000000,44004.000000,22290.000000
16985.000000,39621.000000,43953.000000,22242.000000
16945.000000,39606.000000,43956.000000,22229.000000
16949.000000,39588.000000,43973.000000,22239.000000
16880.000000,39592.000000,43950.000000,22225.000000
16894.000000,39547.000000,43931.000000,22229.000000
16869.000000,39568.000000,43927.000000,22230.000000
16864.000000,39538.000000,43914.000000,22196.000000
16836.000000,39524.000000,43913.000000,22191.000000
16799.000000,39508.000000,43936.000000,22188.000000
16839.000000,39465.000000,43874.000000,22211.000000
16803.000000,39467.000000,43905.000000,22203.000000
16827.000000,39468.000000,43865.000000,22207.000000
16805.000000,39476.000000,43860.000000,22181.000000
16753.000000,39439.000000,43859.000000,22206.000000
16767.000000,39428.000000,43846.000000,22188.000000
16738.000000,39412.000000,43874.000000,22157.000000
16729.000000,39384.000000,43821.000000,22193.000000
16721.000000,39369.000000,43827.000000,22165.000000
16690.000000,39330.000000,43828.000000,22192.000000
16705.000000,39386.000000,43822.000000,22179.000000
16671.000000,39329.000000,43792.000000,22163.000000
16669.000000,39336.000000,43789.000000,22162.000000
16626.000000,39302.000000,43780.000000,22140.000000
16664.000000,39276.000000,43780.000000,22121.000000
16640.000000,39302.000000,43751.000000,22139.000000
16638.000000,39257.000000,43763.000000,22136.000000
16582.000000,39249.000000,43764.000000,22131.000000
16576.000000,39196.000000,43736.000000,22133.000000
16574.000000,39226.000000,43707.000000,22087.000000
16560.000000,39162.000000,43735.000000,22103.000000
16540.000000,39140.000000,43666.000000,22116.000000
16500.000000,39130.000000,43696.000000,22085.000000
16476.000000,39097.000000,43671.000000,22094.000000
16458.000000,39099.000000,43664.000000,22057.000000
16444.000000,39071.000000,43643.000000,22076.000000
16447.000000,39041.000000,43623.000000,22058.000000
16399.000000,39047.000000,43628.000000,22044.000000
16404.000000,39001.000000,43591.000000,22051.000000
16376.000000,39022.000000,43607.000000,22063.000000
16388.000000,38984.000000,43629.000000,22055.000000
16401.000000,38968.000000,43592.000000,22045.000000
16402.000000,38971.000000,43591.000000,22046.000000
16372.000000,38952.000000,43584.000000,22039.000000
16348.000000,38982.000000,43584.000000,22057.000000
16398.000000,38982.000000,43583.000000,22072.000000
16392.000000,39001.000000,43608.000000,22042.000000
16412.000000,38973.000000,43583.000000,22074.000000
16390.000000,39006.000000,43583.000000,22087.000000
16427.000000,38993.000000,43599.000000,22070.000000
16467.000000,39000.000000,43633.000000,22063.000000
16482.000000,39016.000000,43649.000000,22084.000000
16465.000000,39050.000000,43635.000000,22083.000000
16494.000000,39088.000000,43677.000000,22074.000000
16513.000000,39101.000000,43686.000000,22097.000000
16530.000000,39123.000000,43657.000000,22111.000000
16545.000000,39102.000000,43685.000000,22106.000000
16557.000000,39167.000000,43677.000000,22104.000000
16576.000000,39178.000000,43714.000000,22102.000000
16608.000000,39189.000000,43721.000000,22130.000000
16615.000000,39209.000000,43738.000000,22132.000000
16673.000000,39238.000000,43769.000000,22137.000000
16691.000000,39303.000000,43792.000000,22152.000000
16712.000000,39357.000000,43805.000000,22147.000000
16764.000000,39374.000000,43824.000000,22167.000000
16799.000000,39393.000000,43848.000000,22193.000000
16850.000000,39439.000000,43876.000000,22209.000000
16887.000000,39496.000000,43917.000000,22191.000000
16938.000000,39574.000000,43922.000000,22217.000000
16986.000000,39671.000000,43992.000000,22246.000000
17087.000000,39700.000000,44011.000000,22265.000000
17160.000000,39858.000000,44084.000000,22287.000000
17264.000000,39950.000000,44163.000000,22353.000000
17396.000000,40087.000000,44239.000000,22339.000000
17550.000000,40275.000000,44350.000000,22411.000000
17681.000000,40401.000000,44406.000000,22453.000000
17771.000000,40539.000000,44515.000000,22487.000000
17886.000000,40661.000000,44564.000000,22558.000000
17953.000000,40780.000000,44651.000000,22545.000000
18026.000000,40850.000000,44685.000000,22566.000000
18058.000000,40913.000000,44721.000000,22592.000000
18076.000000,40954.000000,44726.000000,22590.000000
18130.000000,41028.000000,44753.000000,22624.000000
18115.000000,41038.000000,44777.000000,22629.000000
18179.000000,40977.000000,44793.000000,22634.000000
18141.000000,41026.000000,44775.000000,22618.000000
18145.000000,41047.000000,44774.000000,22631.000000
18165.000000,41054.000000,44774.000000,22618.000000
18149.000000,41029.000000,44796.000000,22641.000000
18149.000000,40983.000000,44772.000000,22615.000000
18102.000000,41020.000000,44756.000000,22643.000000
18113.000000,41019.000000,44769.000000,22614.000000
18071.000000,41048.000000,44761.000000,22622.000000
18096.000000,40967.000000,44729.000000,22610.000000
18085.000000,41017.000000,44758.000000,22617.000000
18088.000000,40964.000000,44714.000000,22625.000000
18084.000000,40956.000000,44716.000000,22616.000000
18053.000000,40913.000000,44716.000000,22635.000000
18049.000000,40934.000000,44739.000000,22619.000000
18026.000000,40917.000000,44734.000000,22602.000000
18006.000000,40913.000000,44681.000000,22603.000000
18028.000000,40889.000000,44679.000000,22576.000000
18015.000000,40849.000000,44699.000000,22577.000000
18030.000000,40855.000000,44666.000000,22603.000000
17987.000000,40865.000000,44674.000000,22571.000000
17977.000000,40852.000000,44664.000000,22594.000000
17928.000000,40840.000000,44677.000000,22567.000000
17938.000000,40804.000000,44663.000000,22597.000000
17931.000000,40823.000000,44640.000000,22552.000000
17926.000000,40792.000000,44636.000000,22555.000000
17935.000000,40788.000000,44628.000000,22588.000000
17896.000000,40758.000000,44620.000000,22570.000000
17878.000000,40750.000000,44608.000000,22571.000000
17868.000000,40756.000000,44585.000000,22535.000000
17882.000000,40706.000000,44593.000000,22536.000000
17871.000000,40717.000000,44568.000000,22556.000000
17837.000000,40703.000000,44577.000000,22542.000000
17839.000000,40659.000000,44556.000000,22520.000000
17818.000000,40670.000000,44549.000000,22549.000000
17834.000000,40636.000000,44546.000000,22535.000000
17783.000000,40659.000000,44553.000000,22549.000000
17809.000000,40640.000000,44544.000000,22524.000000
17746.000000,40623.000000,44525.000000,22494.000000
17739.000000,40605.000000,44517.000000,22536.000000
17732.000000,40602.000000,44507.000000,22532.000000
17713.000000,40558.000000,44524.000000,22511.000000
17736.000000,40555.000000,44475.000000,22492.000000
17678.000000,40569.000000,44485.000000,22493.000000
17689.000000,40539.000000,44477.000000,22510.000000
17666.000000,40497.000000,44492.000000,22479.000000
17657.000000,40500.000000,44474.000000,22502.000000
17636.000000,40491.000000,44450.000000,22487.000000
17611.000000,40445.000000,44421.000000,22479.000000
17626.000000,40438.000000,44408.000000,22468.000000
17584.000000,40407.000000,44422.000000,22497.000000
17590.000000,40421.000000,44400.000000,22452.000000
17548.000000,40397.000000,44405.000000,22473.000000
17563.000000,40364.000000,44371.000000,22467.000000
17528.000000,40370.000000,44373.000000,22428.000000
17506.000000,40347.000000,44366.000000,22430.000000
17499.000000,40307.000000,44370.000000,22431.000000
17444.000000,40266.000000,44342.000000,22432.000000
17442.000000,40247.000000,44322.000000,22456.000000
17386.000000,40218.000000,44287.000000,22413.000000
17405.000000,40234.000000,44273.000000,22406.000000
17361.000000,40188.000000,44302.000000,22382.000000
17368.000000,40120.000000,44264.000000,22389.000000
17329.000000,40113.000000,44266.000000,22390.000000
17335.000000,40091.000000,44240.000000,22382.000000
17324.000000,40126.000000,44230.000000,22372.000000
17313.000000,40056.000000,44229.000000,22374.000000
17273.000000,40070.000000,44172.000000,22352.000000
17281.000000,40020.000000,44213.000000,22368.000000
17266.000000,40014.000000,44154.000000,22368.000000
17207.000000,39964.000000,44189.000000,22333.000000
17208.000000,39963.000000,44132.000000,22349.000000
17180.000000,39998.000000,44136.000000,22334.000000
17185.000000,39907.000000,44126.000000,22364.000000
17154.000000,39936.000000,44116.000000,22337.000000
17135.000000,39882.000000,44142.000000,22329.000000
17145.000000,39874.000000,44096.000000,22303.000000
17076.000000,39892.000000,44081.000000,22307.000000
17071.000000,39830.000000,44079.000000,22309.000000
17028.000000,39836.000000,44063.000000,22287.000000
17011.000000,39760.000000,44032.000000,22285.000000
17008.000000,39739.000000,44032.000000,22282.000000
16991.000000,39721.000000,44017.000000,22274.000000
16979.000000,39665.000000,43992.000000,22296.000000
16878.000000,39658.000000,43963.000000,22250.000000
16905.000000,39637.000000,43939.000000,22224.000000
16866.000000,39581.000000,43936.000000,22245.000000
16856.000000,39528.000000,43912.000000,22226.000000
16813.000000,39579.000000,43905.000000,22238.000000
16797.000000,39537.000000,43921.000000,22217.000000
16798.000000,39485.000000,43848.000000,22175.000000
16738.000000,39471.000000,43853.000000,22191.000000
16750.000000,39428.000000,43836.000000,22194.000000
16723.000000,39405.000000,43818.000000,22191.000000
16701.000000,39384.000000,43810.000000,22187.000000
16663.000000,39362.000000,43818.000000,22180.000000
16634.000000,39326.000000,43765.000000,22169.000000
16640.000000,39311.000000,43768.000000,22147.000000
16638.000000,39288.000000,43733.000000,22157.000000
16598.000000,39298.000000,43726.000000,22137.000000
16558.000000,39245.000000,43735.000000,22152.000000
16562.000000,39283.000000,43739.000000,22137.000000
16543.000000,39234.000000,43715.000000,22142.000000
16543.000000,39194.000000,43727.000000,22133.000000
16517.000000,39202.000000,43701.000000,22116.000000
16526.000000,39170.000000,43688.000000,22126.000000
16465.000000,39192.000000,43666.000000,22138.000000
16464.000000,39147.000000,43657.000000,22132.000000
16464.000000,39135.000000,43630.000000,22110.000000
16430.000000,39120.000000,43648.000000,22094.000000
16428.000000,39083.000000,43595.000000,22104.000000
16426.000000,39087.000000,43629.000000,22091.000000
16381.000000,39077.000000,43629.000000,22094.000000
16379.000000,39017.000000,43618.000000,22090.000000
16363.000000,39013.000000,43590.000000,22072.000000
16327.000000,39006.000000,43580.000000,22043.000000
16351.000000,38979.000000,43532.000000,22058.000000
16300.000000,38986.000000,43552.000000,22050.000000
16332.000000,38965.000000,43547.000000,22043.000000
16261.000000,38957.000000,43532.000000,22042.000000
16275.000000,38903.000000,43494.000000,22031.000000
16208.000000,38882.000000,43499.000000,22029.000000
16227.000000,38853.000000,43484.000000,22053.000000
16189.000000,38805.000000,43465.000000,22003.000000
16158.000000,38769.000000,43470.000000,21999.000000
16145.000000,38780.000000,43438.000000,21999.000000
16120.000000,38748.000000,43454.000000,21977.000000
16111.000000,38693.000000,43416.000000,21985.000000
16080.000000,38725.000000,43390.000000,22003.000000
16083.000000,38680.000000,43382.000000,21970.000000
16052.000000,38661.000000,43382.000000,21970.000000
16035.000000,38678.000000,43384.000000,21965.000000
16039.000000,38658.000000,43362.000000,21948.000000
16016.000000,38637.000000,43362.000000,21932.000000
16021.000000,38601.000000,43347.000000,21932.000000
15982.000000,38629.000000,43338.000000,21932.000000
16025.000000,38621.000000,43364.000000,21968.000000
16022.000000,38619.000000,43346.000000,21955.000000
16022.000000,38621.000000,43343.000000,21960.000000
16067.000000,38645.000000,43344.000000,21938.000000
16029.000000,38661.000000,43404.000000,21968.000000
16060.000000,38659.000000,43384.000000,21955.000000
16060.000000,38675.000000,43396.000000,21976.000000
16099.000000,38690.000000,43398.000000,21939.000000
16097.000000,38709.000000,43430.000000,21976.000000
16125.000000,38737.000000,43416.000000,21996.000000
16168.000000,38776.000000,43417.000000,22025.000000
16201.000000,38727.000000,43460.000000,22008.000000
16190.000000,38794.000000,43472.000000,21990.000000
16229.000000,38778.000000,43519.000000,22038.000000
16275.000000,38845.000000,43487.000000,22012.000000
16290.000000,38886.000000,43503.000000,22026.000000
16316.000000,38866.000000,43513.000000,22050.000000
16341.000000,38938.000000,43542.000000,22053.000000
16362.000000,38939.000000,43571.000000,22040.000000
16396.000000,39017.000000,43571.000000,22054.000000
16421.000000,39001.000000,43604.000000,22057.000000
16459.000000,39043.000000,43630.000000,22053.000000
16476.000000,39083.000000,43632.000000,22090.000000
16554.000000,39139.000000,43673.000000,22089.000000
16570.000000,39202.000000,43693.000000,22123.000000
16612.000000,39222.000000,43708.000000,22120.000000
16647.000000,39320.000000,43763.000000,22157.000000
16715.000000,39341.000000,43789.000000,22166.000000
16771.000000,39395.000000,43825.000000,22170.000000
16814.000000,39477.000000,43857.000000,22187.000000
16896.000000,39541.000000,43896.000000,22207.000000
16961.000000,39640.000000,43954.000000,22243.000000
17068.000000,39711.000000,44042.000000,22270.000000
17156.000000,39866.000000,44099.000000,22285.000000
17312.000000,40004.000000,44162.000000,22348.000000
17451.000000,40189.000000,44270.000000,22389.000000
17599.000000,40320.000000,44345.000000,22446.000000
17704.000000,40503.000000,44436.000000,22489.000000
17813.000000,40587.000000,44524.000000,22505.000000
17916.000000,40702.000000,44579.000000,22556.000000
17937.000000,40804.000000,44649.000000,22580.000000
18005.000000,40876.000000,44662.000000,22595.000000
18033.000000,40908.000000,44696.000000,22600.000000
18069.000000,40950.000000,44720.000000,22599.000000
18081.000000,40986.000000,44711.000000,22638.000000
18102.000000,40985.000000,44763.000000,22640.000000
18128.000000,41012.000000,44767.000000,22649.000000
18092.000000,41000.000000,44756.000000,22648.000000
18143.000000,41027.000000,44758.000000,22634.000000
18104.000000,40972.000000,44773.000000,22615.000000
18093.000000,41002.000000,44769.000000,22631.000000
18086.000000,41022.000000,44764.000000,22628.000000
18086.000000,40969.000000,44754.000000,22614.000000
18075.000000,40996.000000,44712.000000,22609.000000
18058.000000,40963.000000,44752.000000,22607.000000
18095.000000,40969.000000,44715.000000,22621.000000
18019.000000,40938.000000,44738.000000,22602.000000
18091.000000,40962.000000,44713.000000,22598.000000
18003.000000,40936.000000,44717.000000,22616.000000
18038.000000,40943.000000,44731.000000,22615.000000
18032.000000,40929.000000,44710.000000,22596.000000
18011.000000,40873.000000,44708.000000,22585.000000
18039.000000,40895.000000,44671.000000,22570.000000
17974.000000,40865.000000,44692.000000,22584.000000
18004.000000,40854.000000,44691.000000,22592.000000
17963.000000,40898.000000,44664.000000,22586.000000
17943.000000,40869.000000,44677.000000,22593.000000
17945.000000,40831.000000,44641.000000,22560.000000
17944.000000,40830.000000,44641.000000,22558.000000
17927.000000,40805.000000,44641.000000,22571.000000
17925.000000,40808.000000,44638.000000,22589.000000
17913.000000,40789.000000,44599.000000,22581.000000
17864.000000,40810.000000,44617.000000,22559.000000
17879.000000,40746.000000,44607.000000,22544.000000
17872.000000,40766.000000,44596.000000,22539.000000
17831.000000,40728.000000,44583.000000,22536.000000
17856.000000,40712.000000,44599.000000,22560.000000
17826.000000,40721.000000,44572.000000,22551.000000
17843.000000,40649.000000,44566.000000,22523.000000
17797.000000,40668.000000,44560.000000,22521.000000
17768.000000,40641.000000,44551.000000,22510.000000
17814.000000,40652.000000,44531.000000,22530.000000
17776.000000,40638.000000,44541.000000,22528.000000
17788.000000,40602.000000,44522.000000,22518.000000
17725.000000,40615.000000,44540.000000,22502.000000
17749.000000,40583.000000,44480.000000,22502.000000
17726.000000,40593.000000,44500.000000,22487.000000
17720.000000,40565.000000,44499.000000,22515.000000
17711.000000,40547.000000,44474.000000,22481.000000
17676.000000,40515.000000,44488.000000,22463.000000
17716.000000,40500.000000,44471.000000,22452.000000
17657.000000,40479.000000,44452.000000,22477.000000
17625.000000,40442.000000,44459.000000,22488.000000
17599.000000,40465.000000,44444.000000,22466.000000
17596.000000,40451.000000,44432.000000,22465.000000
17591.000000,40420.000000,44406.000000,22457.000000
17562.000000,40377.000000,44407.000000,22455.000000
17538.000000,40352.000000,44372.000000,22436.000000
17539.000000,40325.000000,44394.000000,22424.000000
17538.000000,40316.000000,44351.000000,22442.000000
17469.000000,40306.000000,44363.000000,22398.000000
17501.000000,40280.000000,44338.000000,22424.000000
17462.000000,40258.000000,44342.000000,22407.000000
17483.000000,40220.000000,44334.000000,22410.000000
17438.000000,40242.000000,44310.000000,22420.000000
17399.000000,40198.000000,44327.000000,22405.000000
17422.000000,40200.000000,44284.000000,22399.000000
17354.000000,40163.000000,44307.000000,22371.000000
17367.000000,40153.000000,44267.000000,22378.000000
17359.000000,40177.000000,44264.000000,22390.000000
17332.000000,40130.000000,44229.000000,22384.000000
17300.000000,40098.000000,44227.000000,22362.000000
17298.000000,40059.000000,44226.000000,22372.000000
17308.000000,40063.000000,44195.000000,22341.000000
17235.000000,40038.000000,44196.000000,22352.000000
17253.000000,40012.000000,44176.000000,22369.000000
17218.000000,40012.000000,44185.000000,22344.000000
17190.000000,39967.000000,44137.000000,22317.000000
17176.000000,39964.000000,44133.000000,22311.000000
17174.000000,39932.000000,44155.000000,22318.000000
17151.000000,39872.000000,44115.000000,22313.000000
17133.000000,39881.000000,44098.000000,22265.000000
17099.000000,39834.000000,44078.000000,22277.000000
17059.000000,39798.000000,44069.000000,22272.000000
17047.000000,39771.000000,44043.000000,22291.000000
17073.000000,39807.000000,44052.000000,22258.000000
17009.000000,39741.000000,44028.000000,22290.000000
16976.000000,39724.000000,44011.000000,22264.000000
16974.000000,39693.000000,43992.000000,22267.000000
16953.000000,39661.000000,43975.000000,22253.000000
16903.000000,39625.000000,43997.000000,22248.000000
16898.000000,39638.000000,43941.000000,22219.000000
16856.000000,39601.000000,43946.000000,22230.000000
16880.000000,39549.000000,43922.000000,22228.000000
16850.000000,39538.000000,43935.000000,22203.000000
16822.000000,39499.000000,43918.000000,22221.000000
16787.000000,39492.000000,43891.000000,22172.000000
16761.000000,39457.000000,43871.000000,22181.000000
16755.000000,39408.000000,43829.000000,22184.000000
16717.000000,39444.000000,43843.000000,22174.000000
16710.000000,39377.000000,43805.000000,22153.000000
16686.000000,39353.000000,43791.000000,22165.000000
16653.000000,39344.000000,43800.000000,22169.000000
16671.000000,39301.000000,43784.000000,22160.000000
16621.000000,39286.000000,43772.000000,22131.000000
16620.000000,39258.000000,43753.000000,22122.000000
16585.000000,39232.000000,43787.000000,22136.000000
16581.000000,39199.000000,43715.000000,22137.000000
16561.000000,39212.000000,43723.000000,22110.000000
16522.000000,39177.000000,43704.000000,22129.000000
