660nm,730nm,850nm,940nm
20517.000000,42518.000000,46021.000000,23436.000000
20459.000000,42449.000000,45992.000000,23393.000000
20435.000000,42422.000000,45987.000000,23396.000000
20415.000000,42389.000000,45987.000000,23407.000000
20437.000000,42379.000000,45970.000000,23385.000000
20386.000000,42373.000000,45968.000000,23394.000000
20375.000000,42359.000000,45935.000000,23379.000000
20322.000000,42345.000000,45899.000000,23357.000000
20328.000000,42312.000000,45936.000000,23373.000000
20316.000000,42265.000000,45903.000000,23363.000000
20322.000000,42272.000000,45920.000000,23351.000000
20292.000000,42266.000000,45909.000000,23364.000000
20283.000000,42283.000000,45856.000000,23336.000000
20264.000000,42253.000000,45871.000000,23353.000000
20286.000000,42242.000000,45869.000000,23349.000000
20267.000000,42228.000000,45891.000000,23367.000000
20282.000000,42227.000000,45893.000000,23373.000000
20249.000000,42244.000000,45890.000000,23349.000000
20270.000000,42213.000000,45857.000000,23355.000000
20240.000000,42227.000000,45868.000000,23379.000000
20248.000000,42222.000000,45868.000000,23353.000000
20268.000000,42250.000000,45872.000000,23333.000000
20249.000000,42204.000000,45852.000000,23356.000000
20282.000000,42237.000000,45884.000000,23366.000000
20280.000000,42241.000000,45845.000000,23362.000000
20237.000000,42191.000000,45862.000000,23342.000000
20221.000000,42153.000000,45839.000000,23345.000000
20254.000000,42176.000000,45819.000000,23334.000000
20207.000000,42184.000000,45815.000000,23350.000000
20219.000000,42154.000000,45813.000000,23352.000000
20204.000000,42154.000000,45815.000000,23326.000000
20187.000000,42150.000000,45792.000000,23336.000000
20176.000000,42136.000000,45790.000000,23332.000000
20148.000000,42091.000000,45798.000000,23310.000000
20180.000000,42105.000000,45819.000000,23319.000000
20134.000000,42074.000000,45807.000000,23336.000000
20167.000000,42106.000000,45778.000000,23310.000000
20122.000000,42079.000000,45788.000000,23312.000000
20152.000000,42081.000000,45755.000000,23296.000000
20096.000000,42058.000000,45752.000000,23292.000000
20120.000000,42032.000000,45748.000000,23284.000000
20079.000000,42073.000000,45743.000000,23304.000000
20078.000000,42049.000000,45765.000000,23308.000000
20121.000000,42029.000000,45759.000000,23298.000000
20089.000000,41986.000000,45746.000000,23308.000000
20059.000000,42024.000000,45712.000000,23290.000000
20055.000000,41988.000000,45750.000000,23296.000000
20114.000000,42039.000000,45743.000000,23294.000000
20084.000000,42021.000000,45756.000000,23268.000000
20106.000000,41999.000000,45733.000000,23312.000000
20114.000000,42046.000000,45743.000000,23284.000000
20092.000000,42023.000000,45765.000000,23317.000000
20155.000000,42078.000000,45783.000000,23316.000000
20167.000000,42090.000000,45796.000000,23318.000000
20166.000000,42106.000000,45785.000000,23303.000000
20215.000000,42156.000000,45839.000000,23317.000000
20242.000000,42196.000000,45838.000000,23357.000000
20280.000000,42252.000000,45878.000000,23348.000000
20313.000000,42232.000000,45896.000000,23326.000000
20314.000000,42270.000000,45891.000000,23349.000000
20270.000000,42317.000000,45922.000000,23341.000000
20329.000000,42323.000000,45919.000000,23347.000000
20340.000000,42321.000000,45922.000000,23356.000000
20377.000000,42324.000000,45935.000000,23349.000000
20376.000000,42372.000000,45937.000000,23366.000000
20412.000000,42455.000000,46011.000000,23372.000000
20480.000000,42476.000000,46018.000000,23363.000000
20497.000000,42510.000000,46027.000000,23390.000000
20525.000000,42547.000000,46054.000000,23398.000000
20554.000000,42552.000000,46071.000000,23433.000000
20590.000000,42580.000000,46065.000000,23445.000000
20654.000000,42678.000000,46095.000000,23425.000000
20634.000000,42686.000000,46144.000000,23439.000000
20651.000000,42730.000000,46152.000000,23459.000000
20665.000000,42731.000000,46156.000000,23478.000000
20771.000000,42793.000000,46172.000000,23483.000000
20726.000000,42815.000000,46205.000000,23468.000000
20813.000000,42855.000000,46206.000000,23490.000000
20775.000000,42872.000000,46220.000000,23491.000000
20833.000000,42928.000000,46251.000000,23529.000000
20814.000000,42976.000000,46265.000000,23535.000000
20844.000000,42953.000000,46269.000000,23537.000000
20841.000000,42913.000000,46270.000000,23506.000000
20792.000000,42895.000000,46268.000000,23527.000000
20795.000000,42907.000000,46248.000000,23512.000000
20723.000000,42883.000000,46239.000000,23515.000000
20723.000000,42852.000000,46218.000000,23507.000000
20715.000000,42824.000000,46217.000000,23482.000000
20678.000000,42818.000000,46236.000000,23489.000000
20691.000000,42777.000000,46184.000000,23475.000000
20593.000000,42710.000000,46186.000000,23448.000000
20578.000000,42689.000000,46126.000000,23460.000000
20525.000000,42669.000000,46127.000000,23427.000000
20515.000000,42643.000000,46102.000000,23448.000000
20457.000000,42611.000000,46080.000000,23390.000000
20469.000000,42560.000000,46054.000000,23407.000000
20459.000000,42583.000000,46063.000000,23409.000000
20445.000000,42562.000000,46080.000000,23405.000000
20417.000000,42533.000000,46059.000000,23416.000000
20431.000000,42542.000000,46065.000000,23415.000000
20403.000000,42503.000000,46027.000000,23400.000000
20375.000000,42519.000000,46047.000000,23375.000000
20413.000000,42521.000000,46038.000000,23412.000000
20390.000000,42518.000000,46038.000000,23398.000000
20366.000000,42489.000000,46047.000000,23442.000000
20395.000000,42487.000000,46008.000000,23401.000000
20355.000000,42503.000000,46044.000000,23397.000000
20384.000000,42455.000000,46015.000000,23440.000000
20367.000000,42493.000000,46008.000000,23429.000000
20353.000000,42461.000000,45999.000000,23418.000000
20368.000000,42435.000000,45970.000000,23406.000000
20346.000000,42454.000000,46011.000000,23449.000000
20391.000000,42454.000000,46006.000000,23415.000000
20398.000000,42493.000000,46016.000000,23460.000000
20437.000000,42504.000000,46005.000000,23456.000000
20417.000000,42534.000000,45997.000000,23454.000000
20412.000000,42513.000000,46015.000000,23470.000000
20416.000000,42481.000000,45997.000000,23447.000000
20373.000000,42446.000000,46004.000000,23467.000000
20421.000000,42455.000000,45986.000000,23464.000000
20395.000000,42475.000000,46013.000000,23477.000000
20395.000000,42447.000000,45983.000000,23477.000000
20410.000000,42488.000000,46006.000000,23449.000000
20364.000000,42455.000000,45995.000000,23490.000000
20416.000000,42447.000000,45993.000000,23470.000000
20399.000000,42418.000000,46011.000000,23484.000000
20383.000000,42424.000000,45982.000000,23496.000000
20385.000000,42439.000000,45987.000000,23477.000000
20374.000000,42430.000000,45975.000000,23490.000000
20381.000000,42416.000000,45981.000000,23466.000000
20369.000000,42431.000000,45982.000000,23471.000000
20349.000000,42427.000000,45969.000000,23460.000000
20342.000000,42421.000000,45983.000000,23483.000000
20397.000000,42405.000000,45964.000000,23477.000000
20354.000000,42417.000000,45961.000000,23479.000000
20382.000000,42422.000000,45986.000000,23480.000000
20389.000000,42460.000000,45996.000000,23490.000000
20357.000000,42427.000000,46013.000000,23486.000000
20407.000000,42436.000000,45983.000000,23496.000000
20374.000000,42447.000000,45977.000000,23503.000000
20384.000000,42426.000000,45997.000000,23503.000000
20378.000000,42459.000000,45993.000000,23504.000000
20362.000000,42439.000000,45986.000000,23505.000000
20390.000000,42455.000000,45982.000000,23475.000000
20364.000000,42396.000000,45998.000000,23466.000000
20381.000000,42387.000000,45976.000000,23480.000000
20324.000000,42409.000000,45993.000000,23463.000000
20337.000000,42379.000000,45968.000000,23458.000000
20308.000000,42387.000000,45982.000000,23423.000000
20311.000000,42349.000000,45948.000000,23436.000000
20285.000000,42325.000000,45916.000000,23452.000000
20255.000000,42278.000000,45924.000000,23433.000000
20226.000000,42259.000000,45879.000000,23419.000000
20194.000000,42234.000000,45914.000000,23419.000000
20213.000000,42233.000000,45886.000000,23412.000000
20200.000000,42210.000000,45895.000000,23416.000000
20218.000000,42247.000000,45858.000000,23404.000000
20192.000000,42252.000000,45870.000000,23426.000000
20188.000000,42216.000000,45881.000000,23416.000000
20169.000000,42221.000000,45894.000000,23390.000000
20139.000000,42204.000000,45888.000000,23431.000000
20180.000000,42196.000000,45892.000000,23384.000000
20130.000000,42233.000000,45857.000000,23409.000000
20151.000000,42179.000000,45851.000000,23414.000000
20151.000000,42169.000000,45831.000000,23411.000000
20092.000000,42169.000000,45844.000000,23412.000000
20100.000000,42169.000000,45835.000000,23411.000000
20113.000000,42120.000000,45847.000000,23398.000000
20107.000000,42125.000000,45824.000000,23393.000000
20040.000000,42089.000000,45784.000000,23365.000000
20056.000000,42117.000000,45782.000000,23393.000000
20010.000000,42074.000000,45773.000000,23382.000000
20009.000000,42029.000000,45741.000000,23379.000000
19954.000000,42030.000000,45772.000000,23349.000000
19961.000000,42030.000000,45763.000000,23347.000000
19924.000000,41972.000000,45721.000000,23348.000000
19924.000000,41985.000000,45724.000000,23326.000000
19944.000000,41956.000000,45729.000000,23361.000000
19893.000000,41974.000000,45723.000000,23347.000000
19903.000000,41907.000000,45692.000000,23327.000000
19860.000000,41948.000000,45705.000000,23286.000000
19817.000000,41885.000000,45689.000000,23279.000000
19826.000000,41843.000000,45629.000000,23242.000000
19729.000000,41846.000000,45654.000000,23302.000000
19765.000000,41809.000000,45609.000000,23259.000000
19717.000000,41829.000000,45614.000000,23257.000000
19701.000000,41752.000000,45574.000000,23233.000000
19677.000000,41738.000000,45563.000000,23197.000000
19628.000000,41722.000000,45572.000000,23235.000000
19616.000000,41672.000000,45517.000000,23180.000000
19605.000000,41642.000000,45542.000000,23186.000000
19563.000000,41625.000000,45504.000000,23202.000000
19552.000000,41609.000000,45485.000000,23136.000000
19539.000000,41589.000000,45498.000000,23168.000000
19525.000000,41571.000000,45485.000000,23156.000000
19510.000000,41582.000000,45475.000000,23145.000000
19512.000000,41561.000000,45491.000000,23159.000000
19497.000000,41532.000000,45447.000000,23146.000000
19495.000000,41513.000000,45468.000000,23143.000000
19491.000000,41542.000000,45472.000000,23162.000000
19473.000000,41510.000000,45470.000000,23130.000000
19492.000000,41542.000000,45482.000000,23132.000000
19479.000000,41548.000000,45449.000000,23125.000000
19506.000000,41535.000000,45457.000000,23139.000000
19480.000000,41541.000000,45468.000000,23122.000000
19526.000000,41551.000000,45483.000000,23137.000000
19511.000000,41559.000000,45469.000000,23145.000000
19519.000000,41524.000000,45481.000000,23120.000000
19532.000000,41530.000000,45462.000000,23118.000000
19551.000000,41533.000000,45463.000000,23152.000000
19547.000000,41546.000000,45461.000000,23157.000000
19548.000000,41564.000000,45487.000000,23166.000000
19583.000000,41570.000000,45479.000000,23165.000000
19612.000000,41622.000000,45474.000000,23156.000000
19653.000000,41623.000000,45523.000000,23159.000000
19674.000000,41669.000000,45520.000000,23174.000000
19680.000000,41682.000000,45559.000000,23198.000000
19742.000000,41707.000000,45571.000000,23166.000000
19742.000000,41742.000000,45600.000000,23195.000000
19826.000000,41764.000000,45607.000000,23228.000000
19811.000000,41825.000000,45617.000000,23202.000000
19866.000000,41849.000000,45661.000000,23242.000000
19836.000000,41883.000000,45669.000000,23259.000000
19885.000000,41894.000000,45696.000000,23248.000000
19924.000000,41957.000000,45697.000000,23256.000000
19946.000000,41969.000000,45719.000000,23286.000000
20021.000000,41993.000000,45735.000000,23275.000000
20023.000000,42046.000000,45755.000000,23288.000000
20057.000000,42093.000000,45807.000000,23307.000000
20105.000000,42109.000000,45782.000000,23328.000000
20090.000000,42127.000000,45811.000000,23321.000000
20150.000000,42190.000000,45860.000000,23357.000000
20174.000000,42165.000000,45880.000000,23320.000000
20219.000000,42204.000000,45879.000000,23362.000000
20261.000000,42297.000000,45909.000000,23356.000000
20235.000000,42291.000000,45923.000000,23363.000000
20240.000000,42301.000000,45927.000000,23361.000000
20230.000000,42292.000000,45880.000000,23360.000000
20217.000000,42218.000000,45887.000000,23346.000000
20191.000000,42270.000000,45882.000000,23341.000000
20198.000000,42225.000000,45897.000000,23321.000000
20189.000000,42253.000000,45897.000000,23333.000000
20176.000000,42234.000000,45900.000000,23322.000000
20242.000000,42255.000000,45875.000000,23331.000000
20182.000000,42228.000000,45870.000000,23312.000000
20218.000000,42240.000000,45872.000000,23345.000000
20163.000000,42232.000000,45889.000000,23335.000000
20185.000000,42215.000000,45850.000000,23332.000000
20178.000000,42216.000000,45851.000000,23307.000000
20172.000000,42199.000000,45845.000000,23312.000000
20204.000000,42215.000000,45872.000000,23292.000000
20174.000000,42204.000000,45876.000000,23324.000000
20183.000000,42191.000000,45871.000000,23326.000000
20202.000000,42204.000000,45876.000000,23313.000000
20203.000000,42194.000000,45859.000000,23301.000000
20173.000000,42192.000000,45878.000000,23294.000000
20179.000000,42179.000000,45863.000000,23322.000000
20153.000000,42161.000000,45845.000000,23302.000000
20139.000000,42155.000000,45864.000000,23319.000000
20148.000000,42167.000000,45875.000000,23298.000000
20131.000000,42146.000000,45870.000000,23308.000000
20153.000000,42155.000000,45837.000000,23311.000000
20103.000000,42143.000000,45847.000000,23305.000000
20133.000000,42187.000000,45847.000000,23337.000000
20095.000000,42166.000000,45856.000000,23322.000000
20120.000000,42137.000000,45812.000000,23289.000000
20106.000000,42129.000000,45830.000000,23309.000000
20040.000000,42066.000000,45797.000000,23283.000000
20029.000000,42055.000000,45782.000000,23261.000000
20005.000000,42011.000000,45751.000000,23239.000000
19980.000000,42009.000000,45738.000000,23256.000000
19969.000000,42015.000000,45741.000000,23231.000000
19968.000000,41994.000000,45756.000000,23248.000000
19986.000000,42000.000000,45736.000000,23243.000000
19978.000000,41965.000000,45736.000000,23244.000000
19961.000000,42001.000000,45725.000000,23262.000000
19990.000000,41992.000000,45769.000000,23250.000000
19958.000000,41979.000000,45705.000000,23253.000000
19936.000000,41960.000000,45705.000000,23248.000000
19942.000000,41947.000000,45710.000000,23252.000000
19969.000000,41952.000000,45719.000000,23244.000000
19906.000000,41943.000000,45732.000000,23243.000000
19912.000000,41949.000000,45704.000000,23224.000000
19899.000000,41914.000000,45706.000000,23214.000000
19919.000000,41899.000000,45689.000000,23216.000000
19877.000000,41893.000000,45679.000000,23208.000000
19866.000000,41866.000000,45683.000000,23239.000000
19828.000000,41830.000000,45671.000000,23224.000000
19837.000000,41820.000000,45655.000000,23191.000000
19766.000000,41776.000000,45598.000000,23171.000000
19733.000000,41751.000000,45608.000000,23155.000000
19741.000000,41732.000000,45599.000000,23131.000000
19710.000000,41719.000000,45569.000000,23166.000000
19735.000000,41707.000000,45573.000000,23156.000000
19707.000000,41718.000000,45599.000000,23153.000000
19716.000000,41688.000000,45567.000000,23157.000000
19667.000000,41665.000000,45543.000000,23157.000000
19626.000000,41643.000000,45550.000000,23146.000000
19636.000000,41642.000000,45519.000000,23156.000000
19612.000000,41626.000000,45549.000000,23148.000000
19657.000000,41638.000000,45484.000000,23152.000000
19624.000000,41629.000000,45520.000000,23146.000000
19621.000000,41571.000000,45505.000000,23136.000000
19596.000000,41594.000000,45515.000000,23153.000000
19549.000000,41541.000000,45500.000000,23137.000000
19591.000000,41576.000000,45477.000000,23121.000000
19542.000000,41555.000000,45497.000000,23138.000000
19584.000000,41552.000000,45458.000000,23148.000000
19558.000000,41542.000000,45475.000000,23117.000000
19496.000000,41489.000000,45436.000000,23132.000000
19490.000000,41478.000000,45428.000000,23100.000000
19469.000000,41459.000000,45396.000000,23095.000000
19479.000000,41440.000000,45389.000000,23094.000000
19446.000000,41445.000000,45397.000000,23088.000000
19432.000000,41387.000000,45384.000000,23082.000000
19405.000000,41408.000000,45405.000000,23112.000000
19374.000000,41324.000000,45337.000000,23076.000000
19325.000000,41309.000000,45335.000000,23060.000000
19310.000000,41266.000000,45302.000000,23053.000000
19324.000000,41273.000000,45287.000000,23053.000000
19292.000000,41230.000000,45282.000000,23042.000000
19251.000000,41186.000000,45272.000000,23021.000000
19252.000000,41213.000000,45284.000000,23042.000000
19255.000000,41171.000000,45247.000000,23019.000000
19239.000000,41173.000000,45258.000000,23018.000000
19240.000000,41168.000000,45247.000000,23010.000000
19240.000000,41132.000000,45226.000000,23039.000000
19200.000000,41152.000000,45226.000000,22997.000000
19210.000000,41131.000000,45241.000000,23006.000000
19215.000000,41151.000000,45229.000000,23017.000000
19210.000000,41072.000000,45234.000000,23010.000000
19204.000000,41098.000000,45207.000000,23000.000000
19140.000000,41065.000000,45168.000000,22988.000000
19142.000000,41024.000000,45167.000000,23019.000000
19139.000000,41035.000000,45187.000000,22976.000000
19137.000000,40981.000000,45152.000000,22994.000000
19140.000000,41011.000000,45153.000000,22993.000000
19098.000000,40945.000000,45163.000000,22963.000000
19097.000000,40983.000000,45162.000000,22947.000000
19111.000000,40972.000000,45140.000000,22974.000000
19128.000000,40932.000000,45147.000000,22983.000000
19076.000000,40945.000000,45147.000000,22982.000000
19123.000000,40943.000000,45136.000000,22974.000000
19091.000000,40966.000000,45141.000000,22957.000000
19104.000000,40955.000000,45134.000000,22970.000000
19140.000000,40949.000000,45125.000000,22935.000000
19066.000000,40904.000000,45116.000000,22950.000000
19089.000000,40897.000000,45108.000000,22962.000000
19078.000000,40886.000000,45109.000000,22968.000000
19077.000000,40865.000000,45103.000000,22939.000000
19054.000000,40881.000000,45097.000000,22942.000000
19082.000000,40826.000000,45079.000000,22924.000000
19041.000000,40817.000000,45050.000000,22922.000000
19044.000000,40798.000000,45046.000000,22908.000000
19019.000000,40779.000000,45052.000000,22887.000000
18999.000000,40761.000000,45004.000000,22912.000000
18971.000000,40706.000000,45005.000000,22895.000000
18933.000000,40707.000000,45019.000000,22893.000000
18963.000000,40700.000000,44989.000000,22904.000000
18956.000000,40695.000000,44992.000000,22905.000000
18978.000000,40685.000000,44994.000000,22891.000000
18989.000000,40682.000000,44982.000000,22892.000000
18973.000000,40677.000000,45015.000000,22899.000000
19005.000000,40705.000000,44988.000000,22919.000000
19038.000000,40746.000000,45010.000000,22926.000000
19078.000000,40750.000000,45065.000000,22909.000000
19095.000000,40756.000000,45032.000000,22956.000000
19110.000000,40812.000000,45093.000000,22951.000000
19137.000000,40784.000000,45053.000000,22947.000000
19145.000000,40824.000000,45040.000000,22963.000000
19151.000000,40820.000000,45080.000000,22983.000000
19210.000000,40839.000000,45097.000000,22993.000000
19220.000000,40892.000000,45115.000000,23032.000000
19231.000000,40924.000000,45118.000000,22985.000000
19277.000000,40931.000000,45160.000000,23020.000000
19301.000000,40936.000000,45161.000000,23016.000000
19308.000000,40941.000000,45170.000000,23031.000000
19356.000000,41004.000000,45161.000000,23032.000000
19374.000000,41019.000000,45177.000000,23045.000000
19417.000000,41050.000000,45196.000000,23064.000000
19439.000000,41084.000000,45217.000000,23054.000000
19434.000000,41085.000000,45233.000000,23060.000000
19475.000000,41145.000000,45241.000000,23089.000000
19510.000000,41188.000000,45267.000000,23072.000000
19549.000000,41216.000000,45301.000000,23093.000000
19587.000000,41260.000000,45302.000000,23113.000000
19578.000000,41285.000000,45322.000000,23109.000000
19632.000000,41335.000000,45356.000000,23111.000000
19614.000000,41353.000000,45383.000000,23120.000000
19674.000000,41373.000000,45403.000000,23138.000000
19702.000000,41427.000000,45414.000000,23151.000000
19757.000000,41437.000000,45425.000000,23148.000000
19767.000000,41499.000000,45470.000000,23154.000000
19841.000000,41532.000000,45477.000000,23184.000000
19874.000000,41586.000000,45507.000000,23181.000000
19858.000000,41617.000000,45513.000000,23168.000000
19887.000000,41629.000000,45534.000000,23182.000000
19918.000000,41637.000000,45551.000000,23238.000000
19920.000000,41672.000000,45541.000000,23159.000000
19942.000000,41679.000000,45593.000000,23176.000000
20004.000000,41677.000000,45571.000000,23214.000000
19941.000000,41696.000000,45562.000000,23195.000000
19963.000000,41697.000000,45568.000000,23222.000000
19924.000000,41691.000000,45580.000000,23188.000000
19917.000000,41644.000000,45550.000000,23189.000000
19928.000000,41689.000000,45563.000000,23163.000000
19894.000000,41625.000000,45558.000000,23151.000000
19835.000000,41600.000000,45518.000000,23139.000000
19814.000000,41552.000000,45495.000000,23130.000000
19776.000000,41546.000000,45488.000000,23111.000000
19810.000000,41570.000000,45470.000000,23122.000000
19739.000000,41537.000000,45467.000000,23102.000000
19767.000000,41507.000000,45438.000000,23091.000000
19747.000000,41500.000000,45455.000000,23088.000000
19657.000000,41447.000000,45414.000000,23097.000000
19722.000000,41423.000000,45417.000000,23108.000000
19683.000000,41430.000000,45412.000000,23080.000000
19659.000000,41457.000000,45409.000000,23083.000000
19672.000000,41451.000000,45412.000000,23065.000000
19658.000000,41422.000000,45408.000000,23080.000000
19646.000000,41437.000000,45422.000000,23087.000000
19627.000000,41428.000000,45421.000000,23084.000000
19649.000000,41395.000000,45389.000000,23093.000000
19629.000000,41369.000000,45421.000000,23082.000000
19594.000000,41340.000000,45382.000000,23065.000000
19621.000000,41366.000000,45362.000000,23047.000000
19577.000000,41351.000000,45392.000000,23096.000000
19609.000000,41336.000000,45357.000000,23055.000000
19599.000000,41325.000000,45374.000000,23052.000000
19615.000000,41307.000000,45332.000000,23053.000000
19591.000000,41324.000000,45365.000000,23051.000000
19584.000000,41340.000000,45337.000000,23056.000000
19546.000000,41341.000000,45328.000000,23051.000000
19563.000000,41314.000000,45339.000000,23042.000000
19549.000000,41308.000000,45329.000000,23029.000000
19522.000000,41274.000000,45321.000000,23037.000000
19549.000000,41255.000000,45314.000000,23024.000000
19510.000000,41261.000000,45329.000000,23008.000000
19510.000000,41238.000000,45296.000000,23008.000000
19521.000000,41257.000000,45315.000000,23016.000000
19508.000000,41249.000000,45312.000000,23016.000000
19547.000000,41271.000000,45285.000000,23019.000000
19517.000000,41272.000000,45310.000000,23031.000000
19540.000000,41291.000000,45311.000000,23022.000000
19546.000000,41274.000000,45308.000000,23061.000000
19569.000000,41287.000000,45318.000000,23062.000000
19575.000000,41300.000000,45323.000000,23048.000000
19559.000000,41287.000000,45349.000000,23030.000000
19547.000000,41290.000000,45350.000000,23049.000000
19554.000000,41282.000000,45300.000000,23038.000000
19577.000000,41312.000000,45307.000000,23038.000000
19567.000000,41278.000000,45337.000000,23057.000000
19576.000000,41298.000000,45350.000000,23036.000000
19555.000000,41256.000000,45313.000000,23036.000000
19537.000000,41232.000000,45304.000000,23028.000000
19530.000000,41241.000000,45280.000000,23004.000000
19534.000000,41206.000000,45302.000000,23004.000000
19520.000000,41247.000000,45290.000000,22996.000000
19497.000000,41187.000000,45277.000000,23018.000000
19553.000000,41193.000000,45275.000000,22994.000000
19499.000000,41225.000000,45275.000000,23016.000000
19505.000000,41175.000000,45246.000000,22991.000000
19462.000000,41177.000000,45255.000000,22992.000000
19454.000000,41143.000000,45256.000000,22990.000000
19485.000000,41141.000000,45241.000000,22967.000000
19470.000000,41141.000000,45233.000000,22992.000000
19399.000000,41125.000000,45226.000000,22982.000000
19455.000000,41113.000000,45249.000000,22973.000000
19433.000000,41137.000000,45211.000000,22973.000000
19446.000000,41108.000000,45231.000000,22994.000000
19440.000000,41096.000000,45213.000000,22978.000000
19398.000000,41079.000000,45225.000000,22997.000000
19411.000000,41063.000000,45224.000000,23011.000000
19374.000000,41093.000000,45234.000000,22975.000000
19375.000000,41074.000000,45214.000000,22959.000000
19376.000000,41053.000000,45211.000000,22990.000000
19391.000000,41033.000000,45194.000000,22979.000000
19334.000000,41038.000000,45180.000000,22959.000000
19394.000000,41007.000000,45189.000000,22965.000000
19350.000000,41029.000000,45198.000000,22965.000000
19358.000000,41007.000000,45181.000000,22957.000000
19350.000000,41000.000000,45187.000000,22978.000000
19378.000000,41039.000000,45178.000000,22957.000000
19359.000000,41005.000000,45197.000000,22981.000000
19373.000000,41006.000000,45184.000000,22968.000000
19345.000000,41022.000000,45192.000000,22974.000000
19356.000000,40990.000000,45164.000000,22971.000000
19357.000000,40966.000000,45178.000000,22983.000000
19382.000000,40996.000000,45131.000000,22959.000000
19334.000000,40959.000000,45191.000000,22951.000000
19336.000000,40990.000000,45146.000000,22966.000000
19288.000000,41000.000000,45179.000000,22956.000000
19308.000000,40965.000000,45148.000000,22942.000000
19297.000000,40953.000000,45158.000000,22972.000000
19316.000000,40968.000000,45164.000000,22972.000000
19285.000000,40975.000000,45146.000000,22957.000000
19286.000000,40939.000000,45144.000000,22963.000000
19277.000000,40976.000000,45178.000000,22935.000000
19299.000000,40947.000000,45131.000000,22947.000000
19263.000000,40912.000000,45137.000000,22942.000000
19265.000000,40916.000000,45127.000000,22963.000000
19183.000000,40889.000000,45078.000000,22905.000000
19149.000000,40834.000000,45054.000000,22866.000000
19107.000000,40793.000000,45033.000000,22876.000000
19079.000000,40766.000000,45039.000000,22867.000000
19066.000000,40714.000000,45039.000000,22877.000000
19035.000000,40740.000000,45009.000000,22835.000000
19055.000000,40718.000000,45008.000000,22854.000000
19027.000000,40717.000000,45002.000000,22833.000000
19047.000000,40710.000000,45018.000000,22843.000000
19039.000000,40703.000000,44981.000000,22829.000000
19022.000000,40673.000000,44987.000000,22843.000000
19033.000000,40701.000000,44981.000000,22828.000000
19016.000000,40656.000000,44972.000000,22844.000000
19018.000000,40717.000000,44980.000000,22852.000000
19004.000000,40646.000000,45000.000000,22848.000000
19012.000000,40678.000000,44993.000000,22855.000000
19045.000000,40636.000000,44961.000000,22846.000000
19042.000000,40632.000000,44964.000000,22842.000000
18997.000000,40641.000000,44986.000000,22848.000000
19011.000000,40604.000000,44954.000000,22853.000000
19020.000000,40609.000000,44962.000000,22870.000000
19010.000000,40634.000000,44974.000000,22859.000000
18997.000000,40632.000000,44971.000000,22837.000000
19006.000000,40568.000000,44927.000000,22853.000000
18980.000000,40589.000000,44952.000000,22858.000000
19001.000000,40616.000000,44931.000000,22856.000000
19015.000000,40625.000000,44952.000000,22852.000000
19037.000000,40620.000000,44954.000000,22839.000000
19021.000000,40640.000000,44988.000000,22844.000000
19022.000000,40652.000000,44974.000000,22853.000000
19021.000000,40648.000000,44967.000000,22847.000000
19021.000000,40641.000000,44982.000000,22846.000000
19033.000000,40673.000000,44990.000000,22838.000000
19089.000000,40731.000000,45024.000000,22805.000000
19074.000000,40736.000000,45055.000000,22833.000000
19126.000000,40776.000000,45042.000000,22860.000000
19137.000000,40778.000000,45089.000000,22835.000000
19161.000000,40808.000000,45070.000000,22835.000000
19120.000000,40818.000000,45081.000000,22846.000000
19177.000000,40832.000000,45101.000000,22851.000000
19243.000000,40920.000000,45136.000000,22838.000000
19232.000000,40939.000000,45128.000000,22875.000000
19261.000000,40966.000000,45171.000000,22871.000000
19315.000000,41000.000000,45220.000000,22896.000000
19366.000000,41063.000000,45205.000000,22900.000000
19395.000000,41140.000000,45285.000000,22931.000000
19437.000000,41176.000000,45256.000000,22928.000000
19534.000000,41250.000000,45298.000000,22958.000000
19569.000000,41281.000000,45362.000000,22989.000000
19627.000000,41328.000000,45400.000000,22976.000000
19735.000000,41500.000000,45471.000000,23057.000000
19773.000000,41570.000000,45507.000000,23031.000000
19835.000000,41590.000000,45564.000000,23031.000000
19971.000000,41759.000000,45651.000000,23092.000000
19985.000000,41818.000000,45665.000000,23113.000000
20041.000000,41824.000000,45671.000000,23115.000000
20056.000000,41872.000000,45692.000000,23118.000000
20093.000000,41902.000000,45688.000000,23142.000000
20084.000000,41928.000000,45715.000000,23135.000000
20073.000000,41885.000000,45742.000000,23145.000000
20109.000000,41951.000000,45728.000000,23132.000000
20090.000000,41908.000000,45736.000000,23129.000000
20089.000000,41923.000000,45722.000000,23120.000000
20068.000000,41909.000000,45730.000000,23127.000000
20103.000000,41874.000000,45691.000000,23133.000000
20054.000000,41896.000000,45695.000000,23110.000000
20069.000000,41861.000000,45696.000000,23091.000000
20048.000000,41878.000000,45703.000000,23087.000000
20033.000000,41867.000000,45686.000000,23089.000000
20054.000000,41874.000000,45693.000000,23104.000000
20069.000000,41876.000000,45707.000000,23095.000000
20081.000000,41884.000000,45706.000000,23099.000000
20085.000000,41868.000000,45718.000000,23112.000000
20100.000000,41874.000000,45680.000000,23113.000000
20094.000000,41900.000000,45735.000000,23097.000000
20122.000000,41905.000000,45685.000000,23109.000000
20103.000000,41898.000000,45702.000000,23107.000000
20139.000000,41899.000000,45708.000000,23123.000000
20100.000000,41890.000000,45719.000000,23120.000000
20117.000000,41894.000000,45722.000000,23116.000000
20102.000000,41900.000000,45687.000000,23108.000000
20073.000000,41877.000000,45697.000000,23113.000000
20103.000000,41855.000000,45709.000000,23112.000000
20074.000000,41850.000000,45688.000000,23101.000000
20072.000000,41824.000000,45677.000000,23111.000000
20023.000000,41831.000000,45651.000000,23078.000000
20013.000000,41825.000000,45649.000000,23119.000000
20025.000000,41788.000000,45652.000000,23089.000000
19967.000000,41734.000000,45633.000000,23084.000000
19978.000000,41706.000000,45593.000000,23067.000000
19937.000000,41725.000000,45632.000000,23070.000000
19945.000000,41688.000000,45587.000000,23062.000000
19888.000000,41726.000000,45592.000000,23075.000000
19918.000000,41696.000000,45561.000000,23059.000000
19895.000000,41693.000000,45575.000000,23075.000000
19918.000000,41688.000000,45567.000000,23078.000000
19928.000000,41672.000000,45540.000000,23061.000000
19924.000000,41625.000000,45573.000000,23045.000000
19894.000000,41636.000000,45539.000000,23059.000000
19895.000000,41643.000000,45569.000000,23046.000000
19897.000000,41613.000000,45544.000000,23076.000000
19906.000000,41615.000000,45531.000000,23053.000000
19909.000000,41610.000000,45555.000000,23069.000000
19906.000000,41640.000000,45546.000000,23073.000000
19908.000000,41622.000000,45552.000000,23088.000000
19937.000000,41662.000000,45553.000000,23061.000000
19935.000000,41619.000000,45577.000000,23086.000000
19926.000000,41653.000000,45559.000000,23098.000000
19938.000000,41630.000000,45552.000000,23082.000000
19973.000000,41617.000000,45561.000000,23084.000000
19985.000000,41660.000000,45545.000000,23080.000000
19987.000000,41620.000000,45558.000000,23083.000000
19970.000000,41642.000000,45520.000000,23076.000000
19960.000000,41648.000000,45552.000000,23096.000000
20015.000000,41685.000000,45575.000000,23115.000000
20050.000000,41664.000000,45580.000000,23128.000000
20062.000000,41696.000000,45597.000000,23135.000000
20068.000000,41693.000000,45577.000000,23140.000000
20079.000000,41723.000000,45592.000000,23129.000000
20087.000000,41739.000000,45581.000000,23159.000000
20111.000000,41751.000000,45594.000000,23162.000000
20110.000000,41738.000000,45642.000000,23149.000000
20123.000000,41750.000000,45601.000000,23168.000000
20090.000000,41731.000000,45610.000000,23156.000000
20097.000000,41727.000000,45624.000000,23166.000000
20080.000000,41777.000000,45617.000000,23142.000000
20077.000000,41758.000000,45596.000000,23161.000000
20063.000000,41743.000000,45635.000000,23155.000000
20071.000000,41728.000000,45626.000000,23163.000000
20023.000000,41675.000000,45577.000000,23125.000000
20027.000000,41678.000000,45588.000000,23128.000000
20011.000000,41679.000000,45553.000000,23102.000000
19970.000000,41672.000000,45599.000000,23116.000000
19951.000000,41662.000000,45548.000000,23073.000000
19961.000000,41648.000000,45498.000000,23081.000000
19935.000000,41595.000000,45527.000000,23075.000000
19932.000000,41604.000000,45565.000000,23091.000000
19898.000000,41645.000000,45524.000000,23080.000000
19887.000000,41584.000000,45545.000000,23074.000000
19925.000000,41606.000000,45547.000000,23059.000000
19890.000000,41562.000000,45499.000000,23053.000000
19867.000000,41578.000000,45504.000000,23066.000000
19884.000000,41575.000000,45485.000000,23031.000000
19844.000000,41516.000000,45508.000000,23036.000000
19831.000000,41508.000000,45473.000000,23025.000000
19840.000000,41533.000000,45468.000000,23009.000000
19797.000000,41497.000000,45467.000000,23034.000000
19841.000000,41509.000000,45469.000000,22983.000000
19819.000000,41485.000000,45438.000000,23012.000000
19823.000000,41478.000000,45451.000000,23007.000000
19765.000000,41470.000000,45456.000000,23024.000000
19796.000000,41464.000000,45443.000000,22995.000000
19747.000000,41448.000000,45450.000000,22998.000000
19759.000000,41474.000000,45435.000000,22996.000000
19763.000000,41463.000000,45451.000000,23010.000000
19758.000000,41449.000000,45416.000000,23021.000000
19734.000000,41411.000000,45406.000000,22980.000000
19708.000000,41404.000000,45422.000000,23013.000000
19686.000000,41390.000000,45406.000000,22951.000000
19677.000000,41374.000000,45386.000000,22956.000000
19674.000000,41386.000000,45385.000000,22983.000000
19607.000000,41345.000000,45361.000000,22964.000000
19596.000000,41314.000000,45348.000000,22961.000000
19602.000000,41296.000000,45369.000000,22930.000000
19585.000000,41289.000000,45318.000000,22949.000000
19544.000000,41258.000000,45328.000000,22945.000000
19573.000000,41243.000000,45313.000000,22943.000000
19537.000000,41228.000000,45302.000000,22938.000000
19523.000000,41214.000000,45311.000000,22919.000000
19466.000000,41175.000000,45337.000000,22904.000000
19478.000000,41190.000000,45289.000000,22923.000000
19443.000000,41144.000000,45270.000000,22896.000000
19451.000000,41172.000000,45267.000000,22899.000000
19437.000000,41190.000000,45243.000000,22888.000000
19390.000000,41139.000000,45255.000000,22878.000000
19425.000000,41168.000000,45256.000000,22876.000000
19400.000000,41186.000000,45275.000000,22869.000000
19466.000000,41171.000000,45290.000000,22894.000000
19441.000000,41181.000000,45288.000000,22890.000000
19471.000000,41190.000000,45293.000000,22878.000000
19488.000000,41198.000000,45286.000000,22865.000000
19478.000000,41213.000000,45283.000000,22907.000000
19470.000000,41218.000000,45305.000000,22858.000000
19476.000000,41246.000000,45322.000000,22863.000000
19503.000000,41247.000000,45330.000000,22881.000000
19541.000000,41291.000000,45342.000000,22880.000000
19538.000000,41299.000000,45346.000000,22898.000000
19522.000000,41334.000000,45335.000000,22907.000000
19596.000000,41352.000000,45383.000000,22919.000000
19576.000000,41397.000000,45395.000000,22901.000000
19677.000000,41454.000000,45439.000000,22913.000000
19766.000000,41569.000000,45504.000000,22940.000000
19771.000000,41605.000000,45499.000000,22963.000000
19820.000000,41625.000000,45562.000000,22964.000000
19813.000000,41666.000000,45564.000000,22958.000000
19849.000000,41717.000000,45595.000000,22982.000000
19883.000000,41712.000000,45606.000000,22976.000000
20009.000000,41891.000000,45683.000000,23010.000000
20013.000000,41901.000000,45724.000000,23015.000000
20036.000000,41936.000000,45722.000000,23003.000000
20079.000000,42003.000000,45744.000000,23046.000000
20114.000000,41999.000000,45759.000000,23014.000000
20117.000000,42090.000000,45786.000000,23044.000000
20142.000000,42089.000000,45806.000000,23023.000000
20199.000000,42133.000000,45826.000000,23065.000000
20227.000000,42147.000000,45857.000000,23079.000000
20224.000000,42202.000000,45872.000000,23101.000000
20236.000000,42245.000000,45889.000000,23063.000000
20309.000000,42239.000000,45888.000000,23082.000000
20275.000000,42268.000000,45893.000000,23105.000000
20330.000000,42282.000000,45929.000000,23096.000000
20352.000000,42315.000000,45910.000000,23111.000000
20328.000000,42287.000000,45943.000000,23115.000000
20324.000000,42304.000000,45934.000000,23086.000000
20312.000000,42282.000000,45917.000000,23111.000000
20331.000000,42274.000000,45914.000000,23122.000000
20306.000000,42279.000000,45898.000000,23134.000000
20334.000000,42233.000000,45912.000000,23105.000000
20294.000000,42287.000000,45915.000000,23106.000000
20325.000000,42270.000000,45904.000000,23136.000000
20355.000000,42272.000000,45892.000000,23101.000000
20318.000000,42255.000000,45911.000000,23098.000000
20321.000000,42252.000000,45905.000000,23108.000000
20326.000000,42253.000000,45923.000000,23109.000000
20342.000000,42237.000000,45881.000000,23094.000000
20308.000000,42242.000000,45886.000000,23121.000000
20308.000000,42257.000000,45886.000000,23111.000000
20358.000000,42250.000000,45881.000000,23112.000000
20324.000000,42244.000000,45895.000000,23118.000000
20325.000000,42233.000000,45871.000000,23126.000000
20286.000000,42227.000000,45896.000000,23107.000000
20321.000000,42221.000000,45888.000000,23123.000000
20323.000000,42186.000000,45907.000000,23133.000000
20337.000000,42226.000000,45871.000000,23133.000000
20350.000000,42261.000000,45913.000000,23118.000000
20370.000000,42285.000000,45911.000000,23152.000000
20374.000000,42265.000000,45909.000000,23156.000000
20381.000000,42310.000000,45900.000000,23181.000000
20396.000000,42298.000000,45898.000000,23156.000000
20404.000000,42303.000000,45898.000000,23173.000000
20378.000000,42257.000000,45954.000000,23179.000000
20370.000000,42205.000000,45892.000000,23178.000000
20353.000000,42251.000000,45894.000000,23150.000000
20355.000000,42222.000000,45879.000000,23158.000000
20317.000000,42202.000000,45859.000000,23152.000000
20283.000000,42195.000000,45887.000000,23138.000000
20277.000000,42141.000000,45859.000000,23134.000000
20272.000000,42172.000000,45842.000000,23147.000000
20281.000000,42177.000000,45824.000000,23123.000000
20279.000000,42136.000000,45861.000000,23132.000000
20278.000000,42151.000000,45836.000000,23142.000000
20259.000000,42150.000000,45821.000000,23156.000000
20253.000000,42148.000000,45836.000000,23134.000000
20306.000000,42136.000000,45817.000000,23157.000000
20291.000000,42128.000000,45845.000000,23146.000000
20283.000000,42141.000000,45843.000000,23160.000000
20272.000000,42162.000000,45826.000000,23151.000000
20287.000000,42122.000000,45841.000000,23136.000000
20331.000000,42164.000000,45854.000000,23153.000000
20250.000000,42103.000000,45843.000000,23147.000000
20242.000000,42109.000000,45815.000000,23118.000000
20232.000000,42087.000000,45772.000000,23114.000000
20266.000000,42067.000000,45779.000000,23103.000000
20253.000000,42072.000000,45792.000000,23084.000000
20258.000000,42046.000000,45769.000000,23118.000000
20237.000000,42021.000000,45775.000000,23110.000000
20201.000000,42010.000000,45773.000000,23066.000000
20258.000000,41957.000000,45756.000000,23120.000000
20223.000000,41986.000000,45736.000000,23084.000000
20211.000000,41986.000000,45729.000000,23066.000000
20261.000000,42000.000000,45760.000000,23105.000000
20272.000000,42003.000000,45764.000000,23106.000000
20287.000000,42034.000000,45779.000000,23095.000000
20284.000000,42067.000000,45788.000000,23122.000000
20297.000000,42057.000000,45804.000000,23153.000000
20301.000000,42048.000000,45803.000000,23156.000000
20345.000000,42057.000000,45810.000000,23142.000000
20341.000000,42087.000000,45812.000000,23157.000000
20332.000000,42086.000000,45818.000000,23148.000000
20384.000000,42088.000000,45817.000000,23181.000000
20390.000000,42107.000000,45844.000000,23143.000000
20382.000000,42115.000000,45827.000000,23159.000000
20381.000000,42102.000000,45818.000000,23146.000000
20365.000000,42086.000000,45829.000000,23148.000000
20386.000000,42093.000000,45793.000000,23155.000000
20332.000000,42073.000000,45846.000000,23124.000000
20334.000000,42074.000000,45787.000000,23127.000000
20304.000000,42071.000000,45821.000000,23128.000000
20315.000000,42052.000000,45793.000000,23102.000000
20288.000000,42029.000000,45771.000000,23104.000000
20315.000000,42029.000000,45772.000000,23072.000000
20275.000000,42005.000000,45752.000000,23078.000000
20289.000000,42027.000000,45773.000000,23094.000000
20248.000000,42021.000000,45750.000000,23068.000000
20277.000000,41981.000000,45767.000000,23083.000000
20257.000000,42007.000000,45785.000000,23086.000000
20261.000000,41976.000000,45758.000000,23068.000000
20236.000000,41984.000000,45722.000000,23058.000000
20196.000000,41967.000000,45744.000000,23056.000000
20213.000000,41971.000000,45728.000000,23008.000000
20189.000000,41957.000000,45701.000000,23023.000000
20171.000000,41915.000000,45715.000000,23003.000000
20173.000000,41924.000000,45714.000000,23011.000000
20128.000000,41896.000000,45721.000000,22993.000000
20130.000000,41895.000000,45659.000000,22993.000000
20113.000000,41898.000000,45689.000000,22984.000000
20103.000000,41869.000000,45704.000000,22969.000000
20096.000000,41839.000000,45671.000000,22967.000000
20094.000000,41814.000000,45678.000000,22952.000000
20071.000000,41824.000000,45676.000000,22975.000000
20074.000000,41828.000000,45664.000000,22958.000000
20053.000000,41807.000000,45667.000000,22954.000000
20098.000000,41820.000000,45670.000000,22939.000000
20063.000000,41827.000000,45670.000000,22954.000000
20080.000000,41793.000000,45652.000000,22976.000000
20061.000000,41853.000000,45671.000000,22957.000000
20095.000000,41832.000000,45674.000000,22940.000000
20117.000000,41872.000000,45710.000000,22968.000000
20132.000000,41881.000000,45671.000000,22962.000000
20125.000000,41862.000000,45674.000000,22969.000000
20154.000000,41921.000000,45683.000000,22986.000000
20233.000000,41980.000000,45765.000000,22984.000000
20238.000000,41983.000000,45733.000000,23000.000000
20259.000000,42018.000000,45779.000000,22998.000000
20297.000000,42050.000000,45802.000000,23020.000000
20323.000000,42095.000000,45817.000000,23029.000000
20357.000000,42103.000000,45839.000000,23032.000000
20451.000000,42220.000000,45882.000000,23046.000000
20485.000000,42218.000000,45927.000000,23056.000000
20511.000000,42295.000000,45964.000000,23061.000000
20565.000000,42338.000000,45953.000000,23089.000000
20634.000000,42431.000000,46025.000000,23110.000000
20695.000000,42520.000000,46026.000000,23123.000000
20733.000000,42524.000000,46053.000000,23115.000000
20763.000000,42562.000000,46078.000000,23133.000000
20821.000000,42623.000000,46120.000000,23164.000000
21005.000000,42830.000000,46248.000000,23217.000000
21077.000000,42894.000000,46294.000000,23234.000000
21100.000000,42928.000000,46328.000000,23222.000000
21144.000000,42981.000000,46331.000000,23288.000000
21191.000000,43046.000000,46351.000000,23277.000000
21332.000000,43177.000000,46440.000000,23324.000000
21365.000000,43237.000000,46516.000000,23317.000000
21419.000000,43285.000000,46503.000000,23337.000000
21455.000000,43360.000000,46548.000000,23362.000000
21507.000000,43404.000000,46575.000000,23364.000000
21556.000000,43456.000000,46607.000000,23384.000000
21598.000000,43451.000000,46636.000000,23403.000000
21650.000000,43549.000000,46668.000000,23425.000000
21679.000000,43592.000000,46669.000000,23407.000000
21676.000000,43608.000000,46693.000000,23446.000000
21730.000000,43646.000000,46674.000000,23433.000000
21733.000000,43618.000000,46729.000000,23434.000000
21756.000000,43661.000000,46745.000000,23458.000000
21769.000000,43685.000000,46719.000000,23455.000000
21741.000000,43669.000000,46760.000000,23443.000000
21769.000000,43682.000000,46707.000000,23436.000000
21714.000000,43639.000000,46730.000000,23415.000000
21741.000000,43651.000000,46711.000000,23444.000000
21718.000000,43654.000000,46743.000000,23425.000000
21725.000000,43672.000000,46716.000000,23436.000000
21706.000000,43626.000000,46706.000000,23431.000000
21724.000000,43638.000000,46720.000000,23436.000000
21725.000000,43626.000000,46721.000000,23417.000000
21684.000000,43653.000000,46714.000000,23396.000000
21675.000000,43591.000000,46711.000000,23404.000000
21699.000000,43595.000000,46705.000000,23427.000000
21647.000000,43624.000000,46659.000000,23373.000000
21635.000000,43570.000000,46671.000000,23376.000000
21658.000000,43590.000000,46666.000000,23345.000000
21649.000000,43558.000000,46685.000000,23377.000000
21641.000000,43558.000000,46656.000000,23384.000000
21629.000000,43598.000000,46650.000000,23393.000000
21617.000000,43549.000000,46669.000000,23385.000000
21607.000000,43537.000000,46686.000000,23385.000000
21596.000000,43554.000000,46658.000000,23381.000000
21638.000000,43546.000000,46649.000000,23361.000000
21585.000000,43535.000000,46639.000000,23361.000000
21566.000000,43517.000000,46610.000000,23372.000000
21590.000000,43522.000000,46619.000000,23334.000000
21575.000000,43497.000000,46622.000000,23350.000000
21563.000000,43494.000000,46638.000000,23347.000000
21541.000000,43477.000000,46613.000000,23327.000000
21533.000000,43432.000000,46574.000000,23309.000000
21480.000000,43439.000000,46578.000000,23317.000000
21454.000000,43419.000000,46615.000000,23325.000000
21488.000000,43401.000000,46573.000000,23330.000000
21450.000000,43394.000000,46580.000000,23304.000000
21438.000000,43390.000000,46564.000000,23316.000000
21446.000000,43361.000000,46556.000000,23302.000000
21435.000000,43324.000000,46554.000000,23284.000000
21442.000000,43330.000000,46537.000000,23281.000000
21408.000000,43364.000000,46539.000000,23286.000000
21377.000000,43362.000000,46517.000000,23257.000000
21358.000000,43304.000000,46530.000000,23283.000000
21381.000000,43296.000000,46521.000000,23259.000000
21330.000000,43282.000000,46498.000000,23243.000000
21299.000000,43222.000000,46464.000000,23258.000000
21313.000000,43232.000000,46478.000000,23233.000000
21285.000000,43232.000000,46468.000000,23247.000000
21282.000000,43204.000000,46451.000000,23217.000000
21223.000000,43174.000000,46423.000000,23214.000000
21225.000000,43158.000000,46438.000000,23207.000000
21222.000000,43165.000000,46413.000000,23217.000000
21196.000000,43155.000000,46388.000000,23209.000000
21180.000000,43124.000000,46383.000000,23167.000000
21163.000000,43106.000000,46376.000000,23188.000000
21160.000000,43063.000000,46360.000000,23212.000000
21134.000000,43079.000000,46362.000000,23173.000000
21114.000000,43045.000000,46352.000000,23186.000000
21078.000000,43036.000000,46365.000000,23189.000000
21101.000000,43005.000000,46349.000000,23170.000000
21076.000000,42984.000000,46330.000000,23182.000000
21047.000000,42978.000000,46282.000000,23127.000000
21018.000000,42946.000000,46324.000000,23148.000000
20967.000000,42881.000000,46282.000000,23140.000000
20930.000000,42883.000000,46284.000000,23138.000000
20955.000000,42849.000000,46238.000000,23151.000000
20954.000000,42872.000000,46269.000000,23158.000000
20938.000000,42860.000000,46250.000000,23135.000000
20962.000000,42852.000000,46226.000000,23125.000000
20886.000000,42802.000000,46226.000000,23140.000000
20881.000000,42753.000000,46223.000000,23129.000000
20880.000000,42795.000000,46220.000000,23138.000000
20857.000000,42736.000000,46199.000000,23143.000000
20867.000000,42727.000000,46194.000000,23116.000000
20867.000000,42757.000000,46190.000000,23114.000000
20829.000000,42752.000000,46173.000000,23125.000000
20831.000000,42760.000000,46176.000000,23134.000000
20852.000000,42738.000000,46194.000000,23138.000000
20846.000000,42698.000000,46167.000000,23116.000000
20802.000000,42708.000000,46142.000000,23145.000000
20817.000000,42685.000000,46164.000000,23147.000000
20807.000000,42705.000000,46149.000000,23125.000000
20806.000000,42645.000000,46152.000000,23126.000000
20810.000000,42644.000000,46147.000000,23116.000000
20792.000000,42685.000000,46161.000000,23138.000000
20811.000000,42667.000000,46129.000000,23132.000000
20779.000000,42694.000000,46118.000000,23133.000000
20763.000000,42634.000000,46156.000000,23124.000000
20791.000000,42626.000000,46137.000000,23120.000000
20779.000000,42638.000000,46148.000000,23129.000000
20742.000000,42599.000000,46120.000000,23129.000000
20771.000000,42605.000000,46113.000000,23093.000000
20742.000000,42599.000000,46148.000000,23105.000000
20770.000000,42630.000000,46109.000000,23140.000000
20743.000000,42607.000000,46102.000000,23114.000000
20721.000000,42588.000000,46110.000000,23117.000000
20758.000000,42542.000000,46083.000000,23123.000000
20729.000000,42596.000000,46096.000000,23132.000000
20765.000000,42568.000000,46111.000000,23125.000000
20717.000000,42548.000000,46083.000000,23117.000000
20703.000000,42584.000000,46105.000000,23113.000000
20714.000000,42551.000000,46076.000000,23116.000000
20684.000000,42542.000000,46089.000000,23130.000000
20694.000000,42536.000000,46079.000000,23097.000000
20691.000000,42542.000000,46068.000000,23083.000000
20714.000000,42532.000000,46053.000000,23102.000000
20706.000000,42527.000000,46056.000000,23110.000000
20679.000000,42503.000000,46053.000000,23113.000000
20656.000000,42515.000000,46060.000000,23081.000000
20650.000000,42513.000000,46033.000000,23112.000000
20653.000000,42523.000000,46059.000000,23104.000000
20651.000000,42497.000000,46060.000000,23099.000000
20664.000000,42503.000000,46056.000000,23091.000000
20676.000000,42542.000000,46050.000000,23112.000000
20682.000000,42529.000000,46083.000000,23109.000000
20676.000000,42536.000000,46109.000000,23112.000000
20713.000000,42530.000000,46084.000000,23103.000000
20699.000000,42583.000000,46072.000000,23101.000000
20718.000000,42573.000000,46088.000000,23105.000000
20736.000000,42584.000000,46114.000000,23116.000000
20778.000000,42664.000000,46144.000000,23120.000000
20829.000000,42655.000000,46174.000000,23115.000000
20805.000000,42684.000000,46154.000000,23132.000000
20858.000000,42729.000000,46197.000000,23146.000000
20864.000000,42723.000000,46194.000000,23134.000000
20881.000000,42782.000000,46216.000000,23175.000000
20921.000000,42766.000000,46214.000000,23177.000000
20902.000000,42818.000000,46238.000000,23156.000000
20940.000000,42834.000000,46261.000000,23175.000000
20958.000000,42875.000000,46251.000000,23153.000000
20976.000000,42885.000000,46289.000000,23189.000000
21021.000000,42921.000000,46312.000000,23210.000000
21032.000000,42951.000000,46313.000000,23195.000000
21147.000000,43065.000000,46388.000000,23193.000000
21176.000000,43067.000000,46387.000000,23238.000000
21214.000000,43138.000000,46394.000000,23230.000000
21234.000000,43144.000000,46436.000000,23268.000000
21267.000000,43230.000000,46454.000000,23281.000000
21295.000000,43244.000000,46488.000000,23269.000000
21366.000000,43283.000000,46481.000000,23303.000000
21417.000000,43298.000000,46539.000000,23292.000000
21424.000000,43319.000000,46560.000000,23324.000000
21472.000000,43375.000000,46572.000000,23310.000000
21669.000000,43588.000000,46699.000000,23380.000000
21676.000000,43607.000000,46769.000000,23395.000000
21710.000000,43673.000000,46724.000000,23416.000000
21725.000000,43712.000000,46757.000000,23406.000000
21781.000000,43700.000000,46790.000000,23453.000000
21800.000000,43773.000000,46806.000000,23425.000000
21794.000000,43779.000000,46809.000000,23434.000000
21847.000000,43748.000000,46811.000000,23442.000000
21767.000000,43805.000000,46792.000000,23443.000000
21784.000000,43738.000000,46806.000000,23414.000000
21820.000000,43776.000000,46774.000000,23434.000000
21779.000000,43732.000000,46808.000000,23403.000000
21809.000000,43728.000000,46785.000000,23404.000000
21746.000000,43735.000000,46757.000000,23409.000000
21778.000000,43693.000000,46777.000000,23458.000000
21740.000000,43693.000000,46756.000000,23415.000000
21716.000000,43671.000000,46739.000000,23437.000000
21717.000000,43695.000000,46758.000000,23409.000000
21726.000000,43644.000000,46756.000000,23386.000000
21747.000000,43653.000000,46741.000000,23419.000000
21677.000000,43680.000000,46744.000000,23404.000000
21727.000000,43647.000000,46732.000000,23421.000000
21694.000000,43663.000000,46726.000000,23397.000000
21703.000000,43604.000000,46712.000000,23404.000000
21678.000000,43647.000000,46692.000000,23384.000000
21666.000000,43592.000000,46691.000000,23386.000000
21649.000000,43581.000000,46711.000000,23387.000000
21644.000000,43596.000000,46680.000000,23394.000000
21626.000000,43584.000000,46657.000000,23393.000000
21623.000000,43526.000000,46617.000000,23411.000000
21596.000000,43535.000000,46646.000000,23389.000000
21603.000000,43527.000000,46670.000000,23409.000000
21639.000000,43510.000000,46658.000000,23420.000000
21600.000000,43497.000000,46648.000000,23395.000000
21585.000000,43488.000000,46635.000000,23438.000000
21605.000000,43496.000000,46646.000000,23419.000000
21626.000000,43507.000000,46635.000000,23400.000000
21589.000000,43509.000000,46648.000000,23409.000000
21611.000000,43499.000000,46636.000000,23408.000000
21585.000000,43449.000000,46618.000000,23440.000000
21623.000000,43516.000000,46646.000000,23418.000000
21587.000000,43483.000000,46637.000000,23442.000000
21584.000000,43485.000000,46620.000000,23399.000000
21566.000000,43515.000000,46645.000000,23421.000000
21583.000000,43479.000000,46615.000000,23443.000000
21588.000000,43486.000000,46641.000000,23423.000000
21578.000000,43473.000000,46620.000000,23433.000000
21633.000000,43461.000000,46625.000000,23453.000000
21614.000000,43463.000000,46644.000000,23447.000000
21606.000000,43423.000000,46627.000000,23450.000000
21585.000000,43439.000000,46617.000000,23463.000000
21577.000000,43426.000000,46649.000000,23428.000000
21574.000000,43422.000000,46590.000000,23471.000000
21542.000000,43435.000000,46640.000000,23469.000000
21567.000000,43416.000000,46598.000000,23450.000000
21535.000000,43428.000000,46623.000000,23445.000000
21542.000000,43394.000000,46612.000000,23438.000000
21517.000000,43384.000000,46575.000000,23434.000000
21506.000000,43360.000000,46604.000000,23417.000000
21478.000000,43368.000000,46563.000000,23435.000000
21466.000000,43373.000000,46579.000000,23440.000000
21470.000000,43313.000000,46556.000000,23430.000000
21460.000000,43338.000000,46539.000000,23434.000000
21454.000000,43304.000000,46546.000000,23428.000000
21454.000000,43327.000000,46568.000000,23432.000000
21471.000000,43318.000000,46564.000000,23423.000000
21482.000000,43310.000000,46559.000000,23459.000000
21453.000000,43308.000000,46562.000000,23416.000000
21470.000000,43325.000000,46538.000000,23454.000000
21423.000000,43317.000000,46527.000000,23422.000000
21451.000000,43283.000000,46551.000000,23432.000000
21494.000000,43317.000000,46546.000000,23422.000000
21470.000000,43294.000000,46539.000000,23426.000000
21438.000000,43317.000000,46527.000000,23449.000000
21433.000000,43279.000000,46517.000000,23408.000000
21449.000000,43299.000000,46510.000000,23428.000000
21452.000000,43270.000000,46534.000000,23431.000000
21428.000000,43267.000000,46505.000000,23404.000000
21428.000000,43261.000000,46504.000000,23422.000000
21433.000000,43236.000000,46504.000000,23405.000000
21422.000000,43263.000000,46500.000000,23381.000000
21429.000000,43228.000000,46490.000000,23430.000000
21411.000000,43230.000000,46503.000000,23409.000000
21391.000000,43189.000000,46493.000000,23390.000000
21386.000000,43178.000000,46471.000000,23395.000000
21354.000000,43219.000000,46471.000000,23383.000000
21343.000000,43167.000000,46445.000000,23385.000000
21371.000000,43106.000000,46428.000000,23390.000000
21301.000000,43136.000000,46425.000000,23372.000000
21326.000000,43115.000000,46403.000000,23360.000000
21274.000000,43089.000000,46374.000000,23346.000000
21224.000000,43013.000000,46416.000000,23330.000000
21236.000000,43021.000000,46378.000000,23333.000000
21172.000000,43011.000000,46391.000000,23343.000000
21200.000000,42984.000000,46346.000000,23311.000000
21155.000000,42945.000000,46342.000000,23314.000000
21115.000000,42896.000000,46283.000000,23299.000000
21088.000000,42868.000000,46288.000000,23284.000000
21047.000000,42842.000000,46260.000000,23311.000000
21007.000000,42821.000000,46273.000000,23283.000000
21009.000000,42797.000000,46282.000000,23272.000000
20984.000000,42760.000000,46226.000000,23260.000000
20912.000000,42727.000000,46182.000000,23264.000000
20924.000000,42692.000000,46195.000000,23247.000000
20923.000000,42690.000000,46169.000000,23231.000000
20897.000000,42653.000000,46189.000000,23246.000000
20898.000000,42651.000000,46154.000000,23233.000000
20889.000000,42641.000000,46146.000000,23234.000000
20862.000000,42610.000000,46153.000000,23255.000000
20847.000000,42585.000000,46107.000000,23231.000000
20849.000000,42585.000000,46142.000000,23204.000000
20826.000000,42593.000000,46099.000000,23217.000000
20803.000000,42587.000000,46111.000000,23216.000000
20831.000000,42559.000000,46097.000000,23230.000000
20823.000000,42552.000000,46075.000000,23212.000000
20835.000000,42550.000000,46105.000000,23204.000000
20808.000000,42539.000000,46090.000000,23230.000000
20821.000000,42536.000000,46122.000000,23206.000000
20811.000000,42517.000000,46095.000000,23229.000000
20796.000000,42524.000000,46074.000000,23241.000000
20771.000000,42494.000000,46066.000000,23233.000000
20787.000000,42504.000000,46106.000000,23215.000000
20750.000000,42470.000000,46084.000000,23218.000000
20744.000000,42443.000000,46031.000000,23206.000000
20710.000000,42448.000000,46024.000000,23214.000000
20690.000000,42406.000000,46034.000000,23169.000000
20691.000000,42421.000000,46005.000000,23174.000000
20646.000000,42384.000000,46015.000000,23199.000000
20646.000000,42395.000000,46003.000000,23148.000000
20586.000000,42317.000000,45982.000000,23164.000000
20594.000000,42330.000000,45984.000000,23170.000000
20583.000000,42328.000000,45994.000000,23153.000000
20558.000000,42299.000000,45999.000000,23156.000000
20576.000000,42317.000000,45955.000000,23133.000000
20569.000000,42263.000000,45966.000000,23157.000000
20577.000000,42271.000000,45965.000000,23158.000000
20544.000000,42304.000000,45971.000000,23155.000000
20592.000000,42328.000000,45979.000000,23170.000000
20621.000000,42355.000000,45974.000000,23129.000000
20625.000000,42338.000000,45980.000000,23160.000000
20659.000000,42375.000000,46002.000000,23162.000000
20656.000000,42396.000000,46023.000000,23173.000000
20656.000000,42431.000000,46024.000000,23161.000000
20688.000000,42421.000000,46030.000000,23167.000000
20721.000000,42469.000000,46036.000000,23174.000000
20740.000000,42459.000000,46074.000000,23167.000000
20736.000000,42492.000000,46073.000000,23191.000000
20784.000000,42468.000000,46108.000000,23198.000000
20828.000000,42535.000000,46088.000000,23216.000000
20825.000000,42603.000000,46098.000000,23211.000000
20862.000000,42605.000000,46097.000000,23206.000000
20941.000000,42703.000000,46183.000000,23235.000000
20945.000000,42704.000000,46220.000000,23247.000000
20999.000000,42774.000000,46230.000000,23294.000000
21019.000000,42803.000000,46256.000000,23286.000000
21138.000000,42907.000000,46291.000000,23316.000000
21178.000000,42927.000000,46325.000000,23307.000000
21230.000000,43004.000000,46377.000000,23342.000000
21248.000000,43026.000000,46366.000000,23345.000000
21312.000000,43062.000000,46430.000000,23346.000000
21409.000000,43186.000000,46491.000000,23450.000000
21548.000000,43348.000000,46569.000000,23472.000000
21555.000000,43376.000000,46600.000000,23489.000000
21673.000000,43413.000000,46610.000000,23513.000000
21656.000000,43471.000000,46638.000000,23520.000000
21700.000000,43471.000000,46641.000000,23544.000000
21761.000000,43503.000000,46648.000000,23524.000000
21779.000000,43540.000000,46705.000000,23544.000000
21780.000000,43535.000000,46703.000000,23550.000000
21813.000000,43586.000000,46712.000000,23566.000000
21829.000000,43572.000000,46727.000000,23586.000000
21818.000000,43590.000000,46722.000000,23572.000000
21834.000000,43579.000000,46740.000000,23564.000000
21811.000000,43585.000000,46719.000000,23576.000000
21793.000000,43590.000000,46708.000000,23554.000000
21778.000000,43554.000000,46704.000000,23579.000000
21764.000000,43545.000000,46710.000000,23572.000000
21774.000000,43548.000000,46691.000000,23567.000000
21764.000000,43556.000000,46685.000000,23552.000000
21740.000000,43570.000000,46719.000000,23539.000000
21736.000000,43504.000000,46701.000000,23561.000000
21705.000000,43530.000000,46695.000000,23556.000000
21711.000000,43505.000000,46673.000000,23538.000000
21628.000000,43434.000000,46623.000000,23500.000000
21592.000000,43426.000000,46608.000000,23482.000000
21587.000000,43406.000000,46581.000000,23481.000000
21551.000000,43394.000000,46601.000000,23480.000000
21538.000000,43388.000000,46602.000000,23435.000000
21533.000000,43316.000000,46591.000000,23459.000000
21507.000000,43305.000000,46528.000000,23451.000000
21513.000000,43271.000000,46543.000000,23439.000000
21466.000000,43297.000000,46530.000000,23432.000000
21473.000000,43270.000000,46545.000000,23455.000000
21469.000000,43272.000000,46508.000000,23431.000000
21455.000000,43227.000000,46518.000000,23415.000000
21458.000000,43216.000000,46501.000000,23444.000000
21406.000000,43206.000000,46497.000000,23436.000000
21437.000000,43195.000000,46482.000000,23414.000000
21437.000000,43222.000000,46482.000000,23438.000000
21420.000000,43181.000000,46497.000000,23408.000000
21458.000000,43182.000000,46468.000000,23398.000000
21419.000000,43193.000000,46461.000000,23439.000000
21416.000000,43172.000000,46454.000000,23417.000000
21426.000000,43153.000000,46448.000000,23438.000000
21442.000000,43154.000000,46443.000000,23405.000000
21421.000000,43169.000000,46427.000000,23436.000000
21431.000000,43152.000000,46446.000000,23404.000000
21399.000000,43146.000000,46455.000000,23420.000000
21432.000000,43104.000000,46456.000000,23440.000000
21392.000000,43135.000000,46433.000000,23429.000000
21405.000000,43083.000000,46449.000000,23425.000000
21405.000000,43084.000000,46418.000000,23424.000000
21376.000000,43065.000000,46403.000000,23411.000000
21388.000000,43072.000000,46411.000000,23396.000000
21343.000000,43050.000000,46415.000000,23407.000000
21360.000000,43041.000000,46380.000000,23396.000000
21337.000000,43014.000000,46378.000000,23398.000000
21306.000000,42964.000000,46389.000000,23397.000000
21271.000000,42994.000000,46374.000000,23403.000000
21273.000000,43008.000000,46362.000000,23348.000000
21248.000000,42937.000000,46343.000000,23355.000000
21197.000000,42969.000000,46325.000000,23363.000000
21223.000000,42926.000000,46306.000000,23365.000000
21185.000000,42920.000000,46303.000000,23360.000000
21179.000000,42883.000000,46329.000000,23358.000000
21176.000000,42879.000000,46279.000000,23313.000000
21129.000000,42844.000000,46279.000000,23341.000000
21159.000000,42853.000000,46281.000000,23307.000000
21118.000000,42800.000000,46276.000000,23325.000000
21108.000000,42798.000000,46254.000000,23320.000000
21110.000000,42795.000000,46242.000000,23313.000000
21077.000000,42736.000000,46217.000000,23311.000000
21074.000000,42757.000000,46216.000000,23295.000000
21040.000000,42716.000000,46243.000000,23309.000000
21023.000000,42730.000000,46192.000000,23306.000000
21031.000000,42714.000000,46212.000000,23301.000000
21064.000000,42692.000000,46194.000000,23318.000000
21037.000000,42729.000000,46198.000000,23301.000000
21043.000000,42708.000000,46212.000000,23307.000000
21041.000000,42687.000000,46199.000000,23318.000000
21038.000000,42693.000000,46205.000000,23298.000000
21076.000000,42705.000000,46183.000000,23302.000000
21037.000000,42672.000000,46209.000000,23310.000000
21057.000000,42683.000000,46187.000000,23345.000000
21049.000000,42669.000000,46158.000000,23300.000000
21016.000000,42641.000000,46183.000000,23333.000000
21060.000000,42675.000000,46180.000000,23321.000000
21052.000000,42647.000000,46185.000000,23326.000000
21066.000000,42641.000000,46181.000000,23311.000000
21040.000000,42661.000000,46169.000000,23327.000000
21056.000000,42621.000000,46154.000000,23331.000000
21030.000000,42622.000000,46130.000000,23323.000000
21024.000000,42624.000000,46176.000000,23312.000000
21018.000000,42585.000000,46174.000000,23353.000000
20990.000000,42598.000000,46158.000000,23310.000000
21049.000000,42627.000000,46149.000000,23329.000000
21019.000000,42577.000000,46120.000000,23325.000000
21008.000000,42544.000000,46136.000000,23345.000000
20998.000000,42575.000000,46108.000000,23338.000000
20977.000000,42550.000000,46128.000000,23311.000000
20978.000000,42542.000000,46113.000000,23325.000000
20999.000000,42532.000000,46141.000000,23327.000000
20987.000000,42508.000000,46086.000000,23330.000000
20939.000000,42537.000000,46100.000000,23320.000000
20976.000000,42524.000000,46100.000000,23312.000000
20976.000000,42503.000000,46088.000000,23312.000000
20920.000000,42486.000000,46072.000000,23325.000000
20903.000000,42465.000000,46076.000000,23269.000000
20938.000000,42487.000000,46050.000000,23305.000000
20901.000000,42482.000000,46036.000000,23307.000000
20875.000000,42468.000000,46063.000000,23286.000000
20914.000000,42449.000000,46062.000000,23311.000000
20878.000000,42426.000000,46036.000000,23303.000000
20844.000000,42408.000000,46030.000000,23319.000000
20859.000000,42407.000000,46029.000000,23293.000000
20874.000000,42389.000000,46014.000000,23308.000000
20859.000000,42399.000000,46037.000000,23282.000000
20879.000000,42371.000000,46007.000000,23297.000000
20827.000000,42359.000000,46032.000000,23270.000000
20780.000000,42377.000000,45996.000000,23271.000000
20809.000000,42342.000000,45999.000000,23278.000000
20829.000000,42350.000000,46015.000000,23250.000000
20747.000000,42303.000000,45958.000000,23245.000000
20708.000000,42256.000000,45994.000000,23209.000000
20766.000000,42240.000000,45957.000000,23231.000000
20726.000000,42237.000000,45964.000000,23242.000000
20733.000000,42212.000000,45945.000000,23220.000000
20687.000000,42198.000000,45920.000000,23225.000000
20668.000000,42202.000000,45930.000000,23231.000000
20618.000000,42188.000000,45898.000000,23199.000000
20659.000000,42182.000000,45911.000000,23195.000000
20613.000000,42185.000000,45903.000000,23192.000000
20649.000000,42143.000000,45901.000000,23206.000000
20604.000000,42198.000000,45915.000000,23164.000000
20638.000000,42194.000000,45912.000000,23194.000000
20642.000000,42173.000000,45923.000000,23173.000000
20643.000000,42254.000000,45917.000000,23175.000000
20630.000000,42249.000000,45927.000000,23208.000000
20700.000000,42247.000000,45926.000000,23172.000000
20670.000000,42287.000000,45956.000000,23161.000000
20682.000000,42280.000000,45985.000000,23169.000000
20727.000000,42300.000000,45977.000000,23181.000000
20726.000000,42334.000000,46000.000000,23173.000000
20798.000000,42400.000000,46035.000000,23204.000000
20848.000000,42426.000000,46046.000000,23235.000000
20864.000000,42482.000000,46097.000000,23228.000000
20920.000000,42528.000000,46088.000000,23254.000000
20948.000000,42573.000000,46097.000000,23210.000000
20992.000000,42578.000000,46181.000000,23240.000000
21049.000000,42613.000000,46178.000000,23270.000000
21041.000000,42680.000000,46187.000000,23273.000000
21125.000000,42689.000000,46196.000000,23282.000000
21139.000000,42803.000000,46242.000000,23281.000000
21182.000000,42785.000000,46255.000000,23302.000000
21201.000000,42860.000000,46289.000000,23331.000000
21322.000000,42981.000000,46378.000000,23350.000000
21384.000000,43004.000000,46396.000000,23366.000000
21443.000000,43007.000000,46384.000000,23377.000000
21461.000000,43106.000000,46430.000000,23395.000000
21502.000000,43139.000000,46458.000000,23389.000000
21544.000000,43174.000000,46508.000000,23384.000000
21569.000000,43228.000000,46468.000000,23428.000000
21597.000000,43212.000000,46513.000000,23426.000000
21630.000000,43336.000000,46580.000000,23463.000000
21701.000000,43354.000000,46584.000000,23434.000000
21690.000000,43387.000000,46615.000000,23456.000000
21690.000000,43430.000000,46620.000000,23456.000000
21697.000000,43413.000000,46627.000000,23422.000000
21665.000000,43436.000000,46598.000000,23470.000000
21688.000000,43412.000000,46601.000000,23481.000000
21689.000000,43415.000000,46645.000000,23454.000000
21693.000000,43414.000000,46632.000000,23471.000000
21723.000000,43410.000000,46604.000000,23456.000000
21659.000000,43409.000000,46589.000000,23459.000000
21679.000000,43429.000000,46629.000000,23472.000000
21660.000000,43401.000000,46657.000000,23440.000000
21667.000000,43391.000000,46624.000000,23485.000000
21628.000000,43379.000000,46636.000000,23447.000000
21660.000000,43343.000000,46587.000000,23459.000000
21632.000000,43366.000000,46603.000000,23476.000000
21583.000000,43367.000000,46607.000000,23448.000000
21592.000000,43339.000000,46577.000000,23472.000000
21569.000000,43358.000000,46589.000000,23466.000000
21491.000000,43292.000000,46560.000000,23437.000000
21538.000000,43280.000000,46537.000000,23453.000000
21508.000000,43303.000000,46537.000000,23453.000000
21491.000000,43252.000000,46528.000000,23447.000000
21488.000000,43255.000000,46540.000000,23443.000000
21495.000000,43243.000000,46548.000000,23434.000000
21446.000000,43271.000000,46520.000000,23452.000000
21465.000000,43214.000000,46527.000000,23429.000000
21401.000000,43201.000000,46532.000000,23413.000000
21416.000000,43229.000000,46509.000000,23437.000000
21342.000000,43144.000000,46472.000000,23402.000000
21334.000000,43129.000000,46442.000000,23388.000000
21320.000000,43136.000000,46463.000000,23375.000000
21310.000000,43108.000000,46441.000000,23393.000000
21266.000000,43089.000000,46472.000000,23351.000000
21233.000000,43053.000000,46405.000000,23340.000000
21217.000000,43022.000000,46421.000000,23332.000000
21207.000000,43009.000000,46391.000000,23329.000000
21180.000000,42982.000000,46360.000000,23305.000000
21142.000000,42962.000000,46360.000000,23312.000000
21178.000000,42950.000000,46333.000000,23324.000000
21117.000000,42958.000000,46364.000000,23328.000000
21142.000000,42970.000000,46365.000000,23330.000000
21169.000000,42978.000000,46368.000000,23336.000000
21147.000000,42977.000000,46386.000000,23339.000000
21173.000000,42992.000000,46349.000000,23326.000000
21117.000000,42934.000000,46344.000000,23342.000000
21057.000000,42894.000000,46313.000000,23317.000000
21059.000000,42878.000000,46312.000000,23266.000000
20991.000000,42855.000000,46292.000000,23281.000000
20969.000000,42831.000000,46270.000000,23250.000000
20960.000000,42791.000000,46276.000000,23238.000000
20970.000000,42786.000000,46285.000000,23220.000000
20924.000000,42778.000000,46227.000000,23185.000000
20905.000000,42727.000000,46246.000000,23230.000000
20906.000000,42708.000000,46249.000000,23223.000000
20873.000000,42717.000000,46192.000000,23163.000000
20860.000000,42651.000000,46201.000000,23217.000000
20844.000000,42685.000000,46209.000000,23205.000000
20820.000000,42628.000000,46177.000000,23180.000000
20760.000000,42600.000000,46196.000000,23200.000000
20766.000000,42617.000000,46148.000000,23165.000000
20748.000000,42548.000000,46145.000000,23159.000000
20704.000000,42510.000000,46105.000000,23137.000000
20648.000000,42465.000000,46100.000000,23117.000000
20639.000000,42480.000000,46072.000000,23114.000000
20654.000000,42481.000000,46088.000000,23115.000000
20667.000000,42489.000000,46056.000000,23139.000000
20652.000000,42513.000000,46085.000000,23148.000000
20681.000000,42505.000000,46102.000000,23172.000000
20697.000000,42530.000000,46095.000000,23161.000000
20690.000000,42559.000000,46120.000000,23151.000000
20718.000000,42510.000000,46085.000000,23134.000000
20700.000000,42504.000000,46105.000000,23161.000000
20634.000000,42426.000000,46042.000000,23089.000000
20585.000000,42440.000000,46054.000000,23132.000000
20563.000000,42358.000000,46012.000000,23094.000000
20532.000000,42327.000000,45972.000000,23066.000000
20476.000000,42306.000000,45974.000000,23049.000000
20468.000000,42274.000000,45944.000000,23036.000000
20409.000000,42230.000000,45961.000000,22999.000000
20389.000000,42181.000000,45905.000000,23010.000000
20367.000000,42176.000000,45880.000000,22969.000000
20338.000000,42154.000000,45884.000000,22957.000000
20289.000000,42123.000000,45888.000000,22963.000000
20294.000000,42085.000000,45862.000000,22962.000000
20297.000000,42101.000000,45873.000000,23003.000000
20247.000000,42092.000000,45829.000000,22998.000000
20301.000000,42097.000000,45838.000000,23025.000000
20270.000000,42090.000000,45825.000000,23021.000000
20267.000000,42088.000000,45866.000000,23014.000000
20281.000000,42044.000000,45844.000000,22990.000000
20236.000000,42050.000000,45853.000000,23015.000000
20254.000000,42005.000000,45816.000000,22996.000000
20198.000000,41992.000000,45782.000000,22976.000000
20169.000000,41968.000000,45783.000000,22968.000000
20193.000000,41973.000000,45787.000000,22946.000000
20144.000000,41931.000000,45756.000000,22936.000000
20104.000000,41898.000000,45745.000000,22936.000000
20041.000000,41857.000000,45701.000000,22937.000000
20053.000000,41829.000000,45706.000000,22889.000000
20070.000000,41812.000000,45681.000000,22912.000000
20038.000000,41834.000000,45692.000000,22929.000000
20070.000000,41788.000000,45672.000000,22949.000000
20014.000000,41784.000000,45670.000000,22919.000000
19997.000000,41746.000000,45670.000000,22923.000000
20016.000000,41786.000000,45673.000000,22961.000000
19982.000000,41777.000000,45669.000000,22926.000000
19987.000000,41748.000000,45677.000000,22951.000000
20031.000000,41758.000000,45651.000000,22952.000000
19972.000000,41751.000000,45685.000000,22968.000000
20013.000000,41748.000000,45636.000000,22953.000000
19984.000000,41734.000000,45660.000000,22937.000000
20004.000000,41739.000000,45665.000000,22939.000000
19987.000000,41742.000000,45658.000000,22968.000000
20000.000000,41719.000000,45637.000000,22976.000000
20006.000000,41741.000000,45629.000000,22950.000000
20044.000000,41728.000000,45650.000000,22951.000000
20027.000000,41746.000000,45667.000000,22971.000000
20009.000000,41771.000000,45655.000000,22950.000000
20029.000000,41759.000000,45665.000000,22956.000000
20045.000000,41767.000000,45660.000000,22926.000000
20057.000000,41753.000000,45662.000000,22941.000000
20105.000000,41825.000000,45690.000000,22983.000000
20067.000000,41804.000000,45676.000000,23006.000000
20084.000000,41834.000000,45677.000000,22988.000000
20116.000000,41811.000000,45702.000000,22978.000000
20115.000000,41866.000000,45728.000000,23003.000000
20130.000000,41862.000000,45747.000000,22975.000000
20146.000000,41920.000000,45754.000000,22984.000000
20131.000000,41943.000000,45754.000000,22999.000000
20166.000000,41953.000000,45773.000000,23005.000000
20199.000000,41995.000000,45755.000000,22980.000000
20225.000000,41951.000000,45782.000000,22995.000000
20264.000000,42026.000000,45813.000000,23015.000000
20273.000000,42056.000000,45825.000000,22997.000000
20290.000000,42065.000000,45830.000000,22995.000000
20324.000000,42106.000000,45860.000000,23005.000000
20352.000000,42140.000000,45884.000000,23023.000000
20360.000000,42197.000000,45887.000000,23027.000000
20408.000000,42227.000000,45906.000000,23053.000000
20475.000000,42316.000000,45946.000000,23037.000000
20528.000000,42320.000000,45983.000000,23054.000000
20525.000000,42362.000000,46012.000000,23049.000000
20566.000000,42380.000000,46021.000000,23068.000000
20599.000000,42430.000000,46032.000000,23061.000000
20619.000000,42465.000000,46064.000000,23090.000000
20715.000000,42590.000000,46115.000000,23116.000000
20738.000000,42595.000000,46140.000000,23099.000000
20751.000000,42622.000000,46144.000000,23120.000000
20799.000000,42657.000000,46207.000000,23117.000000
20828.000000,42702.000000,46192.000000,23140.000000
20827.000000,42747.000000,46239.000000,23146.000000
20928.000000,42785.000000,46236.000000,23155.000000
20891.000000,42787.000000,46255.000000,23141.000000
20911.000000,42861.000000,46276.000000,23171.000000
20924.000000,42862.000000,46275.000000,23159.000000
20908.000000,42843.000000,46295.000000,23184.000000
20953.000000,42845.000000,46273.000000,23164.000000
20931.000000,42831.000000,46284.000000,23141.000000
20942.000000,42815.000000,46290.000000,23137.000000
20892.000000,42843.000000,46270.000000,23125.000000
20881.000000,42826.000000,46256.000000,23152.000000
20883.000000,42830.000000,46215.000000,23141.000000
20839.000000,42794.000000,46225.000000,23129.000000
20849.000000,42769.000000,46220.000000,23127.000000
20849.000000,42738.000000,46246.000000,23118.000000
20828.000000,42778.000000,46245.000000,23109.000000
20798.000000,42725.000000,46221.000000,23118.000000
20831.000000,42743.000000,46215.000000,23122.000000
20777.000000,42708.000000,46216.000000,23121.000000
20751.000000,42725.000000,46217.000000,23108.000000
20756.000000,42696.000000,46212.000000,23089.000000
20755.000000,42708.000000,46180.000000,23081.000000
20719.000000,42654.000000,46191.000000,23075.000000
20711.000000,42638.000000,46190.000000,23096.000000
20702.000000,42658.000000,46172.000000,23105.000000
20702.000000,42636.000000,46165.000000,23081.000000
20662.000000,42629.000000,46135.000000,23064.000000
20635.000000,42610.000000,46133.000000,23051.000000
20636.000000,42574.000000,46139.000000,23043.000000
20607.000000,42540.000000,46105.000000,23032.000000
20621.000000,42540.000000,46111.000000,23061.000000
20554.000000,42526.000000,46058.000000,23003.000000
20547.000000,42479.000000,46066.000000,23014.000000
20525.000000,42472.000000,46046.000000,22996.000000
20430.000000,42384.000000,46044.000000,22987.000000
20406.000000,42367.000000,46003.000000,22968.000000
20371.000000,42346.000000,46000.000000,22985.000000
20371.000000,42308.000000,45991.000000,22956.000000
20330.000000,42300.000000,45963.000000,22964.000000
20304.000000,42251.000000,45929.000000,22952.000000
20292.000000,42253.000000,45896.000000,22930.000000
20280.000000,42232.000000,45922.000000,22951.000000
20288.000000,42181.000000,45903.000000,22939.000000
20202.000000,42139.000000,45896.000000,22930.000000
20219.000000,42124.000000,45857.000000,22922.000000
20171.000000,42090.000000,45858.000000,22895.000000
20093.000000,41985.000000,45775.000000,22934.000000
20056.000000,41953.000000,45773.000000,22907.000000
20046.000000,41939.000000,45777.000000,22902.000000
20046.000000,41907.000000,45739.000000,22901.000000
19976.000000,41844.000000,45740.000000,22913.000000
19994.000000,41882.000000,45700.000000,22902.000000
19945.000000,41889.000000,45697.000000,22897.000000
19971.000000,41833.000000,45707.000000,22909.000000
19919.000000,41830.000000,45699.000000,22895.000000
19909.000000,41794.000000,45687.000000,22895.000000
19909.000000,41773.000000,45672.000000,22910.000000
19882.000000,41740.000000,45629.000000,22892.000000
19885.000000,41720.000000,45641.000000,22899.000000
19867.000000,41742.000000,45611.000000,22892.000000
19866.000000,41720.000000,45633.000000,22919.000000
19865.000000,41729.000000,45634.000000,22928.000000
19847.000000,41682.000000,45604.000000,22923.000000
19845.000000,41700.000000,45619.000000,22936.000000
19856.000000,41704.000000,45610.000000,22934.000000
19858.000000,41669.000000,45606.000000,22949.000000
19840.000000,41707.000000,45635.000000,22967.000000
19887.000000,41702.000000,45600.000000,22934.000000
19884.000000,41692.000000,45645.000000,22995.000000
19876.000000,41672.000000,45607.000000,22980.000000
19864.000000,41717.000000,45636.000000,22989.000000
19868.000000,41684.000000,45616.000000,22993.000000
19918.000000,41723.000000,45600.000000,23004.000000
19957.000000,41732.000000,45625.000000,23039.000000
19980.000000,41758.000000,45658.000000,23041.000000
19967.000000,41779.000000,45657.000000,23036.000000
19950.000000,41720.000000,45630.000000,23026.000000
19956.000000,41725.000000,45630.000000,23034.000000
19932.000000,41726.000000,45616.000000,23043.000000
19908.000000,41693.000000,45620.000000,22994.000000
19903.000000,41729.000000,45627.000000,23019.000000
19885.000000,41691.000000,45598.000000,23047.000000
19880.000000,41679.000000,45632.000000,23030.000000
19920.000000,41689.000000,45595.000000,23008.000000
19893.000000,41660.000000,45599.000000,22999.000000
19847.000000,41704.000000,45608.000000,23005.000000
19829.000000,41621.000000,45570.000000,23007.000000
19770.000000,41609.000000,45582.000000,22984.000000
19702.000000,41579.000000,45550.000000,22973.000000
19702.000000,41582.000000,45527.000000,22973.000000
19703.000000,41579.000000,45578.000000,22978.000000
19700.000000,41572.000000,45521.000000,22986.000000
19687.000000,41610.000000,45541.000000,22983.000000
19706.000000,41589.000000,45541.000000,22985.000000
19714.000000,41582.000000,45558.000000,22989.000000
19682.000000,41606.000000,45561.000000,22976.000000
19673.000000,41547.000000,45528.000000,22973.000000
19667.000000,41574.000000,45523.000000,22984.000000
19661.000000,41575.000000,45522.000000,22994.000000
19663.000000,41547.000000,45536.000000,22953.000000
19664.000000,41572.000000,45526.000000,22975.000000
19676.000000,41552.000000,45504.000000,22982.000000
19628.000000,41524.000000,45532.000000,22949.000000
19633.000000,41520.000000,45487.000000,22935.000000
19628.000000,41499.000000,45462.000000,22913.000000
19615.000000,41480.000000,45493.000000,22928.000000
19601.000000,41453.000000,45455.000000,22864.000000
19582.000000,41465.000000,45471.000000,22891.000000
19596.000000,41444.000000,45465.000000,22873.000000
19554.000000,41474.000000,45477.000000,22896.000000
19599.000000,41495.000000,45486.000000,22924.000000
19632.000000,41507.000000,45501.000000,22911.000000
19664.000000,41515.000000,45529.000000,22914.000000
19692.000000,41588.000000,45543.000000,22970.000000
19716.000000,41599.000000,45561.000000,22993.000000
19733.000000,41611.000000,45539.000000,23010.000000
19695.000000,41607.000000,45535.000000,22987.000000
19681.000000,41572.000000,45540.000000,22947.000000
19658.000000,41562.000000,45553.000000,22949.000000
19658.000000,41580.000000,45523.000000,22919.000000
19640.000000,41540.000000,45520.000000,22933.000000
19597.000000,41511.000000,45487.000000,22910.000000
19512.000000,41426.000000,45462.000000,22874.000000
19462.000000,41349.000000,45401.000000,22869.000000
19331.000000,41264.000000,45326.000000,22780.000000
19353.000000,41237.000000,45353.000000,22776.000000
19363.000000,41227.000000,45323.000000,22737.000000
19343.000000,41266.000000,45345.000000,22792.000000
19415.000000,41241.000000,45360.000000,22787.000000
19397.000000,41281.000000,45336.000000,22786.000000
19427.000000,41283.000000,45383.000000,22774.000000
19467.000000,41327.000000,45380.000000,22804.000000
19507.000000,41398.000000,45452.000000,22833.000000
19545.000000,41418.000000,45452.000000,22856.000000
19657.000000,41549.000000,45499.000000,22878.000000
19670.000000,41520.000000,45517.000000,22906.000000
19727.000000,41574.000000,45538.000000,22891.000000
19758.000000,41620.000000,45563.000000,22910.000000
19846.000000,41658.000000,45590.000000,22931.000000
19878.000000,41724.000000,45635.000000,22968.000000
19954.000000,41761.000000,45609.000000,22958.000000
19995.000000,41790.000000,45644.000000,22973.000000
20014.000000,41824.000000,45672.000000,22984.000000
20056.000000,41880.000000,45699.000000,22976.000000
20077.000000,41884.000000,45702.000000,23004.000000
20125.000000,41947.000000,45745.000000,22988.000000
20211.000000,42091.000000,45833.000000,23035.000000
20285.000000,42108.000000,45878.000000,23058.000000
20326.000000,42227.000000,45914.000000,23083.000000
20335.000000,42216.000000,45910.000000,23094.000000
20353.000000,42282.000000,45950.000000,23124.000000
20412.000000,42313.000000,45994.000000,23113.000000
20490.000000,42388.000000,46007.000000,23158.000000
20493.000000,42432.000000,46051.000000,23193.000000
20508.000000,42451.000000,46074.000000,23178.000000
20560.000000,42496.000000,46079.000000,23192.000000
20583.000000,42535.000000,46078.000000,23208.000000
20621.000000,42588.000000,46130.000000,23202.000000
20618.000000,42566.000000,46143.000000,23177.000000
20621.000000,42564.000000,46142.000000,23192.000000
20609.000000,42582.000000,46131.000000,23190.000000
20651.000000,42589.000000,46106.000000,23194.000000
20619.000000,42605.000000,46112.000000,23188.000000
20555.000000,42520.000000,46080.000000,23145.000000
20448.000000,42378.000000,45984.000000,23073.000000
20436.000000,42333.000000,45970.000000,23074.000000
20407.000000,42366.000000,45975.000000,23084.000000
20415.000000,42301.000000,45952.000000,23060.000000
20397.000000,42326.000000,45981.000000,23034.000000
20381.000000,42273.000000,45960.000000,23073.000000
20383.000000,42282.000000,45933.000000,23053.000000
20360.000000,42319.000000,45939.000000,23046.000000
20362.000000,42285.000000,45945.000000,23061.000000
20406.000000,42305.000000,45966.000000,23077.000000
20425.000000,42307.000000,45984.000000,23115.000000
20459.000000,42351.000000,45968.000000,23104.000000
20466.000000,42372.000000,46005.000000,23125.000000
20507.000000,42380.000000,45995.000000,23151.000000
20500.000000,42383.000000,46039.000000,23148.000000
20537.000000,42395.000000,46024.000000,23171.000000
20560.000000,42409.000000,46009.000000,23176.000000
20528.000000,42425.000000,46040.000000,23173.000000
20547.000000,42386.000000,46015.000000,23166.000000
20504.000000,42353.000000,46011.000000,23156.000000
20508.000000,42373.000000,45989.000000,23144.000000
20480.000000,42358.000000,45995.000000,23138.000000
20506.000000,42338.000000,45973.000000,23150.000000
20449.000000,42317.000000,45953.000000,23151.000000
20433.000000,42308.000000,45952.000000,23151.000000
20424.000000,42254.000000,45954.000000,23109.000000
20385.000000,42230.000000,45922.000000,23091.000000
20317.000000,42207.000000,45899.000000,23098.000000
20329.000000,42165.000000,45897.000000,23091.000000
20297.000000,42191.000000,45874.000000,23075.000000
20281.000000,42161.000000,45898.000000,23089.000000
20220.000000,42109.000000,45862.000000,23026.000000
20207.000000,42068.000000,45823.000000,23025.000000
20184.000000,42089.000000,45823.000000,23022.000000
20201.000000,42067.000000,45823.000000,23014.000000
20182.000000,42094.000000,45814.000000,23032.000000
20203.000000,42097.000000,45843.000000,23026.000000
20202.000000,42051.000000,45819.000000,23020.000000
20160.000000,42051.000000,45836.000000,23016.000000
20176.000000,42049.000000,45818.000000,22992.000000
20093.000000,41952.000000,45775.000000,22990.000000
20078.000000,41985.000000,45776.000000,22959.000000
20096.000000,41939.000000,45766.000000,22952.000000
20039.000000,41956.000000,45726.000000,22931.000000
20040.000000,41882.000000,45741.000000,22945.000000
20024.000000,41918.000000,45708.000000,22933.000000
19981.000000,41859.000000,45725.000000,22906.000000
20017.000000,41872.000000,45715.000000,22900.000000
19983.000000,41828.000000,45665.000000,22878.000000
19912.000000,41810.000000,45670.000000,22897.000000
19932.000000,41833.000000,45673.000000,22901.000000
19938.000000,41795.000000,45673.000000,22890.000000
19926.000000,41827.000000,45661.000000,22891.000000
19906.000000,41807.000000,45665.000000,22895.000000
19924.000000,41813.000000,45660.000000,22914.000000
19924.000000,41798.000000,45700.000000,22905.000000
19928.000000,41804.000000,45654.000000,22898.000000
19937.000000,41832.000000,45701.000000,22918.000000
19959.000000,41827.000000,45663.000000,22906.000000
19942.000000,41860.000000,45693.000000,22919.000000
19919.000000,41834.000000,45700.000000,22935.000000
19920.000000,41825.000000,45700.000000,22931.000000
19951.000000,41813.000000,45661.000000,22926.000000
19943.000000,41799.000000,45651.000000,22941.000000
19923.000000,41803.000000,45653.000000,22894.000000
19889.000000,41775.000000,45629.000000,22929.000000
19883.000000,41734.000000,45627.000000,22906.000000
19801.000000,41675.000000,45588.000000,22886.000000
19815.000000,41652.000000,45604.000000,22876.000000
19775.000000,41677.000000,45605.000000,22865.000000
19753.000000,41671.000000,45557.000000,22857.000000
19751.000000,41610.000000,45574.000000,22832.000000
19761.000000,41573.000000,45556.000000,22833.000000
19704.000000,41589.000000,45544.000000,22830.000000
19687.000000,41551.000000,45519.000000,22823.000000
19710.000000,41537.000000,45541.000000,22824.000000
19732.000000,41560.000000,45518.000000,22820.000000
19724.000000,41555.000000,45514.000000,22800.000000
19725.000000,41514.000000,45527.000000,22803.000000
19739.000000,41534.000000,45505.000000,22825.000000
19728.000000,41576.000000,45518.000000,22820.000000
19760.000000,41576.000000,45491.000000,22818.000000
19768.000000,41539.000000,45523.000000,22822.000000
19756.000000,41547.000000,45501.000000,22824.000000
19751.000000,41533.000000,45530.000000,22824.000000
19742.000000,41532.000000,45492.000000,22807.000000
19711.000000,41472.000000,45522.000000,22812.000000
19649.000000,41484.000000,45483.000000,22778.000000
19654.000000,41472.000000,45473.000000,22791.000000
19651.000000,41460.000000,45480.000000,22778.000000
19615.000000,41469.000000,45448.000000,22797.000000
19612.000000,41445.000000,45475.000000,22799.000000
19579.000000,41431.000000,45480.000000,22795.000000
19567.000000,41421.000000,45475.000000,22817.000000
19591.000000,41431.000000,45458.000000,22795.000000
19554.000000,41447.000000,45462.000000,22800.000000
19529.000000,41389.000000,45447.000000,22810.000000
19527.000000,41376.000000,45441.000000,22792.000000
19494.000000,41373.000000,45391.000000,22793.000000
19455.000000,41338.000000,45391.000000,22803.000000
19437.000000,41342.000000,45374.000000,22802.000000
19411.000000,41305.000000,45391.000000,22785.000000
19408.000000,41286.000000,45391.000000,22776.000000
19402.000000,41267.000000,45377.000000,22794.000000
19349.000000,41273.000000,45390.000000,22766.000000
19350.000000,41204.000000,45342.000000,22769.000000
19321.000000,41202.000000,45346.000000,22730.000000
19308.000000,41165.000000,45302.000000,22698.000000
19273.000000,41176.000000,45298.000000,22706.000000
19289.000000,41136.000000,45302.000000,22716.000000
19287.000000,41119.000000,45290.000000,22715.000000
19261.000000,41155.000000,45272.000000,22709.000000
19257.000000,41141.000000,45305.000000,22725.000000
19329.000000,41166.000000,45281.000000,22697.000000
19292.000000,41173.000000,45311.000000,22718.000000
19379.000000,41191.000000,45322.000000,22734.000000
19407.000000,41238.000000,45345.000000,22729.000000
19461.000000,41282.000000,45368.000000,22739.000000
19511.000000,41343.000000,45424.000000,22743.000000
19571.000000,41370.000000,45411.000000,22732.000000
19623.000000,41394.000000,45423.000000,22707.000000
19631.000000,41416.000000,45439.000000,22692.000000
19668.000000,41421.000000,45472.000000,22701.000000
19658.000000,41488.000000,45479.000000,22693.000000
19681.000000,41455.000000,45483.000000,22712.000000
19744.000000,41568.000000,45558.000000,22750.000000
19753.000000,41603.000000,45546.000000,22758.000000
19819.000000,41669.000000,45582.000000,22776.000000
19799.000000,41706.000000,45626.000000,22834.000000
19908.000000,41764.000000,45661.000000,22863.000000
19945.000000,41845.000000,45695.000000,22886.000000
20006.000000,41955.000000,45758.000000,22918.000000
20092.000000,42011.000000,45817.000000,22919.000000
20162.000000,42080.000000,45838.000000,22970.000000
20478.000000,42384.000000,46032.000000,23073.000000
20515.000000,42476.000000,46053.000000,23095.000000
20606.000000,42542.000000,46097.000000,23083.000000
20602.000000,42562.000000,46112.000000,23081.000000
20738.000000,42703.000000,46192.000000,23102.000000
20806.000000,42743.000000,46212.000000,23107.000000
20808.000000,42749.000000,46245.000000,23118.000000
20851.000000,42801.000000,46258.000000,23097.000000
20889.000000,42852.000000,46279.000000,23097.000000
20883.000000,42867.000000,46299.000000,23110.000000
20898.000000,42902.000000,46296.000000,23095.000000
20908.000000,42900.000000,46320.000000,23097.000000
20942.000000,42939.000000,46342.000000,23080.000000
20885.000000,42925.000000,46318.000000,23055.000000
20903.000000,42904.000000,46304.000000,23037.000000
20856.000000,42904.000000,46285.000000,23036.000000
20861.000000,42870.000000,46282.000000,23046.000000
20849.000000,42834.000000,46283.000000,23054.000000
20775.000000,42838.000000,46286.000000,23006.000000
20789.000000,42781.000000,46249.000000,23039.000000
20770.000000,42820.000000,46206.000000,23024.000000
20763.000000,42768.000000,46206.000000,23023.000000
20741.000000,42727.000000,46211.000000,22996.000000
20753.000000,42753.000000,46211.000000,23017.000000
20715.000000,42754.000000,46199.000000,22997.000000
20703.000000,42721.000000,46214.000000,23001.000000
20703.000000,42670.000000,46198.000000,22967.000000
20735.000000,42684.000000,46192.000000,23015.000000
20712.000000,42683.000000,46165.000000,22989.000000
20661.000000,42650.000000,46172.000000,22989.000000
20673.000000,42622.000000,46160.000000,22993.000000
20636.000000,42565.000000,46141.000000,22975.000000
20630.000000,42576.000000,46135.000000,22984.000000
20601.000000,42542.000000,46106.000000,22965.000000
20608.000000,42562.000000,46123.000000,22981.000000
20560.000000,42552.000000,46103.000000,22955.000000
20546.000000,42552.000000,46101.000000,22957.000000
20494.000000,42494.000000,46097.000000,22974.000000
20546.000000,42484.000000,46049.000000,22981.000000
20506.000000,42475.000000,46058.000000,22964.000000
20499.000000,42446.000000,46058.000000,22975.000000
20507.000000,42463.000000,46057.000000,22969.000000
20481.000000,42441.000000,46045.000000,22964.000000
20472.000000,42443.000000,46017.000000,22973.000000
20462.000000,42431.000000,46047.000000,22969.000000
20485.000000,42444.000000,46020.000000,22969.000000
20424.000000,42418.000000,46047.000000,22950.000000
20433.000000,42405.000000,46013.000000,22965.000000
20460.000000,42403.000000,46036.000000,22988.000000
20436.000000,42390.000000,46017.000000,22959.000000
20419.000000,42426.000000,46007.000000,22943.000000
20420.000000,42393.000000,46008.000000,22951.000000
20442.000000,42388.000000,45986.000000,22936.000000
20427.000000,42385.000000,46021.000000,22954.000000
20423.000000,42383.000000,45988.000000,22944.000000
20409.000000,42377.000000,46015.000000,22970.000000
20403.000000,42377.000000,45975.000000,22950.000000
20434.000000,42371.000000,45990.000000,22957.000000
20430.000000,42356.000000,46007.000000,22976.000000
20406.000000,42379.000000,46024.000000,22954.000000
20407.000000,42375.000000,45969.000000,22964.000000
20455.000000,42371.000000,45985.000000,22950.000000
20402.000000,42375.000000,46018.000000,22957.000000
20387.000000,42362.000000,46001.000000,22952.000000
20391.000000,42310.000000,46010.000000,22960.000000
20365.000000,42355.000000,45980.000000,22968.000000
20351.000000,42340.000000,45985.000000,22952.000000
20362.000000,42304.000000,45975.000000,22968.000000
20359.000000,42332.000000,45964.000000,22949.000000
20357.000000,42335.000000,45954.000000,22974.000000
20361.000000,42363.000000,45989.000000,22980.000000
20368.000000,42354.000000,45964.000000,22943.000000
20365.000000,42331.000000,45968.000000,22949.000000
20363.000000,42341.000000,46004.000000,22964.000000
20390.000000,42337.000000,45975.000000,22973.000000
20372.000000,42350.000000,46005.000000,22978.000000
20423.000000,42369.000000,46011.000000,22985.000000
20428.000000,42397.000000,46005.000000,22993.000000
20463.000000,42414.000000,46010.000000,23026.000000
20438.000000,42397.000000,46031.000000,23012.000000
20455.000000,42391.000000,46026.000000,22992.000000
20482.000000,42429.000000,46030.000000,23012.000000
20466.000000,42427.000000,46024.000000,23024.000000
20468.000000,42460.000000,46024.000000,23030.000000
20482.000000,42425.000000,46043.000000,23021.000000
20451.000000,42439.000000,46054.000000,23043.000000
20447.000000,42456.000000,46027.000000,23030.000000
20476.000000,42455.000000,46048.000000,23030.000000
20467.000000,42434.000000,46047.000000,23017.000000
20453.000000,42437.000000,46021.000000,23033.000000
20466.000000,42453.000000,46067.000000,22999.000000
20417.000000,42437.000000,46023.000000,23032.000000
20419.000000,42406.000000,46015.000000,22992.000000
20415.000000,42432.000000,46014.000000,22998.000000
20411.000000,42412.000000,46029.000000,22995.000000
20400.000000,42418.000000,46040.000000,22984.000000
20413.000000,42401.000000,46012.000000,22994.000000
20371.000000,42413.000000,46004.000000,23005.000000
20383.000000,42392.000000,46020.000000,22976.000000
20411.000000,42388.000000,46027.000000,22971.000000
20357.000000,42383.000000,46025.000000,22962.000000
20351.000000,42347.000000,45990.000000,22959.000000
20346.000000,42355.000000,46004.000000,22953.000000
20350.000000,42348.000000,45976.000000,22951.000000
20314.000000,42347.000000,45987.000000,22961.000000
20318.000000,42345.000000,45983.000000,22967.000000
20334.000000,42368.000000,45977.000000,22951.000000
20284.000000,42340.000000,45975.000000,22950.000000
20296.000000,42358.000000,45976.000000,22928.000000
20276.000000,42305.000000,45974.000000,22936.000000
20330.000000,42350.000000,45968.000000,22925.000000
20282.000000,42313.000000,45956.000000,22940.000000
20266.000000,42290.000000,45954.000000,22949.000000
20294.000000,42332.000000,45976.000000,22923.000000
20313.000000,42307.000000,45991.000000,22926.000000
20261.000000,42322.000000,45940.000000,22896.000000
20278.000000,42280.000000,45935.000000,22935.000000
20262.000000,42281.000000,45951.000000,22909.000000
20261.000000,42261.000000,45946.000000,22916.000000
20261.000000,42263.000000,45938.000000,22901.000000
20244.000000,42241.000000,45941.000000,22908.000000
20287.000000,42258.000000,45931.000000,22896.000000
20228.000000,42274.000000,45947.000000,22908.000000
20235.000000,42270.000000,45922.000000,22922.000000
20250.000000,42234.000000,45943.000000,22923.000000
20221.000000,42238.000000,45938.000000,22931.000000
20213.000000,42231.000000,45922.000000,22919.000000
20207.000000,42194.000000,45895.000000,22916.000000
20231.000000,42209.000000,45911.000000,22900.000000
20161.000000,42178.000000,45872.000000,22890.000000
20161.000000,42179.000000,45903.000000,22892.000000
20172.000000,42162.000000,45854.000000,22894.000000
20154.000000,42193.000000,45874.000000,22864.000000
20150.000000,42134.000000,45881.000000,22896.000000
20142.000000,42165.000000,45872.000000,22884.000000
20152.000000,42144.000000,45851.000000,22869.000000
20152.000000,42132.000000,45874.000000,22875.000000
20178.000000,42172.000000,45869.000000,22870.000000
20171.000000,42181.000000,45861.000000,22882.000000
20179.000000,42192.000000,45909.000000,22876.000000
20163.000000,42189.000000,45868.000000,22874.000000
20193.000000,42188.000000,45928.000000,22871.000000
20224.000000,42269.000000,45934.000000,22891.000000
20279.000000,42275.000000,45966.000000,22882.000000
20291.000000,42304.000000,45977.000000,22893.000000
20341.000000,42351.000000,45969.000000,22920.000000
20367.000000,42428.000000,46039.000000,22925.000000
20396.000000,42454.000000,46033.000000,22907.000000
20451.000000,42470.000000,46078.000000,22931.000000
20440.000000,42520.000000,46048.000000,22925.000000
20502.000000,42535.000000,46086.000000,22944.000000
20467.000000,42580.000000,46097.000000,22949.000000
20513.000000,42604.000000,46145.000000,22940.000000
20564.000000,42639.000000,46149.000000,22979.000000
20622.000000,42665.000000,46183.000000,22971.000000
20721.000000,42820.000000,46246.000000,23016.000000
20760.000000,42860.000000,46260.000000,23038.000000
20802.000000,42891.000000,46289.000000,23037.000000
20831.000000,42950.000000,46343.000000,23042.000000
20969.000000,43104.000000,46421.000000,23102.000000
21032.000000,43154.000000,46433.000000,23106.000000
21202.000000,43373.000000,46555.000000,23157.000000
21229.000000,43404.000000,46583.000000,23183.000000
21299.000000,43417.000000,46586.000000,23190.000000
21283.000000,43465.000000,46656.000000,23176.000000
21299.000000,43490.000000,46640.000000,23187.000000
21285.000000,43464.000000,46622.000000,23185.000000
21290.000000,43500.000000,46625.000000,23196.000000
21291.000000,43502.000000,46629.000000,23143.000000
21252.000000,43438.000000,46641.000000,23157.000000
21256.000000,43429.000000,46613.000000,23150.000000
21209.000000,43413.000000,46617.000000,23160.000000
21221.000000,43402.000000,46597.000000,23153.000000
21185.000000,43430.000000,46599.000000,23135.000000
21223.000000,43430.000000,46588.000000,23174.000000
21217.000000,43415.000000,46596.000000,23150.000000
21167.000000,43372.000000,46582.000000,23134.000000
21171.000000,43404.000000,46575.000000,23155.000000
21140.000000,43344.000000,46556.000000,23116.000000
21096.000000,43331.000000,46540.000000,23126.000000
21086.000000,43366.000000,46558.000000,23113.000000
21108.000000,43297.000000,46527.000000,23119.000000
21112.000000,43286.000000,46510.000000,23118.000000
21091.000000,43255.000000,46516.000000,23107.000000
21081.000000,43252.000000,46508.000000,23131.000000
21023.000000,43304.000000,46497.000000,23101.000000
21042.000000,43256.000000,46493.000000,23135.000000
21008.000000,43266.000000,46502.000000,23082.000000
21036.000000,43215.000000,46488.000000,23072.000000
21025.000000,43235.000000,46452.000000,23084.000000
20977.000000,43228.000000,46457.000000,23086.000000
20952.000000,43158.000000,46433.000000,23071.000000
20931.000000,43173.000000,46410.000000,23075.000000
20929.000000,43135.000000,46434.000000,23046.000000
20943.000000,43159.000000,46407.000000,23031.000000
20942.000000,43135.000000,46423.000000,23045.000000
20906.000000,43145.000000,46424.000000,23045.000000
20906.000000,43105.000000,46428.000000,23061.000000
20892.000000,43053.000000,46388.000000,23029.000000
20839.000000,43053.000000,46412.000000,23030.000000
20868.000000,43073.000000,46375.000000,23044.000000
20855.000000,43065.000000,46358.000000,23030.000000
20822.000000,43035.000000,46355.000000,23024.000000
20808.000000,43006.000000,46351.000000,23004.000000
20794.000000,42983.000000,46348.000000,23034.000000
20804.000000,43002.000000,46322.000000,23023.000000
20791.000000,42974.000000,46332.000000,23015.000000
20809.000000,42953.000000,46309.000000,23021.000000
20783.000000,42978.000000,46358.000000,23023.000000
20806.000000,42937.000000,46300.000000,23023.000000
20764.000000,42973.000000,46322.000000,23003.000000
20786.000000,42927.000000,46302.000000,23008.000000
20776.000000,42932.000000,46299.000000,23003.000000
20720.000000,42934.000000,46318.000000,22993.000000
20758.000000,42932.000000,46285.000000,23004.000000
20749.000000,42925.000000,46308.000000,23009.000000
20738.000000,42876.000000,46277.000000,22998.000000
20734.000000,42909.000000,46276.000000,23012.000000
20739.000000,42863.000000,46267.000000,23003.000000
20687.000000,42889.000000,46256.000000,23003.000000
20704.000000,42875.000000,46251.000000,23003.000000
20699.000000,42858.000000,46277.000000,23007.000000
20655.000000,42838.000000,46248.000000,22981.000000
20677.000000,42858.000000,46242.000000,22987.000000
20613.000000,42818.000000,46230.000000,22956.000000
20604.000000,42816.000000,46232.000000,22976.000000
20602.000000,42776.000000,46242.000000,22948.000000
20576.000000,42770.000000,46220.000000,22968.000000
20582.000000,42794.000000,46231.000000,22952.000000
20596.000000,42775.000000,46174.000000,22954.000000
20571.000000,42735.000000,46221.000000,22968.000000
20532.000000,42742.000000,46202.000000,22952.000000
20519.000000,42725.000000,46183.000000,22952.000000
20499.000000,42713.000000,46200.000000,22961.000000
20496.000000,42706.000000,46163.000000,22939.000000
20473.000000,42706.000000,46179.000000,22920.000000
20477.000000,42675.000000,46171.000000,22939.000000
20455.000000,42658.000000,46136.000000,22917.000000
20410.000000,42642.000000,46171.000000,22916.000000
20442.000000,42663.000000,46151.000000,22916.000000
20391.000000,42644.000000,46157.000000,22894.000000
20412.000000,42628.000000,46114.000000,22881.000000
20405.000000,42654.000000,46152.000000,22931.000000
20364.000000,42629.000000,46132.000000,22895.000000
20366.000000,42611.000000,46134.000000,22909.000000
20381.000000,42601.000000,46113.000000,22898.000000
20387.000000,42580.000000,46108.000000,22893.000000
20370.000000,42593.000000,46119.000000,22884.000000
20363.000000,42594.000000,46117.000000,22903.000000
20357.000000,42582.000000,46095.000000,22912.000000
20366.000000,42587.000000,46120.000000,22909.000000
20370.000000,42609.000000,46090.000000,22867.000000
20353.000000,42583.000000,46115.000000,22879.000000
20369.000000,42595.000000,46114.000000,22904.000000
20350.000000,42575.000000,46126.000000,22887.000000
20361.000000,42553.000000,46118.000000,22900.000000
20330.000000,42579.000000,46093.000000,22887.000000
20312.000000,42530.000000,46088.000000,22867.000000
20322.000000,42553.000000,46101.000000,22856.000000
20312.000000,42543.000000,46057.000000,22863.000000
20290.000000,42495.000000,46067.000000,22845.000000
20292.000000,42550.000000,46058.000000,22872.000000
20272.000000,42506.000000,46080.000000,22864.000000
20299.000000,42495.000000,46051.000000,22877.000000
20267.000000,42517.000000,46060.000000,22869.000000
20263.000000,42471.000000,46028.000000,22829.000000
20271.000000,42480.000000,46024.000000,22853.000000
20288.000000,42457.000000,46049.000000,22844.000000
20274.000000,42453.000000,46031.000000,22846.000000
20213.000000,42447.000000,45994.000000,22798.000000
20235.000000,42423.000000,46009.000000,22831.000000
20230.000000,42439.000000,46003.000000,22816.000000
20234.000000,42434.000000,45985.000000,22831.000000
20217.000000,42456.000000,45994.000000,22824.000000
20205.000000,42399.000000,45998.000000,22816.000000
20204.000000,42405.000000,45985.000000,22805.000000
20205.000000,42413.000000,46000.000000,22826.000000
20215.000000,42390.000000,45992.000000,22805.000000
20210.000000,42385.000000,45987.000000,22787.000000
20217.000000,42387.000000,46000.000000,22831.000000
20209.000000,42376.000000,45992.000000,22816.000000
20191.000000,42372.000000,45988.000000,22807.000000
20231.000000,42360.000000,45966.000000,22822.000000
20180.000000,42385.000000,45964.000000,22813.000000
20205.000000,42349.000000,45948.000000,22822.000000
20229.000000,42369.000000,45960.000000,22834.000000
20196.000000,42351.000000,45984.000000,22828.000000
20202.000000,42368.000000,45973.000000,22813.000000
20227.000000,42366.000000,46022.000000,22841.000000
20256.000000,42376.000000,45988.000000,22838.000000
20226.000000,42404.000000,45982.000000,22848.000000
20248.000000,42421.000000,46015.000000,22852.000000
20253.000000,42447.000000,46004.000000,22851.000000
20267.000000,42419.000000,46016.000000,22858.000000
20313.000000,42445.000000,46006.000000,22863.000000
20274.000000,42438.000000,46032.000000,22851.000000
20291.000000,42440.000000,46038.000000,22847.000000
20311.000000,42538.000000,46052.000000,22839.000000
20334.000000,42524.000000,46046.000000,22854.000000
20346.000000,42533.000000,46066.000000,22833.000000
20356.000000,42561.000000,46104.000000,22850.000000
20418.000000,42587.000000,46105.000000,22878.000000
20399.000000,42620.000000,46123.000000,22844.000000
20466.000000,42733.000000,46147.000000,22877.000000
20485.000000,42760.000000,46189.000000,22893.000000
20521.000000,42822.000000,46251.000000,22888.000000
20576.000000,42828.000000,46239.000000,22909.000000
20569.000000,42860.000000,46269.000000,22916.000000
20677.000000,42907.000000,46271.000000,22921.000000
20663.000000,42939.000000,46318.000000,22925.000000
20720.000000,42992.000000,46321.000000,22952.000000
20730.000000,43030.000000,46359.000000,22970.000000
20809.000000,43061.000000,46365.000000,22975.000000
20788.000000,43120.000000,46395.000000,22980.000000
20846.000000,43134.000000,46410.000000,23000.000000
20873.000000,43180.000000,46446.000000,23011.000000
20914.000000,43209.000000,46480.000000,23024.000000
20975.000000,43248.000000,46484.000000,23018.000000
20974.000000,43282.000000,46485.000000,23040.000000
21003.000000,43359.000000,46515.000000,23029.000000
21120.000000,43439.000000,46604.000000,23065.000000
21140.000000,43437.000000,46610.000000,23084.000000
21115.000000,43512.000000,46608.000000,23080.000000
21138.000000,43508.000000,46627.000000,23085.000000
21135.000000,43509.000000,46634.000000,23084.000000
21154.000000,43478.000000,46630.000000,23098.000000
21115.000000,43447.000000,46580.000000,23088.000000
21046.000000,43437.000000,46589.000000,23112.000000
21056.000000,43419.000000,46579.000000,23075.000000
21026.000000,43400.000000,46582.000000,23063.000000
21013.000000,43372.000000,46534.000000,23058.000000
20951.000000,43382.000000,46523.000000,23051.000000
20987.000000,43312.000000,46551.000000,23055.000000
20929.000000,43340.000000,46517.000000,23060.000000
20908.000000,43282.000000,46509.000000,23065.000000
20890.000000,43265.000000,46464.000000,23044.000000
20851.000000,43224.000000,46459.000000,23025.000000
20830.000000,43237.000000,46444.000000,23045.000000
20799.000000,43182.000000,46459.000000,23020.000000
20744.000000,43125.000000,46397.000000,23013.000000
20737.000000,43134.000000,46385.000000,22992.000000
20735.000000,43101.000000,46372.000000,22989.000000
20716.000000,43121.000000,46374.000000,22985.000000
20725.000000,43073.000000,46333.000000,22989.000000
20712.000000,43072.000000,46326.000000,22965.000000
20680.000000,43039.000000,46341.000000,22973.000000
20643.000000,43054.000000,46321.000000,22955.000000
20684.000000,43009.000000,46316.000000,22968.000000
20650.000000,43006.000000,46327.000000,22957.000000
20628.000000,43025.000000,46329.000000,22989.000000
20586.000000,42972.000000,46324.000000,22963.000000
20559.000000,42970.000000,46289.000000,22950.000000
20547.000000,42979.000000,46273.000000,22948.000000
20540.000000,42965.000000,46283.000000,22952.000000
20558.000000,42906.000000,46243.000000,22912.000000
20485.000000,42892.000000,46268.000000,22931.000000
20516.000000,42898.000000,46225.000000,22921.000000
20467.000000,42862.000000,46205.000000,22919.000000
20471.000000,42856.000000,46231.000000,22921.000000
20461.000000,42847.000000,46231.000000,22907.000000
20470.000000,42842.000000,46219.000000,22923.000000
20453.000000,42821.000000,46181.000000,22884.000000
20415.000000,42807.000000,46159.000000,22894.000000
20412.000000,42765.000000,46179.000000,22882.000000
20406.000000,42793.000000,46166.000000,22874.000000
20375.000000,42754.000000,46187.000000,22874.000000
20363.000000,42758.000000,46152.000000,22864.000000
20358.000000,42745.000000,46140.000000,22865.000000
20350.000000,42702.000000,46158.000000,22861.000000
20258.000000,42661.000000,46131.000000,22842.000000
20297.000000,42653.000000,46086.000000,22848.000000
20262.000000,42647.000000,46075.000000,22809.000000
20229.000000,42582.000000,46069.000000,22796.000000
20221.000000,42586.000000,46061.000000,22819.000000
20191.000000,42589.000000,46074.000000,22837.000000
20167.000000,42569.000000,46048.000000,22822.000000
20146.000000,42542.000000,46032.000000,22821.000000
20178.000000,42549.000000,46051.000000,22820.000000
20120.000000,42544.000000,46015.000000,22822.000000
20137.000000,42507.000000,46020.000000,22839.000000
20144.000000,42510.000000,46016.000000,22841.000000
20115.000000,42510.000000,46043.000000,22821.000000
20106.000000,42473.000000,46033.000000,22859.000000
20128.000000,42503.000000,46000.000000,22853.000000
20125.000000,42510.000000,46018.000000,22876.000000
20105.000000,42520.000000,46005.000000,22852.000000
20162.000000,42493.000000,46023.000000,22862.000000
20161.000000,42530.000000,45993.000000,22845.000000
20154.000000,42493.000000,46044.000000,22914.000000
20130.000000,42497.000000,46024.000000,22899.000000
20114.000000,42511.000000,46015.000000,22852.000000
20116.000000,42490.000000,45981.000000,22886.000000
20101.000000,42477.000000,45991.000000,22881.000000
20083.000000,42456.000000,45998.000000,22871.000000
20062.000000,42456.000000,46002.000000,22861.000000
20074.000000,42448.000000,45967.000000,22842.000000
20101.000000,42418.000000,45973.000000,22878.000000
20073.000000,42440.000000,45998.000000,22868.000000
20082.000000,42420.000000,45955.000000,22855.000000
20000.000000,42401.000000,45962.000000,22847.000000
19990.000000,42379.000000,45926.000000,22836.000000
19976.000000,42345.000000,45930.000000,22824.000000
19996.000000,42342.000000,45912.000000,22826.000000
19939.000000,42327.000000,45924.000000,22833.000000
19939.000000,42314.000000,45889.000000,22817.000000
19943.000000,42294.000000,45911.000000,22801.000000
19921.000000,42245.000000,45894.000000,22808.000000
19960.000000,42316.000000,45909.000000,22827.000000
19935.000000,42276.000000,45879.000000,22797.000000
19882.000000,42250.000000,45897.000000,22794.000000
19893.000000,42255.000000,45853.000000,22801.000000
19859.000000,42220.000000,45875.000000,22785.000000
19894.000000,42256.000000,45865.000000,22775.000000
19832.000000,42244.000000,45839.000000,22796.000000
19852.000000,42186.000000,45830.000000,22767.000000
19845.000000,42181.000000,45879.000000,22777.000000
19889.000000,42206.000000,45782.000000,22768.000000
19842.000000,42202.000000,45825.000000,22763.000000
19839.000000,42169.000000,45846.000000,22777.000000
19794.000000,42151.000000,45821.000000,22780.000000
19794.000000,42153.000000,45825.000000,22770.000000
19816.000000,42146.000000,45799.000000,22779.000000
19776.000000,42145.000000,45841.000000,22774.000000
19819.000000,42178.000000,45797.000000,22770.000000
19779.000000,42176.000000,45823.000000,22777.000000
19800.000000,42147.000000,45798.000000,22788.000000
19774.000000,42117.000000,45776.000000,22750.000000
19728.000000,42077.000000,45787.000000,22783.000000
19726.000000,42106.000000,45767.000000,22761.000000
19673.000000,42058.000000,45753.000000,22753.000000
19682.000000,42025.000000,45764.000000,22766.000000
19634.000000,42031.000000,45758.000000,22714.000000
19648.000000,42026.000000,45716.000000,22730.000000
19627.000000,42023.000000,45730.000000,22739.000000
19608.000000,41994.000000,45705.000000,22704.000000
19587.000000,41991.000000,45731.000000,22713.000000
19589.000000,41981.000000,45710.000000,22704.000000
19581.000000,41991.000000,45704.000000,22713.000000
19605.000000,41967.000000,45696.000000,22698.000000
19593.000000,42002.000000,45716.000000,22685.000000
19574.000000,42006.000000,45702.000000,22719.000000
19611.000000,41964.000000,45723.000000,22709.000000
19577.000000,42002.000000,45722.000000,22718.000000
19607.000000,41981.000000,45722.000000,22695.000000
19603.000000,42015.000000,45700.000000,22707.000000
19630.000000,42008.000000,45723.000000,22711.000000
19613.000000,42022.000000,45735.000000,22677.000000
19623.000000,42072.000000,45757.000000,22666.000000
19682.000000,42110.000000,45780.000000,22676.000000
19716.000000,42146.000000,45800.000000,22698.000000
19699.000000,42173.000000,45833.000000,22702.000000
19750.000000,42182.000000,45809.000000,22700.000000
19798.000000,42231.000000,45869.000000,22717.000000
19868.000000,42262.000000,45869.000000,22713.000000
19855.000000,42292.000000,45903.000000,22752.000000
19902.000000,42315.000000,45916.000000,22758.000000
19954.000000,42353.000000,45931.000000,22736.000000
19972.000000,42383.000000,45951.000000,22770.000000
20002.000000,42450.000000,45944.000000,22761.000000
20017.000000,42508.000000,45976.000000,22790.000000
20047.000000,42515.000000,46047.000000,22806.000000
20093.000000,42569.000000,46020.000000,22835.000000
20200.000000,42652.000000,46098.000000,22856.000000
20254.000000,42735.000000,46141.000000,22878.000000
20330.000000,42789.000000,46153.000000,22859.000000
20325.000000,42811.000000,46167.000000,22895.000000
20402.000000,42830.000000,46198.000000,22935.000000
20456.000000,42918.000000,46231.000000,22946.000000
20503.000000,43060.000000,46302.000000,22940.000000
20565.000000,43065.000000,46318.000000,22980.000000
20612.000000,43079.000000,46349.000000,22975.000000
20585.000000,43114.000000,46346.000000,22989.000000
20697.000000,43225.000000,46419.000000,23017.000000
20681.000000,43250.000000,46425.000000,23005.000000
20740.000000,43244.000000,46450.000000,23006.000000
20733.000000,43331.000000,46476.000000,23013.000000
20772.000000,43284.000000,46463.000000,23002.000000
20770.000000,43286.000000,46466.000000,23002.000000
20763.000000,43325.000000,46476.000000,23027.000000
20793.000000,43304.000000,46490.000000,23021.000000
20728.000000,43296.000000,46484.000000,22984.000000
20728.000000,43265.000000,46467.000000,23016.000000
20749.000000,43236.000000,46430.000000,23008.000000
20726.000000,43255.000000,46438.000000,22998.000000
20687.000000,43229.000000,46400.000000,22976.000000
20700.000000,43216.000000,46415.000000,22976.000000
20677.000000,43165.000000,46382.000000,22981.000000
20674.000000,43128.000000,46365.000000,22952.000000
20629.000000,43112.000000,46370.000000,22950.000000
20606.000000,43124.000000,46328.000000,22943.000000
20617.000000,43115.000000,46338.000000,22964.000000
20589.000000,43070.000000,46325.000000,22940.000000
20585.000000,43053.000000,46359.000000,22924.000000
20573.000000,43044.000000,46358.000000,22923.000000
20566.000000,43087.000000,46313.000000,22944.000000
20550.000000,43056.000000,46319.000000,22934.000000
20525.000000,43014.000000,46321.000000,22926.000000
20534.000000,43050.000000,46287.000000,22931.000000
20503.000000,42995.000000,46330.000000,22911.000000
20525.000000,43019.000000,46313.000000,22936.000000
20502.000000,43041.000000,46303.000000,22922.000000
20501.000000,43003.000000,46290.000000,22941.000000
20492.000000,42968.000000,46289.000000,22923.000000
20462.000000,42977.000000,46303.000000,22931.000000
20471.000000,42955.000000,46268.000000,22900.000000
20466.000000,43003.000000,46261.000000,22923.000000
20463.000000,42953.000000,46268.000000,22929.000000
20455.000000,42940.000000,46266.000000,22922.000000
20416.000000,42965.000000,46247.000000,22945.000000
20459.000000,42965.000000,46267.000000,22925.000000
20430.000000,42926.000000,46268.000000,22931.000000
20449.000000,42918.000000,46266.000000,22942.000000
20428.000000,42967.000000,46221.000000,22937.000000
20432.000000,42894.000000,46222.000000,22941.000000
20428.000000,42924.000000,46245.000000,22915.000000
20364.000000,42901.000000,46234.000000,22934.000000
20363.000000,42861.000000,46243.000000,22909.000000
20349.000000,42885.000000,46224.000000,22922.000000
20367.000000,42878.000000,46238.000000,22922.000000
20387.000000,42889.000000,46244.000000,22948.000000
20367.000000,42889.000000,46219.000000,22953.000000
20390.000000,42891.000000,46217.000000,22946.000000
20410.000000,42874.000000,46248.000000,22957.000000
20372.000000,42874.000000,46218.000000,22927.000000
20371.000000,42862.000000,46228.000000,22928.000000
20401.000000,42876.000000,46223.000000,22928.000000
20366.000000,42887.000000,46189.000000,22943.000000
20385.000000,42855.000000,46208.000000,22925.000000
20345.000000,42870.000000,46199.000000,22926.000000
20330.000000,42832.000000,46195.000000,22920.000000
20341.000000,42790.000000,46170.000000,22921.000000
20301.000000,42798.000000,46186.000000,22907.000000
20292.000000,42794.000000,46171.000000,22889.000000
20248.000000,42745.000000,46135.000000,22886.000000
20250.000000,42720.000000,46122.000000,22877.000000
20229.000000,42685.000000,46095.000000,22861.000000
20198.000000,42652.000000,46095.000000,22866.000000
20203.000000,42654.000000,46084.000000,22857.000000
