660nm,730nm,850nm,940nm
16321.000000,35930.000000,42096.000000,23363.000000
16330.000000,35928.000000,42110.000000,23369.000000
16297.000000,35879.000000,42125.000000,23362.000000
16306.000000,35934.000000,42069.000000,23357.000000
16304.000000,35888.000000,42097.000000,23345.000000
16280.000000,35902.000000,42071.000000,23335.000000
16245.000000,35880.000000,42079.000000,23343.000000
16268.000000,35865.000000,42073.000000,23373.000000
16263.000000,35847.000000,42080.000000,23339.000000
16230.000000,35857.000000,42064.000000,23327.000000
16296.000000,35834.000000,42026.000000,23328.000000
16264.000000,35865.000000,42067.000000,23344.000000
16245.000000,35811.000000,42056.000000,23341.000000
16229.000000,35819.000000,42074.000000,23324.000000
16231.000000,35835.000000,42069.000000,23343.000000
16223.000000,35830.000000,42069.000000,23324.000000
16263.000000,35835.000000,42035.000000,23341.000000
16228.000000,35820.000000,42013.000000,23351.000000
16193.000000,35790.000000,42037.000000,23313.000000
16239.000000,35804.000000,42033.000000,23334.000000
16186.000000,35800.000000,42039.000000,23323.000000
16200.000000,35811.000000,42040.000000,23321.000000
16190.000000,35800.000000,42035.000000,23324.000000
16223.000000,35770.000000,42035.000000,23326.000000
16221.000000,35797.000000,42020.000000,23311.000000
16216.000000,35785.000000,42039.000000,23317.000000
16226.000000,35762.000000,42006.000000,23338.000000
16168.000000,35787.000000,42032.000000,23305.000000
16159.000000,35761.000000,42010.000000,23334.000000
16166.000000,35741.000000,42008.000000,23322.000000
16209.000000,35747.000000,42024.000000,23299.000000
16140.000000,35769.000000,41995.000000,23304.000000
16182.000000,35726.000000,41991.000000,23319.000000
16123.000000,35724.000000,41986.000000,23286.000000
16132.000000,35707.000000,42008.000000,23300.000000
16111.000000,35708.000000,41951.000000,23294.000000
16098.000000,35720.000000,41977.000000,23300.000000
16135.000000,35687.000000,41967.000000,23318.000000
16106.000000,35662.000000,41966.000000,23272.000000
16135.000000,35676.000000,41948.000000,23283.000000
16113.000000,35695.000000,41943.000000,23281.000000
16084.000000,35657.000000,41961.000000,23298.000000
16076.000000,35688.000000,41946.000000,23284.000000
16104.000000,35639.000000,41972.000000,23289.000000
16097.000000,35624.000000,41914.000000,23286.000000
16047.000000,35591.000000,41928.000000,23273.000000
16012.000000,35628.000000,41915.000000,23246.000000
16044.000000,35615.000000,41904.000000,23257.000000
16033.000000,35583.000000,41913.000000,23282.000000
16002.000000,35599.000000,41919.000000,23213.000000
16029.000000,35558.000000,41892.000000,23215.000000
15996.000000,35580.000000,41897.000000,23234.000000
16040.000000,35557.000000,41856.000000,23246.000000
15974.000000,35575.000000,41874.000000,23230.000000
15981.000000,35524.000000,41877.000000,23242.000000
15969.000000,35546.000000,41864.000000,23230.000000
15984.000000,35525.000000,41897.000000,23241.000000
15993.000000,35548.000000,41884.000000,23230.000000
16000.000000,35552.000000,41876.000000,23214.000000
15989.000000,35568.000000,41878.000000,23233.000000
15985.000000,35549.000000,41888.000000,23238.000000
16009.000000,35578.000000,41900.000000,23230.000000
16042.000000,35601.000000,41906.000000,23228.000000
16057.000000,35572.000000,41911.000000,23257.000000
16014.000000,35585.000000,41942.000000,23259.000000
16078.000000,35610.000000,41930.000000,23271.000000
16082.000000,35637.000000,41927.000000,23262.000000
16125.000000,35642.000000,41950.000000,23274.000000
16123.000000,35703.000000,41953.000000,23273.000000
16159.000000,35716.000000,41983.000000,23288.000000
16225.000000,35743.000000,42030.000000,23283.000000
16201.000000,35776.000000,42006.000000,23308.000000
16263.000000,35816.000000,42050.000000,23305.000000
16273.000000,35862.000000,42059.000000,23312.000000
16295.000000,35872.000000,42065.000000,23339.000000
16309.000000,35913.000000,42095.000000,23317.000000
16337.000000,35912.000000,42093.000000,23350.000000
16335.000000,35955.000000,42104.000000,23364.000000
16361.000000,35972.000000,42119.000000,23385.000000
16362.000000,36016.000000,42143.000000,23349.000000
16387.000000,36001.000000,42150.000000,23348.000000
16385.000000,36030.000000,42149.000000,23373.000000
16377.000000,35997.000000,42193.000000,23349.000000
16410.000000,36014.000000,42156.000000,23391.000000
16398.000000,35977.000000,42144.000000,23367.000000
16406.000000,36028.000000,42141.000000,23358.000000
16384.000000,36025.000000,42122.000000,23342.000000
16365.000000,35979.000000,42102.000000,23355.000000
16372.000000,35966.000000,42137.000000,23362.000000
16394.000000,36006.000000,42138.000000,23362.000000
16335.000000,35993.000000,42159.000000,23372.000000
16367.000000,35983.000000,42120.000000,23374.000000
16342.000000,35925.000000,42125.000000,23348.000000
16372.000000,35936.000000,42103.000000,23361.000000
16331.000000,35945.000000,42083.000000,23348.000000
16319.000000,35896.000000,42132.000000,23370.000000
16307.000000,35912.000000,42096.000000,23338.000000
16336.000000,35900.000000,42081.000000,23351.000000
16331.000000,35886.000000,42093.000000,23347.000000
16309.000000,35883.000000,42117.000000,23356.000000
16292.000000,35917.000000,42057.000000,23344.000000
16308.000000,35883.000000,42084.000000,23354.000000
16308.000000,35869.000000,42080.000000,23357.000000
16270.000000,35849.000000,42063.000000,23324.000000
16300.000000,35878.000000,42044.000000,23342.000000
16282.000000,35889.000000,42084.000000,23329.000000
16309.000000,35871.000000,42066.000000,23339.000000
16301.000000,35870.000000,42068.000000,23333.000000
16246.000000,35877.000000,42069.000000,23341.000000
16278.000000,35852.000000,42058.000000,23359.000000
16242.000000,35889.000000,42072.000000,23340.000000
16251.000000,35872.000000,42072.000000,23341.000000
16219.000000,35841.000000,42059.000000,23344.000000
16235.000000,35849.000000,42043.000000,23328.000000
16234.000000,35835.000000,42058.000000,23330.000000
16236.000000,35810.000000,42033.000000,23337.000000
16243.000000,35812.000000,42042.000000,23315.000000
16204.000000,35811.000000,42042.000000,23305.000000
16221.000000,35760.000000,42055.000000,23306.000000
16189.000000,35793.000000,42025.000000,23320.000000
16199.000000,35767.000000,42016.000000,23311.000000
16193.000000,35786.000000,41987.000000,23314.000000
16182.000000,35762.000000,42006.000000,23323.000000
16205.000000,35769.000000,42012.000000,23332.000000
16172.000000,35743.000000,42035.000000,23304.000000
16195.000000,35747.000000,41988.000000,23295.000000
16162.000000,35736.000000,41989.000000,23306.000000
16198.000000,35756.000000,41985.000000,23289.000000
16187.000000,35726.000000,42007.000000,23327.000000
16139.000000,35693.000000,41982.000000,23318.000000
16140.000000,35751.000000,41993.000000,23317.000000
16146.000000,35744.000000,41980.000000,23309.000000
16154.000000,35728.000000,41994.000000,23293.000000
16159.000000,35690.000000,42003.000000,23301.000000
16145.000000,35710.000000,41963.000000,23284.000000
16136.000000,35681.000000,41982.000000,23311.000000
16135.000000,35726.000000,41982.000000,23285.000000
16120.000000,35742.000000,41979.000000,23278.000000
16140.000000,35739.000000,41975.000000,23295.000000
16129.000000,35707.000000,41986.000000,23309.000000
16136.000000,35667.000000,41974.000000,23304.000000
16150.000000,35701.000000,41953.000000,23317.000000
16150.000000,35704.000000,41971.000000,23277.000000
16127.000000,35694.000000,41953.000000,23300.000000
16103.000000,35698.000000,41957.000000,23287.000000
16123.000000,35679.000000,41988.000000,23292.000000
16137.000000,35670.000000,41953.000000,23308.000000
16079.000000,35679.000000,41986.000000,23284.000000
16073.000000,35638.000000,41959.000000,23291.000000
16090.000000,35654.000000,41956.000000,23295.000000
16089.000000,35632.000000,41958.000000,23297.000000
16090.000000,35641.000000,41948.000000,23284.000000
16064.000000,35627.000000,41913.000000,23290.000000
16071.000000,35609.000000,41942.000000,23238.000000
16052.000000,35595.000000,41920.000000,23257.000000
16049.000000,35604.000000,41875.000000,23247.000000
16042.000000,35556.000000,41891.000000,23261.000000
16045.000000,35618.000000,41885.000000,23242.000000
16049.000000,35594.000000,41888.000000,23265.000000
16013.000000,35542.000000,41929.000000,23283.000000
16042.000000,35583.000000,41895.000000,23253.000000
16011.000000,35586.000000,41895.000000,23246.000000
16023.000000,35576.000000,41884.000000,23258.000000
16026.000000,35570.000000,41904.000000,23237.000000
16027.000000,35569.000000,41905.000000,23246.000000
16023.000000,35602.000000,41906.000000,23254.000000
16049.000000,35611.000000,41885.000000,23255.000000
16046.000000,35605.000000,41908.000000,23292.000000
16045.000000,35579.000000,41910.000000,23256.000000
16044.000000,35612.000000,41893.000000,23256.000000
16020.000000,35614.000000,41920.000000,23266.000000
16059.000000,35568.000000,41922.000000,23269.000000
16008.000000,35591.000000,41897.000000,23254.000000
16043.000000,35602.000000,41912.000000,23273.000000
16052.000000,35558.000000,41902.000000,23275.000000
16075.000000,35599.000000,41912.000000,23258.000000
16061.000000,35619.000000,41922.000000,23240.000000
16024.000000,35635.000000,41935.000000,23268.000000
16091.000000,35615.000000,41918.000000,23263.000000
16068.000000,35663.000000,41936.000000,23297.000000
16083.000000,35649.000000,41967.000000,23259.000000
16091.000000,35692.000000,41957.000000,23284.000000
16138.000000,35716.000000,41977.000000,23274.000000
16147.000000,35731.000000,41975.000000,23300.000000
16150.000000,35762.000000,42022.000000,23317.000000
16186.000000,35779.000000,42019.000000,23323.000000
16212.000000,35804.000000,42025.000000,23351.000000
16260.000000,35818.000000,42062.000000,23345.000000
16271.000000,35865.000000,42059.000000,23355.000000
16285.000000,35879.000000,42076.000000,23362.000000
16306.000000,35971.000000,42112.000000,23355.000000
16326.000000,35907.000000,42112.000000,23344.000000
16334.000000,35938.000000,42128.000000,23387.000000
16382.000000,35961.000000,42124.000000,23326.000000
16326.000000,35954.000000,42095.000000,23391.000000
16367.000000,35996.000000,42125.000000,23362.000000
16378.000000,35984.000000,42155.000000,23377.000000
16394.000000,35966.000000,42115.000000,23379.000000
16345.000000,35958.000000,42147.000000,23364.000000
16339.000000,35948.000000,42126.000000,23375.000000
16345.000000,35948.000000,42110.000000,23335.000000
16322.000000,35954.000000,42101.000000,23378.000000
16328.000000,35916.000000,42119.000000,23350.000000
16319.000000,35916.000000,42097.000000,23346.000000
16301.000000,35924.000000,42097.000000,23364.000000
16325.000000,35901.000000,42081.000000,23390.000000
16293.000000,35890.000000,42075.000000,23355.000000
16320.000000,35891.000000,42076.000000,23356.000000
16305.000000,35902.000000,42079.000000,23356.000000
16278.000000,35885.000000,42068.000000,23377.000000
16275.000000,35864.000000,42069.000000,23376.000000
16285.000000,35869.000000,42088.000000,23351.000000
16293.000000,35863.000000,42073.000000,23382.000000
16241.000000,35838.000000,42073.000000,23362.000000
16287.000000,35847.000000,42078.000000,23373.000000
16266.000000,35892.000000,42084.000000,23362.000000
16302.000000,35854.000000,42048.000000,23359.000000
16251.000000,35857.000000,42067.000000,23359.000000
16281.000000,35857.000000,42054.000000,23361.000000
16256.000000,35840.000000,42088.000000,23362.000000
16274.000000,35823.000000,42038.000000,23338.000000
16276.000000,35849.000000,42036.000000,23341.000000
16234.000000,35830.000000,42056.000000,23349.000000
16258.000000,35825.000000,42046.000000,23367.000000
16200.000000,35810.000000,42049.000000,23338.000000
16225.000000,35802.000000,42030.000000,23330.000000
16216.000000,35832.000000,42034.000000,23318.000000
16235.000000,35803.000000,42026.000000,23335.000000
16213.000000,35811.000000,42034.000000,23314.000000
16191.000000,35790.000000,42035.000000,23320.000000
16211.000000,35817.000000,42012.000000,23348.000000
16194.000000,35797.000000,42046.000000,23323.000000
16201.000000,35799.000000,41991.000000,23328.000000
16184.000000,35782.000000,42015.000000,23321.000000
16201.000000,35745.000000,42004.000000,23307.000000
16203.000000,35767.000000,41996.000000,23350.000000
16216.000000,35759.000000,41997.000000,23331.000000
16201.000000,35751.000000,41990.000000,23330.000000
16178.000000,35729.000000,41997.000000,23335.000000
16189.000000,35738.000000,42003.000000,23309.000000
16166.000000,35773.000000,42021.000000,23336.000000
16144.000000,35735.000000,42008.000000,23318.000000
16184.000000,35751.000000,42007.000000,23305.000000
16182.000000,35755.000000,42013.000000,23300.000000
16163.000000,35765.000000,42011.000000,23312.000000
16184.000000,35740.000000,42000.000000,23326.000000
16143.000000,35739.000000,41979.000000,23312.000000
16154.000000,35756.000000,41987.000000,23292.000000
16172.000000,35760.000000,41983.000000,23301.000000
16144.000000,35749.000000,41980.000000,23293.000000
16155.000000,35712.000000,41978.000000,23321.000000
16119.000000,35728.000000,41955.000000,23298.000000
16135.000000,35742.000000,41966.000000,23320.000000
16161.000000,35730.000000,42004.000000,23303.000000
16157.000000,35698.000000,42002.000000,23321.000000
16152.000000,35709.000000,41974.000000,23309.000000
16130.000000,35700.000000,41977.000000,23318.000000
16111.000000,35704.000000,41968.000000,23325.000000
16144.000000,35727.000000,41958.000000,23300.000000
16119.000000,35685.000000,41972.000000,23291.000000
16168.000000,35709.000000,41937.000000,23321.000000
16132.000000,35686.000000,41994.000000,23292.000000
16141.000000,35673.000000,41993.000000,23293.000000
16119.000000,35683.000000,41973.000000,23272.000000
16092.000000,35696.000000,41965.000000,23290.000000
16103.000000,35669.000000,41953.000000,23269.000000
16120.000000,35674.000000,41963.000000,23297.000000
16102.000000,35664.000000,41968.000000,23296.000000
16086.000000,35659.000000,41955.000000,23271.000000
16120.000000,35654.000000,41955.000000,23288.000000
16074.000000,35674.000000,41903.000000,23277.000000
16060.000000,35644.000000,41934.000000,23252.000000
16065.000000,35647.000000,41935.000000,23290.000000
16081.000000,35646.000000,41933.000000,23258.000000
16065.000000,35644.000000,41930.000000,23292.000000
16082.000000,35650.000000,41951.000000,23280.000000
16051.000000,35611.000000,41928.000000,23261.000000
16091.000000,35637.000000,41926.000000,23272.000000
16083.000000,35635.000000,41937.000000,23259.000000
16092.000000,35648.000000,41928.000000,23282.000000
16077.000000,35652.000000,41948.000000,23266.000000
16082.000000,35630.000000,41943.000000,23269.000000
16110.000000,35656.000000,41931.000000,23276.000000
16107.000000,35639.000000,41967.000000,23274.000000
16141.000000,35654.000000,41968.000000,23267.000000
16131.000000,35686.000000,41955.000000,23310.000000
16143.000000,35741.000000,41957.000000,23281.000000
16173.000000,35748.000000,41990.000000,23312.000000
16188.000000,35744.000000,41999.000000,23319.000000
16211.000000,35781.000000,42003.000000,23308.000000
16250.000000,35814.000000,42010.000000,23301.000000
16252.000000,35825.000000,42018.000000,23319.000000
16259.000000,35889.000000,42077.000000,23315.000000
16286.000000,35853.000000,42052.000000,23319.000000
16286.000000,35902.000000,42089.000000,23346.000000
16346.000000,35925.000000,42129.000000,23355.000000
16395.000000,35955.000000,42111.000000,23369.000000
16394.000000,35958.000000,42129.000000,23375.000000
16398.000000,36018.000000,42151.000000,23383.000000
16409.000000,36005.000000,42166.000000,23390.000000
16419.000000,36015.000000,42162.000000,23388.000000
16415.000000,36019.000000,42156.000000,23385.000000
16421.000000,36045.000000,42173.000000,23396.000000
16437.000000,36060.000000,42195.000000,23397.000000
16428.000000,36026.000000,42192.000000,23400.000000
16433.000000,36043.000000,42191.000000,23383.000000
16432.000000,36042.000000,42161.000000,23405.000000
16420.000000,36056.000000,42138.000000,23361.000000
16437.000000,36028.000000,42164.000000,23372.000000
16406.000000,36025.000000,42124.000000,23360.000000
16392.000000,36015.000000,42168.000000,23367.000000
16410.000000,36002.000000,42147.000000,23369.000000
16404.000000,36000.000000,42123.000000,23379.000000
16410.000000,35974.000000,42136.000000,23369.000000
16368.000000,35974.000000,42150.000000,23361.000000
16378.000000,35967.000000,42126.000000,23369.000000
16348.000000,35983.000000,42136.000000,23370.000000
16378.000000,35976.000000,42126.000000,23364.000000
16357.000000,35960.000000,42130.000000,23368.000000
16343.000000,35937.000000,42111.000000,23367.000000
16346.000000,35925.000000,42119.000000,23366.000000
16354.000000,35955.000000,42108.000000,23366.000000
16359.000000,35912.000000,42091.000000,23356.000000
16359.000000,35922.000000,42092.000000,23363.000000
16333.000000,35922.000000,42105.000000,23358.000000
16318.000000,35922.000000,42103.000000,23368.000000
16327.000000,35932.000000,42092.000000,23351.000000
16301.000000,35937.000000,42087.000000,23347.000000
16340.000000,35925.000000,42075.000000,23363.000000
16285.000000,35913.000000,42092.000000,23349.000000
16317.000000,35901.000000,42113.000000,23345.000000
16261.000000,35958.000000,42112.000000,23376.000000
16302.000000,35914.000000,42115.000000,23343.000000
16307.000000,35900.000000,42100.000000,23368.000000
16279.000000,35906.000000,42099.000000,23355.000000
16288.000000,35890.000000,42081.000000,23362.000000
16277.000000,35902.000000,42098.000000,23347.000000
16270.000000,35905.000000,42068.000000,23349.000000
16292.000000,35917.000000,42082.000000,23341.000000
16313.000000,35891.000000,42081.000000,23355.000000
16274.000000,35910.000000,42100.000000,23340.000000
16259.000000,35900.000000,42073.000000,23339.000000
16225.000000,35910.000000,42096.000000,23353.000000
16245.000000,35866.000000,42071.000000,23365.000000
16232.000000,35908.000000,42082.000000,23346.000000
16255.000000,35878.000000,42086.000000,23361.000000
16216.000000,35863.000000,42068.000000,23334.000000
16241.000000,35847.000000,42033.000000,23328.000000
16197.000000,35869.000000,42077.000000,23337.000000
16186.000000,35810.000000,42074.000000,23321.000000
16208.000000,35840.000000,42032.000000,23320.000000
16223.000000,35799.000000,42035.000000,23323.000000
16218.000000,35826.000000,42025.000000,23295.000000
16203.000000,35799.000000,42033.000000,23330.000000
16154.000000,35750.000000,42009.000000,23299.000000
16191.000000,35743.000000,41999.000000,23306.000000
16151.000000,35744.000000,42016.000000,23297.000000
16175.000000,35719.000000,42027.000000,23300.000000
16136.000000,35752.000000,42031.000000,23289.000000
16197.000000,35747.000000,41993.000000,23316.000000
16137.000000,35761.000000,41997.000000,23305.000000
16160.000000,35775.000000,41992.000000,23300.000000
16165.000000,35742.000000,41999.000000,23310.000000
16132.000000,35745.000000,42005.000000,23291.000000
16123.000000,35714.000000,42001.000000,23311.000000
16152.000000,35714.000000,41978.000000,23289.000000
16091.000000,35726.000000,41964.000000,23281.000000
16139.000000,35670.000000,41942.000000,23279.000000
16091.000000,35692.000000,41989.000000,23292.000000
16115.000000,35697.000000,41927.000000,23285.000000
16068.000000,35667.000000,41934.000000,23266.000000
16058.000000,35640.000000,41941.000000,23294.000000
16071.000000,35626.000000,41930.000000,23268.000000
16036.000000,35581.000000,41883.000000,23247.000000
16017.000000,35584.000000,41903.000000,23243.000000
15996.000000,35550.000000,41913.000000,23220.000000
16027.000000,35543.000000,41898.000000,23231.000000
16006.000000,35554.000000,41872.000000,23245.000000
15999.000000,35513.000000,41870.000000,23248.000000
16000.000000,35541.000000,41868.000000,23239.000000
15980.000000,35556.000000,41911.000000,23256.000000
15990.000000,35563.000000,41903.000000,23248.000000
16000.000000,35536.000000,41856.000000,23243.000000
15998.000000,35563.000000,41900.000000,23225.000000
16020.000000,35566.000000,41875.000000,23227.000000
16030.000000,35562.000000,41897.000000,23241.000000
16032.000000,35631.000000,41906.000000,23254.000000
16074.000000,35638.000000,41938.000000,23244.000000
16110.000000,35662.000000,41971.000000,23265.000000
16098.000000,35721.000000,41954.000000,23272.000000
16221.000000,35780.000000,41994.000000,23304.000000
16232.000000,35822.000000,42052.000000,23325.000000
16307.000000,35833.000000,42075.000000,23335.000000
16293.000000,35861.000000,42081.000000,23342.000000
16315.000000,35929.000000,42097.000000,23347.000000
16353.000000,35964.000000,42102.000000,23377.000000
16371.000000,35947.000000,42145.000000,23382.000000
16391.000000,35973.000000,42111.000000,23366.000000
16387.000000,35970.000000,42124.000000,23382.000000
16407.000000,35970.000000,42136.000000,23370.000000
16389.000000,35963.000000,42162.000000,23374.000000
16359.000000,35954.000000,42116.000000,23375.000000
16335.000000,35951.000000,42135.000000,23371.000000
16360.000000,35903.000000,42116.000000,23368.000000
16318.000000,35933.000000,42119.000000,23361.000000
16303.000000,35880.000000,42082.000000,23349.000000
16292.000000,35915.000000,42105.000000,23327.000000
16276.000000,35898.000000,42075.000000,23342.000000
16296.000000,35853.000000,42089.000000,23343.000000
16283.000000,35871.000000,42093.000000,23351.000000
16315.000000,35896.000000,42097.000000,23339.000000
16307.000000,35850.000000,42075.000000,23373.000000
16303.000000,35850.000000,42084.000000,23353.000000
16317.000000,35859.000000,42095.000000,23348.000000
16261.000000,35887.000000,42077.000000,23354.000000
16273.000000,35853.000000,42078.000000,23323.000000
16303.000000,35846.000000,42050.000000,23345.000000
16268.000000,35828.000000,42086.000000,23352.000000
16278.000000,35824.000000,42060.000000,23340.000000
16290.000000,35844.000000,42056.000000,23324.000000
16263.000000,35812.000000,42049.000000,23350.000000
16208.000000,35758.000000,42053.000000,23307.000000
16221.000000,35803.000000,42022.000000,23332.000000
16234.000000,35777.000000,42033.000000,23305.000000
16210.000000,35792.000000,42009.000000,23308.000000
16228.000000,35751.000000,42028.000000,23310.000000
16205.000000,35746.000000,41982.000000,23319.000000
16190.000000,35751.000000,42000.000000,23293.000000
16201.000000,35743.000000,42006.000000,23298.000000
16198.000000,35737.000000,42016.000000,23312.000000
16234.000000,35752.000000,41989.000000,23293.000000
16196.000000,35746.000000,42000.000000,23316.000000
16176.000000,35712.000000,42011.000000,23317.000000
16181.000000,35744.000000,41992.000000,23321.000000
16186.000000,35707.000000,42011.000000,23295.000000
16166.000000,35710.000000,42000.000000,23299.000000
16184.000000,35735.000000,42001.000000,23303.000000
16147.000000,35683.000000,41976.000000,23288.000000
16159.000000,35679.000000,41950.000000,23314.000000
16135.000000,35664.000000,41960.000000,23293.000000
16153.000000,35658.000000,41944.000000,23266.000000
16118.000000,35664.000000,41950.000000,23284.000000
16112.000000,35670.000000,41970.000000,23284.000000
16103.000000,35636.000000,41959.000000,23269.000000
16097.000000,35614.000000,41950.000000,23284.000000
16111.000000,35621.000000,41937.000000,23263.000000
16079.000000,35642.000000,41920.000000,23258.000000
16106.000000,35594.000000,41926.000000,23270.000000
16088.000000,35592.000000,41959.000000,23282.000000
16110.000000,35603.000000,41924.000000,23273.000000
16094.000000,35582.000000,41931.000000,23249.000000
16114.000000,35615.000000,41907.000000,23280.000000
16103.000000,35599.000000,41899.000000,23248.000000
16062.000000,35597.000000,41941.000000,23240.000000
16088.000000,35593.000000,41896.000000,23249.000000
16060.000000,35597.000000,41920.000000,23258.000000
16072.000000,35552.000000,41890.000000,23239.000000
16072.000000,35575.000000,41893.000000,23231.000000
16063.000000,35552.000000,41914.000000,23228.000000
16054.000000,35551.000000,41890.000000,23254.000000
16046.000000,35527.000000,41933.000000,23230.000000
16008.000000,35485.000000,41859.000000,23214.000000
15992.000000,35519.000000,41877.000000,23235.000000
15999.000000,35487.000000,41826.000000,23225.000000
16005.000000,35460.000000,41868.000000,23208.000000
16007.000000,35454.000000,41854.000000,23216.000000
16002.000000,35477.000000,41847.000000,23216.000000
15997.000000,35477.000000,41867.000000,23234.000000
15979.000000,35466.000000,41855.000000,23204.000000
16000.000000,35466.000000,41856.000000,23212.000000
15994.000000,35488.000000,41847.000000,23199.000000
15971.000000,35487.000000,41865.000000,23201.000000
15986.000000,35507.000000,41873.000000,23227.000000
15995.000000,35545.000000,41863.000000,23215.000000
16031.000000,35524.000000,41896.000000,23195.000000
16023.000000,35540.000000,41896.000000,23207.000000
16044.000000,35575.000000,41922.000000,23211.000000
16055.000000,35563.000000,41926.000000,23235.000000
16122.000000,35642.000000,41925.000000,23235.000000
16099.000000,35645.000000,41945.000000,23244.000000
16156.000000,35660.000000,41972.000000,23250.000000
16201.000000,35763.000000,42014.000000,23259.000000
16255.000000,35824.000000,42051.000000,23290.000000
16292.000000,35834.000000,42076.000000,23311.000000
16288.000000,35870.000000,42088.000000,23308.000000
16338.000000,35896.000000,42100.000000,23323.000000
16456.000000,35976.000000,42173.000000,23373.000000
16424.000000,35977.000000,42183.000000,23355.000000
16460.000000,36011.000000,42160.000000,23368.000000
16458.000000,36041.000000,42204.000000,23385.000000
16469.000000,36025.000000,42211.000000,23378.000000
16499.000000,36032.000000,42192.000000,23377.000000
16471.000000,36039.000000,42191.000000,23348.000000
16472.000000,36032.000000,42204.000000,23365.000000
16447.000000,36069.000000,42195.000000,23343.000000
16453.000000,36040.000000,42156.000000,23381.000000
16433.000000,36049.000000,42175.000000,23370.000000
16416.000000,36046.000000,42140.000000,23359.000000
16422.000000,36001.000000,42156.000000,23371.000000
16403.000000,36001.000000,42182.000000,23352.000000
16427.000000,36013.000000,42150.000000,23360.000000
16422.000000,36029.000000,42177.000000,23356.000000
16434.000000,35987.000000,42170.000000,23334.000000
16433.000000,36025.000000,42168.000000,23352.000000
16411.000000,35976.000000,42191.000000,23344.000000
16407.000000,35969.000000,42147.000000,23343.000000
16394.000000,35954.000000,42175.000000,23354.000000
16396.000000,35947.000000,42116.000000,23346.000000
16377.000000,35966.000000,42112.000000,23344.000000
16400.000000,35951.000000,42104.000000,23353.000000
16389.000000,35948.000000,42136.000000,23362.000000
16371.000000,35957.000000,42172.000000,23340.000000
16364.000000,35932.000000,42133.000000,23343.000000
16364.000000,35950.000000,42146.000000,23333.000000
16355.000000,35965.000000,42155.000000,23347.000000
16386.000000,35938.000000,42151.000000,23324.000000
16384.000000,35950.000000,42130.000000,23312.000000
16414.000000,35962.000000,42125.000000,23334.000000
16401.000000,35980.000000,42155.000000,23329.000000
16400.000000,36000.000000,42152.000000,23356.000000
16391.000000,36003.000000,42159.000000,23345.000000
16472.000000,36088.000000,42239.000000,23360.000000
16476.000000,36072.000000,42241.000000,23356.000000
16476.000000,36088.000000,42183.000000,23367.000000
16490.000000,36087.000000,42222.000000,23362.000000
16500.000000,36071.000000,42227.000000,23395.000000
16486.000000,36148.000000,42227.000000,23363.000000
16515.000000,36133.000000,42248.000000,23379.000000
16514.000000,36133.000000,42251.000000,23385.000000
16511.000000,36161.000000,42239.000000,23372.000000
16566.000000,36184.000000,42260.000000,23406.000000
16541.000000,36190.000000,42286.000000,23385.000000
16550.000000,36171.000000,42263.000000,23393.000000
16577.000000,36203.000000,42250.000000,23407.000000
16529.000000,36203.000000,42271.000000,23382.000000
16540.000000,36167.000000,42288.000000,23402.000000
16555.000000,36196.000000,42246.000000,23406.000000
16562.000000,36185.000000,42292.000000,23382.000000
16565.000000,36215.000000,42267.000000,23370.000000
16532.000000,36205.000000,42305.000000,23365.000000
16563.000000,36142.000000,42286.000000,23355.000000
16527.000000,36162.000000,42308.000000,23363.000000
16533.000000,36165.000000,42269.000000,23365.000000
16526.000000,36153.000000,42250.000000,23353.000000
16494.000000,36150.000000,42253.000000,23339.000000
16552.000000,36119.000000,42254.000000,23346.000000
16536.000000,36147.000000,42268.000000,23361.000000
16539.000000,36135.000000,42248.000000,23363.000000
16548.000000,36159.000000,42267.000000,23349.000000
16555.000000,36166.000000,42273.000000,23347.000000
16594.000000,36190.000000,42283.000000,23352.000000
16604.000000,36212.000000,42279.000000,23382.000000
16602.000000,36217.000000,42309.000000,23371.000000
16611.000000,36270.000000,42313.000000,23385.000000
16687.000000,36350.000000,42316.000000,23418.000000
16733.000000,36390.000000,42348.000000,23448.000000
16728.000000,36417.000000,42384.000000,23394.000000
16799.000000,36435.000000,42428.000000,23425.000000
16931.000000,36614.000000,42542.000000,23463.000000
16952.000000,36661.000000,42545.000000,23461.000000
16999.000000,36673.000000,42595.000000,23485.000000
16999.000000,36692.000000,42607.000000,23500.000000
17071.000000,36727.000000,42610.000000,23485.000000
17066.000000,36766.000000,42606.000000,23506.000000
17052.000000,36747.000000,42613.000000,23505.000000
17049.000000,36749.000000,42624.000000,23505.000000
17043.000000,36737.000000,42628.000000,23529.000000
17076.000000,36743.000000,42599.000000,23513.000000
17041.000000,36724.000000,42595.000000,23492.000000
17004.000000,36721.000000,42614.000000,23528.000000
17045.000000,36692.000000,42599.000000,23514.000000
17009.000000,36658.000000,42608.000000,23473.000000
17040.000000,36674.000000,42579.000000,23472.000000
16997.000000,36668.000000,42583.000000,23481.000000
17004.000000,36651.000000,42575.000000,23494.000000
16988.000000,36656.000000,42562.000000,23512.000000
16975.000000,36643.000000,42572.000000,23465.000000
16954.000000,36641.000000,42586.000000,23475.000000
16988.000000,36601.000000,42567.000000,23464.000000
16963.000000,36618.000000,42557.000000,23463.000000
16937.000000,36562.000000,42569.000000,23429.000000
16984.000000,36607.000000,42546.000000,23435.000000
16968.000000,36598.000000,42568.000000,23432.000000
16925.000000,36581.000000,42526.000000,23448.000000
16934.000000,36574.000000,42532.000000,23448.000000
16899.000000,36541.000000,42532.000000,23431.000000
16930.000000,36539.000000,42544.000000,23410.000000
16918.000000,36511.000000,42515.000000,23438.000000
16858.000000,36491.000000,42481.000000,23394.000000
16858.000000,36490.000000,42464.000000,23414.000000
16816.000000,36495.000000,42466.000000,23414.000000
16803.000000,36494.000000,42431.000000,23411.000000
16829.000000,36456.000000,42431.000000,23472.000000
16746.000000,36443.000000,42403.000000,23453.000000
16768.000000,36465.000000,42387.000000,23425.000000
16764.000000,36426.000000,42389.000000,23447.000000
16782.000000,36416.000000,42413.000000,23438.000000
16762.000000,36392.000000,42446.000000,23423.000000
16791.000000,36402.000000,42402.000000,23411.000000
16770.000000,36404.000000,42414.000000,23426.000000
16784.000000,36351.000000,42404.000000,23402.000000
16770.000000,36412.000000,42419.000000,23395.000000
16757.000000,36350.000000,42403.000000,23374.000000
16739.000000,36336.000000,42415.000000,23378.000000
16745.000000,36347.000000,42409.000000,23372.000000
16731.000000,36319.000000,42392.000000,23393.000000
16711.000000,36342.000000,42393.000000,23378.000000
16724.000000,36317.000000,42399.000000,23356.000000
16726.000000,36333.000000,42361.000000,23373.000000
16677.000000,36278.000000,42353.000000,23370.000000
16648.000000,36293.000000,42333.000000,23388.000000
16657.000000,36267.000000,42314.000000,23380.000000
16643.000000,36278.000000,42285.000000,23374.000000
16607.000000,36226.000000,42292.000000,23388.000000
16601.000000,36215.000000,42258.000000,23362.000000
16588.000000,36202.000000,42270.000000,23371.000000
16587.000000,36157.000000,42293.000000,23324.000000
16566.000000,36188.000000,42290.000000,23351.000000
16596.000000,36123.000000,42295.000000,23331.000000
16571.000000,36098.000000,42289.000000,23313.000000
16544.000000,36160.000000,42272.000000,23314.000000
16566.000000,36146.000000,42270.000000,23313.000000
16545.000000,36141.000000,42278.000000,23290.000000
16543.000000,36123.000000,42308.000000,23301.000000
16586.000000,36185.000000,42288.000000,23352.000000
16614.000000,36230.000000,42297.000000,23328.000000
16611.000000,36275.000000,42300.000000,23357.000000
16647.000000,36261.000000,42305.000000,23368.000000
16643.000000,36319.000000,42309.000000,23392.000000
16698.000000,36319.000000,42372.000000,23406.000000
16694.000000,36341.000000,42341.000000,23383.000000
16729.000000,36386.000000,42360.000000,23423.000000
16758.000000,36399.000000,42367.000000,23439.000000
16868.000000,36492.000000,42461.000000,23453.000000
16889.000000,36509.000000,42506.000000,23441.000000
16924.000000,36537.000000,42521.000000,23423.000000
16935.000000,36566.000000,42550.000000,23454.000000
16961.000000,36581.000000,42543.000000,23444.000000
16950.000000,36614.000000,42541.000000,23454.000000
16971.000000,36605.000000,42583.000000,23478.000000
17007.000000,36602.000000,42553.000000,23450.000000
16987.000000,36603.000000,42566.000000,23471.000000
16962.000000,36608.000000,42529.000000,23489.000000
16964.000000,36618.000000,42536.000000,23479.000000
16927.000000,36621.000000,42504.000000,23464.000000
16932.000000,36634.000000,42495.000000,23475.000000
16927.000000,36624.000000,42503.000000,23475.000000
16963.000000,36595.000000,42487.000000,23498.000000
16936.000000,36564.000000,42466.000000,23487.000000
16947.000000,36568.000000,42518.000000,23447.000000
16965.000000,36557.000000,42526.000000,23471.000000
16971.000000,36546.000000,42506.000000,23460.000000
16937.000000,36549.000000,42547.000000,23429.000000
16977.000000,36566.000000,42513.000000,23447.000000
16998.000000,36591.000000,42519.000000,23423.000000
16960.000000,36547.000000,42515.000000,23451.000000
16930.000000,36543.000000,42519.000000,23469.000000
16934.000000,36581.000000,42480.000000,23464.000000
16909.000000,36574.000000,42508.000000,23468.000000
16906.000000,36599.000000,42444.000000,23481.000000
16899.000000,36568.000000,42484.000000,23497.000000
16907.000000,36564.000000,42476.000000,23498.000000
16922.000000,36518.000000,42511.000000,23469.000000
16912.000000,36467.000000,42493.000000,23412.000000
16890.000000,36483.000000,42506.000000,23434.000000
16902.000000,36509.000000,42495.000000,23429.000000
16853.000000,36475.000000,42465.000000,23416.000000
16841.000000,36479.000000,42488.000000,23432.000000
16883.000000,36502.000000,42432.000000,23438.000000
16838.000000,36453.000000,42454.000000,23466.000000
16878.000000,36457.000000,42438.000000,23467.000000
16851.000000,36462.000000,42433.000000,23441.000000
16859.000000,36434.000000,42457.000000,23431.000000
16856.000000,36420.000000,42464.000000,23400.000000
16823.000000,36409.000000,42457.000000,23405.000000
16825.000000,36414.000000,42434.000000,23396.000000
16804.000000,36416.000000,42445.000000,23398.000000
16818.000000,36415.000000,42450.000000,23425.000000
16817.000000,36427.000000,42420.000000,23433.000000
16847.000000,36432.000000,42399.000000,23438.000000
16819.000000,36429.000000,42390.000000,23433.000000
16804.000000,36419.000000,42400.000000,23440.000000
16852.000000,36384.000000,42417.000000,23423.000000
16877.000000,36346.000000,42416.000000,23434.000000
16823.000000,36377.000000,42421.000000,23419.000000
16815.000000,36367.000000,42424.000000,23404.000000
16818.000000,36351.000000,42411.000000,23387.000000
16794.000000,36322.000000,42410.000000,23402.000000
16809.000000,36359.000000,42379.000000,23434.000000
16766.000000,36357.000000,42367.000000,23421.000000
16779.000000,36350.000000,42346.000000,23440.000000
16765.000000,36349.000000,42379.000000,23437.000000
16769.000000,36294.000000,42348.000000,23441.000000
16773.000000,36300.000000,42384.000000,23401.000000
16718.000000,36314.000000,42379.000000,23377.000000
16738.000000,36243.000000,42354.000000,23363.000000
16739.000000,36241.000000,42356.000000,23353.000000
16719.000000,36235.000000,42347.000000,23365.000000
16649.000000,36249.000000,42323.000000,23384.000000
16659.000000,36213.000000,42303.000000,23402.000000
16634.000000,36198.000000,42305.000000,23369.000000
16732.000000,36255.000000,42360.000000,23377.000000
16724.000000,36228.000000,42339.000000,23381.000000
16748.000000,36268.000000,42358.000000,23341.000000
16765.000000,36270.000000,42358.000000,23346.000000
16769.000000,36263.000000,42374.000000,23361.000000
16775.000000,36314.000000,42386.000000,23362.000000
16854.000000,36394.000000,42413.000000,23426.000000
16841.000000,36481.000000,42450.000000,23427.000000
16887.000000,36489.000000,42442.000000,23454.000000
16932.000000,36502.000000,42480.000000,23442.000000
17031.000000,36580.000000,42526.000000,23484.000000
17012.000000,36626.000000,42570.000000,23469.000000
17076.000000,36655.000000,42632.000000,23442.000000
17081.000000,36675.000000,42598.000000,23472.000000
17084.000000,36669.000000,42612.000000,23501.000000
17112.000000,36662.000000,42630.000000,23504.000000
17092.000000,36710.000000,42610.000000,23484.000000
17071.000000,36675.000000,42605.000000,23495.000000
17097.000000,36692.000000,42607.000000,23478.000000
17060.000000,36681.000000,42587.000000,23531.000000
17029.000000,36674.000000,42567.000000,23513.000000
17055.000000,36661.000000,42533.000000,23507.000000
17085.000000,36646.000000,42551.000000,23487.000000
17014.000000,36613.000000,42550.000000,23478.000000
17028.000000,36620.000000,42557.000000,23468.000000
17046.000000,36597.000000,42543.000000,23474.000000
17041.000000,36562.000000,42551.000000,23450.000000
17038.000000,36594.000000,42566.000000,23457.000000
17006.000000,36563.000000,42565.000000,23457.000000
17011.000000,36571.000000,42565.000000,23479.000000
16957.000000,36600.000000,42553.000000,23470.000000
16984.000000,36557.000000,42559.000000,23450.000000
16976.000000,36612.000000,42533.000000,23469.000000
16952.000000,36595.000000,42524.000000,23447.000000
16962.000000,36563.000000,42490.000000,23442.000000
16902.000000,36526.000000,42507.000000,23445.000000
16965.000000,36561.000000,42510.000000,23485.000000
16912.000000,36569.000000,42484.000000,23461.000000
16916.000000,36521.000000,42487.000000,23444.000000
16909.000000,36506.000000,42480.000000,23474.000000
16929.000000,36464.000000,42499.000000,23465.000000
16923.000000,36467.000000,42454.000000,23468.000000
16897.000000,36472.000000,42474.000000,23426.000000
16889.000000,36459.000000,42508.000000,23431.000000
16894.000000,36442.000000,42476.000000,23411.000000
16877.000000,36440.000000,42491.000000,23405.000000
16851.000000,36435.000000,42490.000000,23411.000000
16865.000000,36427.000000,42454.000000,23415.000000
16865.000000,36421.000000,42450.000000,23414.000000
16879.000000,36409.000000,42463.000000,23370.000000
16877.000000,36418.000000,42462.000000,23414.000000
16830.000000,36437.000000,42449.000000,23414.000000
16825.000000,36397.000000,42423.000000,23415.000000
16811.000000,36424.000000,42434.000000,23434.000000
16840.000000,36436.000000,42435.000000,23410.000000
16831.000000,36433.000000,42412.000000,23404.000000
16803.000000,36391.000000,42388.000000,23422.000000
16811.000000,36402.000000,42411.000000,23425.000000
16784.000000,36396.000000,42380.000000,23400.000000
16834.000000,36364.000000,42394.000000,23428.000000
16794.000000,36384.000000,42385.000000,23399.000000
16765.000000,36373.000000,42393.000000,23435.000000
16793.000000,36357.000000,42367.000000,23411.000000
16806.000000,36349.000000,42401.000000,23410.000000
16809.000000,36324.000000,42369.000000,23412.000000
16798.000000,36313.000000,42420.000000,23358.000000
16786.000000,36315.000000,42402.000000,23386.000000
16747.000000,36290.000000,42404.000000,23366.000000
16793.000000,36288.000000,42392.000000,23388.000000
16773.000000,36285.000000,42400.000000,23354.000000
16771.000000,36276.000000,42379.000000,23360.000000
16776.000000,36253.000000,42380.000000,23378.000000
16713.000000,36241.000000,42362.000000,23357.000000
16725.000000,36240.000000,42315.000000,23343.000000
16699.000000,36229.000000,42359.000000,23353.000000
16651.000000,36243.000000,42338.000000,23330.000000
16674.000000,36233.000000,42319.000000,23331.000000
16690.000000,36202.000000,42286.000000,23371.000000
16655.000000,36234.000000,42307.000000,23340.000000
16635.000000,36220.000000,42263.000000,23369.000000
16633.000000,36172.000000,42278.000000,23335.000000
16637.000000,36181.000000,42273.000000,23345.000000
16614.000000,36214.000000,42305.000000,23329.000000
16663.000000,36190.000000,42276.000000,23346.000000
16623.000000,36159.000000,42294.000000,23339.000000
16668.000000,36178.000000,42289.000000,23356.000000
16670.000000,36209.000000,42318.000000,23352.000000
16769.000000,36259.000000,42373.000000,23351.000000
16754.000000,36245.000000,42327.000000,23347.000000
16760.000000,36284.000000,42373.000000,23359.000000
16787.000000,36302.000000,42408.000000,23362.000000
16840.000000,36343.000000,42430.000000,23358.000000
16867.000000,36439.000000,42467.000000,23387.000000
16910.000000,36464.000000,42500.000000,23366.000000
16988.000000,36563.000000,42504.000000,23476.000000
16995.000000,36635.000000,42527.000000,23468.000000
16985.000000,36685.000000,42541.000000,23468.000000
17050.000000,36683.000000,42555.000000,23501.000000
17063.000000,36668.000000,42573.000000,23468.000000
17076.000000,36691.000000,42585.000000,23509.000000
17089.000000,36708.000000,42602.000000,23468.000000
17124.000000,36739.000000,42587.000000,23478.000000
17081.000000,36670.000000,42581.000000,23500.000000
17081.000000,36671.000000,42618.000000,23475.000000
17102.000000,36675.000000,42602.000000,23484.000000
17119.000000,36697.000000,42618.000000,23473.000000
17086.000000,36670.000000,42593.000000,23476.000000
17084.000000,36654.000000,42607.000000,23478.000000
17096.000000,36644.000000,42604.000000,23472.000000
17108.000000,36637.000000,42572.000000,23438.000000
17085.000000,36626.000000,42619.000000,23452.000000
17007.000000,36625.000000,42560.000000,23471.000000
17030.000000,36630.000000,42535.000000,23465.000000
17001.000000,36620.000000,42558.000000,23448.000000
17055.000000,36613.000000,42546.000000,23477.000000
16990.000000,36632.000000,42518.000000,23452.000000
16996.000000,36589.000000,42555.000000,23447.000000
17013.000000,36582.000000,42544.000000,23464.000000
17019.000000,36585.000000,42514.000000,23463.000000
16994.000000,36590.000000,42548.000000,23476.000000
17051.000000,36579.000000,42549.000000,23448.000000
16990.000000,36569.000000,42548.000000,23445.000000
17022.000000,36574.000000,42566.000000,23445.000000
17029.000000,36548.000000,42528.000000,23416.000000
16983.000000,36556.000000,42540.000000,23434.000000
16965.000000,36540.000000,42530.000000,23465.000000
16985.000000,36553.000000,42516.000000,23457.000000
16962.000000,36557.000000,42508.000000,23457.000000
16962.000000,36572.000000,42520.000000,23448.000000
16958.000000,36517.000000,42506.000000,23447.000000
16952.000000,36561.000000,42526.000000,23432.000000
16942.000000,36516.000000,42510.000000,23416.000000
16986.000000,36507.000000,42500.000000,23436.000000
16963.000000,36507.000000,42492.000000,23399.000000
16942.000000,36488.000000,42485.000000,23405.000000
16946.000000,36477.000000,42471.000000,23418.000000
16922.000000,36475.000000,42471.000000,23411.000000
16911.000000,36481.000000,42451.000000,23401.000000
16908.000000,36492.000000,42444.000000,23431.000000
16865.000000,36455.000000,42482.000000,23430.000000
16902.000000,36466.000000,42451.000000,23419.000000
16897.000000,36459.000000,42474.000000,23438.000000
16898.000000,36440.000000,42453.000000,23417.000000
16909.000000,36445.000000,42464.000000,23402.000000
16882.000000,36448.000000,42475.000000,23427.000000
16893.000000,36428.000000,42459.000000,23406.000000
16906.000000,36421.000000,42476.000000,23413.000000
16862.000000,36435.000000,42478.000000,23434.000000
16901.000000,36421.000000,42453.000000,23424.000000
16913.000000,36424.000000,42446.000000,23400.000000
16878.000000,36459.000000,42434.000000,23406.000000
16859.000000,36416.000000,42402.000000,23407.000000
16847.000000,36417.000000,42435.000000,23402.000000
16811.000000,36366.000000,42431.000000,23404.000000
16848.000000,36367.000000,42417.000000,23377.000000
16815.000000,36316.000000,42405.000000,23390.000000
16819.000000,36331.000000,42400.000000,23372.000000
16812.000000,36351.000000,42409.000000,23363.000000
16787.000000,36324.000000,42406.000000,23371.000000
16785.000000,36302.000000,42401.000000,23357.000000
16778.000000,36307.000000,42374.000000,23390.000000
16766.000000,36308.000000,42364.000000,23350.000000
16827.000000,36329.000000,42370.000000,23361.000000
16779.000000,36312.000000,42394.000000,23366.000000
16788.000000,36303.000000,42359.000000,23388.000000
16822.000000,36339.000000,42407.000000,23404.000000
16843.000000,36334.000000,42434.000000,23356.000000
16832.000000,36353.000000,42421.000000,23359.000000
16875.000000,36376.000000,42418.000000,23368.000000
16904.000000,36476.000000,42459.000000,23388.000000
16927.000000,36487.000000,42467.000000,23397.000000
16959.000000,36501.000000,42515.000000,23413.000000
16929.000000,36543.000000,42497.000000,23411.000000
16934.000000,36566.000000,42511.000000,23421.000000
17007.000000,36612.000000,42539.000000,23434.000000
17052.000000,36637.000000,42572.000000,23457.000000
17063.000000,36670.000000,42584.000000,23470.000000
17093.000000,36699.000000,42618.000000,23472.000000
17196.000000,36806.000000,42635.000000,23529.000000
17192.000000,36795.000000,42638.000000,23512.000000
17222.000000,36812.000000,42666.000000,23516.000000
17192.000000,36854.000000,42665.000000,23540.000000
17235.000000,36868.000000,42697.000000,23523.000000
17235.000000,36837.000000,42714.000000,23515.000000
17237.000000,36862.000000,42708.000000,23502.000000
17228.000000,36833.000000,42703.000000,23526.000000
17241.000000,36852.000000,42688.000000,23539.000000
17222.000000,36860.000000,42700.000000,23533.000000
17188.000000,36809.000000,42656.000000,23534.000000
17185.000000,36822.000000,42652.000000,23531.000000
17207.000000,36789.000000,42664.000000,23500.000000
17203.000000,36779.000000,42690.000000,23511.000000
17208.000000,36755.000000,42701.000000,23504.000000
17213.000000,36742.000000,42690.000000,23492.000000
17193.000000,36749.000000,42643.000000,23499.000000
17169.000000,36761.000000,42631.000000,23507.000000
17176.000000,36803.000000,42635.000000,23509.000000
17170.000000,36784.000000,42665.000000,23515.000000
17196.000000,36798.000000,42643.000000,23502.000000
17155.000000,36780.000000,42645.000000,23525.000000
17181.000000,36791.000000,42621.000000,23507.000000
17164.000000,36792.000000,42613.000000,23535.000000
17146.000000,36762.000000,42641.000000,23517.000000
17155.000000,36793.000000,42649.000000,23522.000000
17173.000000,36746.000000,42658.000000,23503.000000
17175.000000,36728.000000,42661.000000,23479.000000
17180.000000,36719.000000,42616.000000,23488.000000
17111.000000,36717.000000,42635.000000,23504.000000
17064.000000,36718.000000,42624.000000,23482.000000
17113.000000,36681.000000,42591.000000,23490.000000
17123.000000,36681.000000,42568.000000,23479.000000
17083.000000,36674.000000,42599.000000,23494.000000
17074.000000,36702.000000,42579.000000,23504.000000
17085.000000,36708.000000,42561.000000,23498.000000
17062.000000,36644.000000,42556.000000,23474.000000
17091.000000,36644.000000,42581.000000,23456.000000
17052.000000,36663.000000,42586.000000,23456.000000
17059.000000,36627.000000,42562.000000,23464.000000
17057.000000,36638.000000,42581.000000,23472.000000
17026.000000,36579.000000,42565.000000,23477.000000
17071.000000,36600.000000,42549.000000,23457.000000
16983.000000,36611.000000,42549.000000,23461.000000
17013.000000,36598.000000,42541.000000,23447.000000
17015.000000,36597.000000,42543.000000,23440.000000
16985.000000,36618.000000,42519.000000,23471.000000
17013.000000,36571.000000,42528.000000,23455.000000
16993.000000,36550.000000,42527.000000,23415.000000
17011.000000,36564.000000,42523.000000,23463.000000
17014.000000,36571.000000,42533.000000,23445.000000
16991.000000,36525.000000,42520.000000,23405.000000
16950.000000,36512.000000,42556.000000,23389.000000
16950.000000,36525.000000,42521.000000,23429.000000
16949.000000,36551.000000,42532.000000,23431.000000
16927.000000,36502.000000,42521.000000,23408.000000
16923.000000,36490.000000,42476.000000,23429.000000
16896.000000,36431.000000,42455.000000,23412.000000
16871.000000,36462.000000,42447.000000,23408.000000
16851.000000,36396.000000,42428.000000,23408.000000
16854.000000,36429.000000,42415.000000,23403.000000
16874.000000,36381.000000,42436.000000,23370.000000
16798.000000,36384.000000,42417.000000,23405.000000
16809.000000,36370.000000,42423.000000,23363.000000
16817.000000,36396.000000,42392.000000,23375.000000
16804.000000,36359.000000,42380.000000,23381.000000
16793.000000,36352.000000,42383.000000,23362.000000
16803.000000,36343.000000,42394.000000,23369.000000
16777.000000,36343.000000,42413.000000,23348.000000
16814.000000,36335.000000,42385.000000,23370.000000
16847.000000,36362.000000,42405.000000,23369.000000
16865.000000,36370.000000,42421.000000,23352.000000
16853.000000,36409.000000,42404.000000,23363.000000
16898.000000,36458.000000,42446.000000,23397.000000
16910.000000,36462.000000,42464.000000,23386.000000
16959.000000,36478.000000,42502.000000,23394.000000
16936.000000,36518.000000,42526.000000,23414.000000
17001.000000,36548.000000,42542.000000,23418.000000
17045.000000,36674.000000,42598.000000,23421.000000
17105.000000,36649.000000,42580.000000,23437.000000
17119.000000,36708.000000,42605.000000,23421.000000
17140.000000,36733.000000,42623.000000,23477.000000
17197.000000,36803.000000,42669.000000,23484.000000
17149.000000,36829.000000,42638.000000,23481.000000
17187.000000,36809.000000,42651.000000,23504.000000
17163.000000,36786.000000,42627.000000,23489.000000
17134.000000,36778.000000,42656.000000,23486.000000
17128.000000,36781.000000,42641.000000,23473.000000
17151.000000,36767.000000,42637.000000,23465.000000
17126.000000,36735.000000,42642.000000,23476.000000
17123.000000,36726.000000,42612.000000,23446.000000
17087.000000,36721.000000,42609.000000,23453.000000
17102.000000,36662.000000,42602.000000,23453.000000
17111.000000,36679.000000,42622.000000,23450.000000
17137.000000,36681.000000,42617.000000,23489.000000
17064.000000,36697.000000,42595.000000,23461.000000
17115.000000,36651.000000,42584.000000,23435.000000
17092.000000,36630.000000,42594.000000,23436.000000
17083.000000,36636.000000,42582.000000,23435.000000
17077.000000,36633.000000,42576.000000,23418.000000
17069.000000,36635.000000,42604.000000,23451.000000
17078.000000,36622.000000,42608.000000,23428.000000
17056.000000,36636.000000,42552.000000,23431.000000
17055.000000,36633.000000,42580.000000,23410.000000
17041.000000,36588.000000,42553.000000,23432.000000
16984.000000,36599.000000,42600.000000,23392.000000
17009.000000,36580.000000,42525.000000,23414.000000
16995.000000,36599.000000,42547.000000,23399.000000
16993.000000,36558.000000,42539.000000,23403.000000
16949.000000,36570.000000,42503.000000,23413.000000
16928.000000,36526.000000,42526.000000,23402.000000
16933.000000,36509.000000,42507.000000,23401.000000
16921.000000,36516.000000,42491.000000,23403.000000
16921.000000,36480.000000,42473.000000,23417.000000
16916.000000,36471.000000,42454.000000,23385.000000
16892.000000,36457.000000,42485.000000,23382.000000
16923.000000,36413.000000,42479.000000,23399.000000
16869.000000,36448.000000,42469.000000,23385.000000
16915.000000,36394.000000,42464.000000,23371.000000
16878.000000,36405.000000,42464.000000,23371.000000
16886.000000,36385.000000,42426.000000,23370.000000
16891.000000,36374.000000,42445.000000,23365.000000
16882.000000,36388.000000,42444.000000,23381.000000
16868.000000,36388.000000,42425.000000,23369.000000
16886.000000,36385.000000,42451.000000,23359.000000
16864.000000,36372.000000,42453.000000,23326.000000
16847.000000,36388.000000,42442.000000,23357.000000
16832.000000,36404.000000,42444.000000,23366.000000
16825.000000,36365.000000,42422.000000,23364.000000
16824.000000,36341.000000,42442.000000,23336.000000
16827.000000,36368.000000,42420.000000,23369.000000
16838.000000,36351.000000,42412.000000,23357.000000
16806.000000,36351.000000,42411.000000,23383.000000
16827.000000,36361.000000,42412.000000,23386.000000
16834.000000,36328.000000,42396.000000,23376.000000
16817.000000,36321.000000,42388.000000,23372.000000
16765.000000,36331.000000,42390.000000,23378.000000
16788.000000,36285.000000,42394.000000,23355.000000
16801.000000,36302.000000,42366.000000,23352.000000
16777.000000,36285.000000,42370.000000,23338.000000
16737.000000,36269.000000,42349.000000,23323.000000
16731.000000,36258.000000,42360.000000,23331.000000
16746.000000,36237.000000,42337.000000,23338.000000
16701.000000,36248.000000,42354.000000,23315.000000
16706.000000,36243.000000,42320.000000,23293.000000
16707.000000,36245.000000,42328.000000,23325.000000
16706.000000,36185.000000,42327.000000,23289.000000
16692.000000,36238.000000,42333.000000,23315.000000
16711.000000,36214.000000,42348.000000,23283.000000
16705.000000,36206.000000,42326.000000,23293.000000
16732.000000,36234.000000,42330.000000,23310.000000
16748.000000,36249.000000,42349.000000,23303.000000
16749.000000,36268.000000,42377.000000,23319.000000
16794.000000,36318.000000,42398.000000,23331.000000
16770.000000,36297.000000,42420.000000,23335.000000
16842.000000,36356.000000,42415.000000,23327.000000
16826.000000,36371.000000,42440.000000,23345.000000
16881.000000,36478.000000,42465.000000,23397.000000
16910.000000,36535.000000,42469.000000,23384.000000
16962.000000,36539.000000,42489.000000,23383.000000
17009.000000,36584.000000,42544.000000,23416.000000
17009.000000,36656.000000,42564.000000,23400.000000
17027.000000,36661.000000,42568.000000,23454.000000
17047.000000,36710.000000,42585.000000,23432.000000
17076.000000,36684.000000,42655.000000,23435.000000
17135.000000,36702.000000,42615.000000,23418.000000
17139.000000,36752.000000,42641.000000,23454.000000
17122.000000,36776.000000,42664.000000,23446.000000
17154.000000,36779.000000,42639.000000,23451.000000
17105.000000,36807.000000,42638.000000,23484.000000
17114.000000,36796.000000,42656.000000,23457.000000
17130.000000,36768.000000,42623.000000,23459.000000
17124.000000,36734.000000,42604.000000,23455.000000
17096.000000,36722.000000,42587.000000,23441.000000
17104.000000,36696.000000,42613.000000,23450.000000
17064.000000,36701.000000,42614.000000,23444.000000
17064.000000,36708.000000,42611.000000,23429.000000
17060.000000,36681.000000,42609.000000,23429.000000
17066.000000,36666.000000,42584.000000,23429.000000
17042.000000,36647.000000,42593.000000,23414.000000
17057.000000,36671.000000,42599.000000,23420.000000
17052.000000,36643.000000,42588.000000,23412.000000
17022.000000,36658.000000,42597.000000,23402.000000
17012.000000,36657.000000,42561.000000,23388.000000
17030.000000,36607.000000,42553.000000,23405.000000
17012.000000,36625.000000,42544.000000,23397.000000
17000.000000,36633.000000,42545.000000,23405.000000
16989.000000,36648.000000,42539.000000,23416.000000
16999.000000,36607.000000,42552.000000,23412.000000
16934.000000,36606.000000,42538.000000,23404.000000
16979.000000,36597.000000,42535.000000,23392.000000
16954.000000,36595.000000,42535.000000,23418.000000
16954.000000,36542.000000,42526.000000,23390.000000
16915.000000,36570.000000,42528.000000,23393.000000
16950.000000,36509.000000,42516.000000,23391.000000
16962.000000,36521.000000,42523.000000,23364.000000
16948.000000,36510.000000,42535.000000,23364.000000
16942.000000,36478.000000,42495.000000,23359.000000
16953.000000,36516.000000,42487.000000,23359.000000
16902.000000,36525.000000,42521.000000,23360.000000
16909.000000,36523.000000,42495.000000,23363.000000
16866.000000,36552.000000,42503.000000,23359.000000
16884.000000,36499.000000,42493.000000,23385.000000
16880.000000,36519.000000,42491.000000,23368.000000
16874.000000,36519.000000,42504.000000,23374.000000
16883.000000,36494.000000,42499.000000,23369.000000
16887.000000,36471.000000,42462.000000,23386.000000
16891.000000,36507.000000,42451.000000,23367.000000
16888.000000,36460.000000,42481.000000,23356.000000
16896.000000,36488.000000,42481.000000,23380.000000
16924.000000,36490.000000,42467.000000,23380.000000
16896.000000,36438.000000,42474.000000,23365.000000
16864.000000,36447.000000,42465.000000,23357.000000
16879.000000,36440.000000,42477.000000,23335.000000
16846.000000,36462.000000,42415.000000,23355.000000
16840.000000,36445.000000,42453.000000,23336.000000
16868.000000,36435.000000,42418.000000,23326.000000
16822.000000,36410.000000,42432.000000,23360.000000
16824.000000,36416.000000,42426.000000,23302.000000
16808.000000,36414.000000,42420.000000,23331.000000
16788.000000,36378.000000,42396.000000,23333.000000
16809.000000,36360.000000,42411.000000,23318.000000
16794.000000,36371.000000,42397.000000,23305.000000
16766.000000,36356.000000,42399.000000,23317.000000
16768.000000,36356.000000,42380.000000,23315.000000
16752.000000,36303.000000,42437.000000,23311.000000
16756.000000,36316.000000,42396.000000,23344.000000
16771.000000,36313.000000,42413.000000,23294.000000
16753.000000,36344.000000,42388.000000,23310.000000
16764.000000,36332.000000,42397.000000,23331.000000
16752.000000,36331.000000,42393.000000,23328.000000
16767.000000,36346.000000,42385.000000,23312.000000
16763.000000,36371.000000,42422.000000,23300.000000
16792.000000,36361.000000,42382.000000,23332.000000
16769.000000,36379.000000,42382.000000,23324.000000
16788.000000,36385.000000,42389.000000,23341.000000
16803.000000,36404.000000,42444.000000,23308.000000
16850.000000,36441.000000,42447.000000,23377.000000
16855.000000,36526.000000,42505.000000,23368.000000
16934.000000,36490.000000,42502.000000,23337.000000
16945.000000,36517.000000,42556.000000,23346.000000
16978.000000,36590.000000,42523.000000,23384.000000
17004.000000,36636.000000,42547.000000,23400.000000
17068.000000,36716.000000,42634.000000,23414.000000
17082.000000,36770.000000,42642.000000,23441.000000
17131.000000,36772.000000,42691.000000,23421.000000
17138.000000,36823.000000,42663.000000,23436.000000
17204.000000,36888.000000,42730.000000,23460.000000
17224.000000,36879.000000,42711.000000,23458.000000
17204.000000,36873.000000,42719.000000,23471.000000
17221.000000,36862.000000,42722.000000,23449.000000
17189.000000,36855.000000,42715.000000,23439.000000
17151.000000,36896.000000,42723.000000,23452.000000
17172.000000,36853.000000,42692.000000,23445.000000
17161.000000,36857.000000,42701.000000,23444.000000
17144.000000,36843.000000,42677.000000,23464.000000
17119.000000,36869.000000,42657.000000,23444.000000
17122.000000,36845.000000,42677.000000,23438.000000
17130.000000,36801.000000,42676.000000,23450.000000
17119.000000,36815.000000,42657.000000,23448.000000
17093.000000,36835.000000,42654.000000,23452.000000
17131.000000,36800.000000,42660.000000,23463.000000
17077.000000,36799.000000,42656.000000,23420.000000
17097.000000,36787.000000,42664.000000,23460.000000
17133.000000,36782.000000,42647.000000,23443.000000
17106.000000,36760.000000,42687.000000,23412.000000
17072.000000,36741.000000,42657.000000,23424.000000
17075.000000,36790.000000,42656.000000,23413.000000
17075.000000,36798.000000,42645.000000,23421.000000
17101.000000,36769.000000,42640.000000,23401.000000
17059.000000,36787.000000,42649.000000,23418.000000
17061.000000,36731.000000,42651.000000,23409.000000
17022.000000,36745.000000,42620.000000,23434.000000
17045.000000,36756.000000,42624.000000,23411.000000
17024.000000,36735.000000,42610.000000,23425.000000
17058.000000,36768.000000,42616.000000,23428.000000
17020.000000,36741.000000,42616.000000,23445.000000
17026.000000,36735.000000,42622.000000,23421.000000
17045.000000,36746.000000,42613.000000,23396.000000
17021.000000,36717.000000,42618.000000,23446.000000
16998.000000,36728.000000,42620.000000,23381.000000
17004.000000,36708.000000,42615.000000,23411.000000
17030.000000,36713.000000,42602.000000,23383.000000
16993.000000,36681.000000,42618.000000,23381.000000
16998.000000,36708.000000,42551.000000,23380.000000
16979.000000,36670.000000,42599.000000,23381.000000
16957.000000,36682.000000,42606.000000,23376.000000
16994.000000,36667.000000,42594.000000,23367.000000
16984.000000,36680.000000,42605.000000,23386.000000
16976.000000,36678.000000,42607.000000,23361.000000
16992.000000,36668.000000,42560.000000,23395.000000
16970.000000,36649.000000,42578.000000,23407.000000
16917.000000,36637.000000,42584.000000,23388.000000
16962.000000,36674.000000,42586.000000,23388.000000
16948.000000,36667.000000,42585.000000,23379.000000
16929.000000,36666.000000,42583.000000,23383.000000
16950.000000,36642.000000,42577.000000,23388.000000
16912.000000,36693.000000,42573.000000,23384.000000
16925.000000,36643.000000,42534.000000,23375.000000
16925.000000,36647.000000,42578.000000,23364.000000
16894.000000,36610.000000,42524.000000,23373.000000
16882.000000,36581.000000,42562.000000,23380.000000
16848.000000,36586.000000,42541.000000,23342.000000
16861.000000,36561.000000,42525.000000,23351.000000
16867.000000,36544.000000,42496.000000,23340.000000
16850.000000,36571.000000,42533.000000,23312.000000
16858.000000,36545.000000,42475.000000,23330.000000
16817.000000,36518.000000,42497.000000,23357.000000
16811.000000,36540.000000,42497.000000,23328.000000
16843.000000,36517.000000,42469.000000,23315.000000
16821.000000,36554.000000,42480.000000,23319.000000
16831.000000,36529.000000,42488.000000,23344.000000
16830.000000,36541.000000,42475.000000,23347.000000
16813.000000,36528.000000,42512.000000,23330.000000
16877.000000,36582.000000,42525.000000,23366.000000
16890.000000,36559.000000,42521.000000,23333.000000
16935.000000,36672.000000,42579.000000,23326.000000
16983.000000,36669.000000,42586.000000,23344.000000
16975.000000,36675.000000,42581.000000,23345.000000
16998.000000,36739.000000,42619.000000,23358.000000
17074.000000,36793.000000,42665.000000,23426.000000
17093.000000,36824.000000,42696.000000,23392.000000
17128.000000,36879.000000,42698.000000,23439.000000
17124.000000,36879.000000,42758.000000,23427.000000
17206.000000,36946.000000,42730.000000,23463.000000
17225.000000,36960.000000,42744.000000,23445.000000
17228.000000,36955.000000,42741.000000,23450.000000
17228.000000,36984.000000,42733.000000,23496.000000
17202.000000,37008.000000,42748.000000,23471.000000
17178.000000,36965.000000,42733.000000,23464.000000
17171.000000,36978.000000,42756.000000,23451.000000
17164.000000,36920.000000,42705.000000,23476.000000
17182.000000,36881.000000,42708.000000,23473.000000
17138.000000,36914.000000,42693.000000,23457.000000
17136.000000,36855.000000,42672.000000,23454.000000
17148.000000,36840.000000,42682.000000,23433.000000
17176.000000,36828.000000,42692.000000,23455.000000
17092.000000,36805.000000,42649.000000,23457.000000
17095.000000,36786.000000,42666.000000,23433.000000
17111.000000,36809.000000,42665.000000,23468.000000
17116.000000,36770.000000,42671.000000,23406.000000
17116.000000,36763.000000,42669.000000,23427.000000
17090.000000,36784.000000,42643.000000,23430.000000
17046.000000,36775.000000,42652.000000,23420.000000
17064.000000,36743.000000,42644.000000,23395.000000
17091.000000,36723.000000,42623.000000,23428.000000
17067.000000,36743.000000,42644.000000,23415.000000
17077.000000,36708.000000,42605.000000,23414.000000
17042.000000,36721.000000,42645.000000,23410.000000
17061.000000,36729.000000,42597.000000,23429.000000
17044.000000,36697.000000,42601.000000,23432.000000
17023.000000,36718.000000,42607.000000,23415.000000
17014.000000,36711.000000,42608.000000,23414.000000
17006.000000,36736.000000,42594.000000,23430.000000
17009.000000,36668.000000,42588.000000,23413.000000
16975.000000,36645.000000,42547.000000,23408.000000
16977.000000,36629.000000,42537.000000,23381.000000
16987.000000,36595.000000,42543.000000,23394.000000
16933.000000,36607.000000,42528.000000,23387.000000
16910.000000,36592.000000,42545.000000,23391.000000
16917.000000,36595.000000,42554.000000,23383.000000
16950.000000,36564.000000,42539.000000,23387.000000
16955.000000,36596.000000,42528.000000,23353.000000
16904.000000,36561.000000,42511.000000,23396.000000
16883.000000,36548.000000,42482.000000,23384.000000
16876.000000,36561.000000,42501.000000,23414.000000
16863.000000,36568.000000,42484.000000,23401.000000
16878.000000,36515.000000,42463.000000,23382.000000
16866.000000,36534.000000,42476.000000,23361.000000
16830.000000,36496.000000,42490.000000,23383.000000
16855.000000,36473.000000,42446.000000,23375.000000
16846.000000,36465.000000,42454.000000,23350.000000
16821.000000,36438.000000,42464.000000,23335.000000
16798.000000,36416.000000,42454.000000,23327.000000
16803.000000,36435.000000,42431.000000,23314.000000
16790.000000,36363.000000,42397.000000,23310.000000
16790.000000,36360.000000,42407.000000,23331.000000
16718.000000,36340.000000,42393.000000,23308.000000
16759.000000,36341.000000,42387.000000,23311.000000
16731.000000,36308.000000,42411.000000,23317.000000
16754.000000,36324.000000,42382.000000,23313.000000
16757.000000,36313.000000,42386.000000,23293.000000
16714.000000,36298.000000,42362.000000,23339.000000
16716.000000,36304.000000,42344.000000,23309.000000
16713.000000,36297.000000,42346.000000,23324.000000
16758.000000,36303.000000,42348.000000,23318.000000
16701.000000,36314.000000,42354.000000,23330.000000
16746.000000,36305.000000,42357.000000,23368.000000
16722.000000,36340.000000,42349.000000,23331.000000
16739.000000,36321.000000,42385.000000,23315.000000
16753.000000,36348.000000,42385.000000,23333.000000
16795.000000,36401.000000,42416.000000,23352.000000
16770.000000,36399.000000,42418.000000,23316.000000
16820.000000,36421.000000,42456.000000,23345.000000
16814.000000,36480.000000,42455.000000,23355.000000
16891.000000,36455.000000,42468.000000,23366.000000
16913.000000,36500.000000,42492.000000,23373.000000
16961.000000,36602.000000,42554.000000,23401.000000
17031.000000,36653.000000,42594.000000,23403.000000
17028.000000,36673.000000,42596.000000,23438.000000
17072.000000,36702.000000,42638.000000,23447.000000
17070.000000,36720.000000,42618.000000,23443.000000
17082.000000,36769.000000,42651.000000,23461.000000
17135.000000,36804.000000,42655.000000,23465.000000
17116.000000,36789.000000,42635.000000,23464.000000
17175.000000,36827.000000,42648.000000,23483.000000
17126.000000,36823.000000,42692.000000,23451.000000
17112.000000,36811.000000,42675.000000,23461.000000
17158.000000,36815.000000,42658.000000,23439.000000
17132.000000,36790.000000,42653.000000,23470.000000
17113.000000,36771.000000,42631.000000,23462.000000
17103.000000,36753.000000,42642.000000,23431.000000
17125.000000,36786.000000,42600.000000,23454.000000
17098.000000,36770.000000,42644.000000,23436.000000
17096.000000,36733.000000,42616.000000,23427.000000
17095.000000,36758.000000,42617.000000,23422.000000
17057.000000,36706.000000,42639.000000,23425.000000
17117.000000,36708.000000,42621.000000,23452.000000
17060.000000,36720.000000,42600.000000,23438.000000
17095.000000,36684.000000,42609.000000,23425.000000
17111.000000,36682.000000,42580.000000,23411.000000
17073.000000,36690.000000,42603.000000,23444.000000
17082.000000,36677.000000,42599.000000,23437.000000
17063.000000,36686.000000,42613.000000,23437.000000
17059.000000,36708.000000,42609.000000,23407.000000
17033.000000,36706.000000,42582.000000,23447.000000
17062.000000,36676.000000,42588.000000,23433.000000
17027.000000,36672.000000,42568.000000,23417.000000
17036.000000,36628.000000,42600.000000,23423.000000
17040.000000,36615.000000,42579.000000,23401.000000
17003.000000,36649.000000,42564.000000,23416.000000
17008.000000,36615.000000,42550.000000,23405.000000
16978.000000,36624.000000,42566.000000,23410.000000
16995.000000,36603.000000,42537.000000,23407.000000
16985.000000,36606.000000,42513.000000,23401.000000
16957.000000,36596.000000,42563.000000,23406.000000
16956.000000,36608.000000,42525.000000,23418.000000
16933.000000,36578.000000,42531.000000,23386.000000
16984.000000,36572.000000,42509.000000,23410.000000
16973.000000,36597.000000,42520.000000,23408.000000
16970.000000,36617.000000,42525.000000,23413.000000
16983.000000,36587.000000,42501.000000,23409.000000
16954.000000,36593.000000,42514.000000,23423.000000
16939.000000,36575.000000,42507.000000,23422.000000
16940.000000,36593.000000,42505.000000,23421.000000
16940.000000,36572.000000,42495.000000,23420.000000
16981.000000,36548.000000,42497.000000,23434.000000
16941.000000,36557.000000,42506.000000,23406.000000
16924.000000,36535.000000,42513.000000,23392.000000
16929.000000,36551.000000,42491.000000,23396.000000
16920.000000,36542.000000,42503.000000,23375.000000
16900.000000,36521.000000,42486.000000,23403.000000
16917.000000,36501.000000,42495.000000,23387.000000
16858.000000,36486.000000,42494.000000,23360.000000
16885.000000,36482.000000,42479.000000,23371.000000
16876.000000,36474.000000,42471.000000,23370.000000
16858.000000,36454.000000,42470.000000,23362.000000
16862.000000,36428.000000,42443.000000,23348.000000
16849.000000,36428.000000,42468.000000,23352.000000
16836.000000,36421.000000,42421.000000,23342.000000
16824.000000,36412.000000,42425.000000,23357.000000
16812.000000,36380.000000,42439.000000,23335.000000
16802.000000,36385.000000,42400.000000,23361.000000
16799.000000,36381.000000,42408.000000,23329.000000
16783.000000,36369.000000,42411.000000,23336.000000
16787.000000,36357.000000,42394.000000,23345.000000
16761.000000,36353.000000,42391.000000,23336.000000
16727.000000,36352.000000,42387.000000,23310.000000
16726.000000,36327.000000,42378.000000,23332.000000
16735.000000,36338.000000,42394.000000,23323.000000
16728.000000,36337.000000,42401.000000,23314.000000
16757.000000,36349.000000,42358.000000,23347.000000
16788.000000,36342.000000,42379.000000,23307.000000
16775.000000,36384.000000,42389.000000,23306.000000
16750.000000,36402.000000,42403.000000,23304.000000
16813.000000,36410.000000,42418.000000,23311.000000
16836.000000,36400.000000,42394.000000,23344.000000
16820.000000,36441.000000,42436.000000,23343.000000
16872.000000,36463.000000,42438.000000,23362.000000
16861.000000,36470.000000,42457.000000,23398.000000
16948.000000,36602.000000,42491.000000,23372.000000
17009.000000,36608.000000,42540.000000,23409.000000
17021.000000,36641.000000,42583.000000,23412.000000
17047.000000,36649.000000,42582.000000,23392.000000
17069.000000,36707.000000,42578.000000,23432.000000
17153.000000,36759.000000,42650.000000,23433.000000
17175.000000,36781.000000,42636.000000,23451.000000
17145.000000,36772.000000,42659.000000,23459.000000
17182.000000,36791.000000,42662.000000,23436.000000
17164.000000,36787.000000,42646.000000,23432.000000
17148.000000,36777.000000,42634.000000,23438.000000
17083.000000,36752.000000,42651.000000,23431.000000
17074.000000,36739.000000,42612.000000,23411.000000
17096.000000,36738.000000,42618.000000,23434.000000
17083.000000,36754.000000,42623.000000,23405.000000
17093.000000,36684.000000,42605.000000,23405.000000
17086.000000,36726.000000,42594.000000,23411.000000
17078.000000,36702.000000,42582.000000,23419.000000
17064.000000,36735.000000,42588.000000,23437.000000
17058.000000,36693.000000,42606.000000,23406.000000
17088.000000,36701.000000,42574.000000,23395.000000
17047.000000,36722.000000,42575.000000,23418.000000
17047.000000,36696.000000,42611.000000,23434.000000
17033.000000,36683.000000,42583.000000,23417.000000
17068.000000,36692.000000,42587.000000,23432.000000
17054.000000,36669.000000,42578.000000,23432.000000
17017.000000,36648.000000,42575.000000,23412.000000
17005.000000,36631.000000,42556.000000,23413.000000
16996.000000,36597.000000,42563.000000,23394.000000
17005.000000,36629.000000,42550.000000,23388.000000
17013.000000,36646.000000,42533.000000,23386.000000
16988.000000,36624.000000,42556.000000,23393.000000
17026.000000,36656.000000,42543.000000,23389.000000
16995.000000,36583.000000,42551.000000,23390.000000
16980.000000,36585.000000,42574.000000,23367.000000
17032.000000,36565.000000,42544.000000,23380.000000
17001.000000,36519.000000,42517.000000,23400.000000
16964.000000,36559.000000,42516.000000,23353.000000
16958.000000,36522.000000,42516.000000,23370.000000
16976.000000,36521.000000,42497.000000,23370.000000
16924.000000,36552.000000,42527.000000,23372.000000
16926.000000,36502.000000,42492.000000,23364.000000
16926.000000,36530.000000,42503.000000,23352.000000
16899.000000,36547.000000,42515.000000,23368.000000
16960.000000,36511.000000,42518.000000,23337.000000
16937.000000,36494.000000,42459.000000,23353.000000
16906.000000,36479.000000,42485.000000,23385.000000
16887.000000,36533.000000,42464.000000,23363.000000
16884.000000,36503.000000,42468.000000,23340.000000
16881.000000,36463.000000,42460.000000,23345.000000
16888.000000,36451.000000,42499.000000,23365.000000
16908.000000,36463.000000,42449.000000,23360.000000
16890.000000,36474.000000,42456.000000,23357.000000
16871.000000,36477.000000,42459.000000,23322.000000
16866.000000,36456.000000,42457.000000,23369.000000
16845.000000,36451.000000,42428.000000,23343.000000
16841.000000,36404.000000,42443.000000,23316.000000
16830.000000,36386.000000,42421.000000,23323.000000
16869.000000,36394.000000,42417.000000,23327.000000
16855.000000,36378.000000,42413.000000,23326.000000
16833.000000,36377.000000,42394.000000,23313.000000
16815.000000,36389.000000,42418.000000,23325.000000
16815.000000,36392.000000,42407.000000,23339.000000
16819.000000,36341.000000,42410.000000,23289.000000
16836.000000,36330.000000,42405.000000,23340.000000
16803.000000,36351.000000,42411.000000,23309.000000
16794.000000,36307.000000,42413.000000,23271.000000
16732.000000,36289.000000,42366.000000,23276.000000
16732.000000,36274.000000,42363.000000,23287.000000
16761.000000,36260.000000,42345.000000,23301.000000
16724.000000,36282.000000,42355.000000,23296.000000
16726.000000,36237.000000,42361.000000,23273.000000
16761.000000,36264.000000,42350.000000,23272.000000
16772.000000,36212.000000,42358.000000,23266.000000
16736.000000,36264.000000,42341.000000,23270.000000
16756.000000,36253.000000,42376.000000,23272.000000
16786.000000,36274.000000,42370.000000,23285.000000
16778.000000,36285.000000,42353.000000,23284.000000
16791.000000,36319.000000,42380.000000,23279.000000
16792.000000,36340.000000,42389.000000,23250.000000
16848.000000,36354.000000,42446.000000,23313.000000
16879.000000,36399.000000,42453.000000,23308.000000
16887.000000,36434.000000,42443.000000,23337.000000
16920.000000,36449.000000,42453.000000,23314.000000
16949.000000,36471.000000,42485.000000,23347.000000
16928.000000,36528.000000,42485.000000,23347.000000
17074.000000,36642.000000,42533.000000,23358.000000
17056.000000,36648.000000,42570.000000,23382.000000
17150.000000,36708.000000,42663.000000,23396.000000
17189.000000,36777.000000,42635.000000,23413.000000
17183.000000,36789.000000,42662.000000,23420.000000
17166.000000,36794.000000,42676.000000,23440.000000
17186.000000,36760.000000,42652.000000,23429.000000
17190.000000,36802.000000,42681.000000,23441.000000
17202.000000,36789.000000,42665.000000,23426.000000
17203.000000,36789.000000,42673.000000,23420.000000
17193.000000,36785.000000,42663.000000,23443.000000
17176.000000,36759.000000,42659.000000,23427.000000
17153.000000,36776.000000,42661.000000,23433.000000
17178.000000,36759.000000,42649.000000,23426.000000
17179.000000,36736.000000,42633.000000,23414.000000
17118.000000,36757.000000,42622.000000,23407.000000
17167.000000,36706.000000,42630.000000,23413.000000
17140.000000,36721.000000,42645.000000,23409.000000
17143.000000,36739.000000,42607.000000,23412.000000
17148.000000,36706.000000,42625.000000,23408.000000
17112.000000,36692.000000,42653.000000,23433.000000
17126.000000,36714.000000,42635.000000,23424.000000
17108.000000,36705.000000,42624.000000,23405.000000
17095.000000,36669.000000,42604.000000,23374.000000
17127.000000,36692.000000,42628.000000,23370.000000
17089.000000,36667.000000,42590.000000,23369.000000
17097.000000,36655.000000,42586.000000,23359.000000
17111.000000,36635.000000,42602.000000,23382.000000
17057.000000,36621.000000,42596.000000,23372.000000
17046.000000,36697.000000,42568.000000,23352.000000
17071.000000,36674.000000,42580.000000,23395.000000
17084.000000,36635.000000,42557.000000,23377.000000
17050.000000,36615.000000,42573.000000,23392.000000
17027.000000,36641.000000,42570.000000,23385.000000
17078.000000,36627.000000,42573.000000,23384.000000
17053.000000,36604.000000,42523.000000,23383.000000
17027.000000,36581.000000,42553.000000,23381.000000
17029.000000,36602.000000,42542.000000,23357.000000
17033.000000,36562.000000,42551.000000,23361.000000
17011.000000,36564.000000,42541.000000,23347.000000
17005.000000,36573.000000,42558.000000,23342.000000
17013.000000,36565.000000,42534.000000,23321.000000
17010.000000,36556.000000,42528.000000,23351.000000
16956.000000,36561.000000,42524.000000,23351.000000
16951.000000,36533.000000,42562.000000,23331.000000
16972.000000,36562.000000,42511.000000,23354.000000
16999.000000,36533.000000,42548.000000,23333.000000
16952.000000,36543.000000,42529.000000,23319.000000
16956.000000,36559.000000,42513.000000,23325.000000
16940.000000,36566.000000,42492.000000,23359.000000
16936.000000,36547.000000,42512.000000,23370.000000
16956.000000,36541.000000,42515.000000,23360.000000
16981.000000,36516.000000,42516.000000,23327.000000
16965.000000,36511.000000,42509.000000,23349.000000
16973.000000,36497.000000,42528.000000,23346.000000
16968.000000,36510.000000,42502.000000,23350.000000
16958.000000,36492.000000,42496.000000,23352.000000
16948.000000,36445.000000,42517.000000,23316.000000
16963.000000,36478.000000,42491.000000,23309.000000
16918.000000,36479.000000,42483.000000,23315.000000
16942.000000,36431.000000,42468.000000,23287.000000
16872.000000,36458.000000,42455.000000,23320.000000
16895.000000,36418.000000,42475.000000,23293.000000
16852.000000,36429.000000,42458.000000,23288.000000
16868.000000,36401.000000,42448.000000,23299.000000
16850.000000,36392.000000,42436.000000,23307.000000
16807.000000,36395.000000,42393.000000,23298.000000
16809.000000,36356.000000,42440.000000,23281.000000
16834.000000,36368.000000,42461.000000,23304.000000
16838.000000,36344.000000,42416.000000,23287.000000
16839.000000,36327.000000,42399.000000,23298.000000
16841.000000,36379.000000,42416.000000,23313.000000
16851.000000,36363.000000,42442.000000,23292.000000
16889.000000,36362.000000,42448.000000,23318.000000
16897.000000,36424.000000,42439.000000,23309.000000
16883.000000,36454.000000,42488.000000,23316.000000
16955.000000,36453.000000,42495.000000,23321.000000
16934.000000,36438.000000,42505.000000,23298.000000
16969.000000,36483.000000,42475.000000,23308.000000
16971.000000,36493.000000,42542.000000,23316.000000
17016.000000,36551.000000,42532.000000,23313.000000
17041.000000,36575.000000,42538.000000,23342.000000
17009.000000,36625.000000,42557.000000,23357.000000
17120.000000,36726.000000,42626.000000,23384.000000
17136.000000,36753.000000,42641.000000,23388.000000
17206.000000,36837.000000,42675.000000,23410.000000
17248.000000,36857.000000,42685.000000,23406.000000
17242.000000,36877.000000,42727.000000,23400.000000
17253.000000,36880.000000,42713.000000,23450.000000
17260.000000,36891.000000,42726.000000,23451.000000
17249.000000,36885.000000,42699.000000,23436.000000
17246.000000,36896.000000,42702.000000,23440.000000
17261.000000,36888.000000,42705.000000,23425.000000
17278.000000,36856.000000,42742.000000,23415.000000
17237.000000,36870.000000,42712.000000,23431.000000
17239.000000,36814.000000,42702.000000,23430.000000
17221.000000,36838.000000,42696.000000,23419.000000
17222.000000,36825.000000,42691.000000,23389.000000
17220.000000,36825.000000,42698.000000,23414.000000
17189.000000,36794.000000,42646.000000,23403.000000
17150.000000,36791.000000,42691.000000,23392.000000
17142.000000,36750.000000,42679.000000,23404.000000
17192.000000,36771.000000,42698.000000,23401.000000
17175.000000,36784.000000,42678.000000,23397.000000
17185.000000,36765.000000,42659.000000,23390.000000
17210.000000,36752.000000,42668.000000,23376.000000
17114.000000,36753.000000,42652.000000,23364.000000
17172.000000,36736.000000,42624.000000,23385.000000
17123.000000,36757.000000,42647.000000,23406.000000
17144.000000,36769.000000,42633.000000,23391.000000
17128.000000,36740.000000,42605.000000,23402.000000
17135.000000,36728.000000,42652.000000,23408.000000
17169.000000,36739.000000,42636.000000,23397.000000
17115.000000,36720.000000,42648.000000,23416.000000
17096.000000,36702.000000,42632.000000,23382.000000
17109.000000,36661.000000,42580.000000,23378.000000
17107.000000,36710.000000,42642.000000,23364.000000
17110.000000,36687.000000,42622.000000,23377.000000
17103.000000,36677.000000,42618.000000,23375.000000
17074.000000,36672.000000,42595.000000,23371.000000
17104.000000,36662.000000,42558.000000,23367.000000
17067.000000,36674.000000,42558.000000,23346.000000
17065.000000,36668.000000,42593.000000,23368.000000
17048.000000,36636.000000,42577.000000,23335.000000
17059.000000,36637.000000,42588.000000,23361.000000
17043.000000,36605.000000,42595.000000,23358.000000
17080.000000,36643.000000,42533.000000,23373.000000
17037.000000,36657.000000,42584.000000,23372.000000
17054.000000,36639.000000,42559.000000,23377.000000
17011.000000,36619.000000,42550.000000,23349.000000
17067.000000,36606.000000,42539.000000,23385.000000
17032.000000,36611.000000,42588.000000,23362.000000
17037.000000,36605.000000,42548.000000,23356.000000
17080.000000,36580.000000,42575.000000,23335.000000
17019.000000,36586.000000,42584.000000,23346.000000
17044.000000,36579.000000,42555.000000,23344.000000
16998.000000,36572.000000,42542.000000,23304.000000
16975.000000,36534.000000,42534.000000,23315.000000
16986.000000,36542.000000,42527.000000,23313.000000
16978.000000,36517.000000,42526.000000,23321.000000
16950.000000,36499.000000,42516.000000,23309.000000
16908.000000,36480.000000,42464.000000,23311.000000
16897.000000,36443.000000,42484.000000,23286.000000
16875.000000,36461.000000,42471.000000,23323.000000
16915.000000,36436.000000,42473.000000,23304.000000
16900.000000,36439.000000,42462.000000,23323.000000
16893.000000,36459.000000,42468.000000,23282.000000
16897.000000,36472.000000,42450.000000,23293.000000
16924.000000,36433.000000,42453.000000,23332.000000
16878.000000,36418.000000,42465.000000,23313.000000
16927.000000,36439.000000,42482.000000,23294.000000
16897.000000,36439.000000,42447.000000,23308.000000
16939.000000,36467.000000,42508.000000,23300.000000
16955.000000,36498.000000,42493.000000,23293.000000
16970.000000,36538.000000,42523.000000,23331.000000
17010.000000,36532.000000,42537.000000,23352.000000
16989.000000,36544.000000,42524.000000,23319.000000
17047.000000,36558.000000,42589.000000,23334.000000
17067.000000,36624.000000,42594.000000,23401.000000
17089.000000,36660.000000,42614.000000,23345.000000
17113.000000,36667.000000,42608.000000,23372.000000
17156.000000,36724.000000,42621.000000,23380.000000
17167.000000,36724.000000,42661.000000,23410.000000
17209.000000,36767.000000,42661.000000,23400.000000
17286.000000,36831.000000,42709.000000,23439.000000
17308.000000,36876.000000,42692.000000,23446.000000
17310.000000,36895.000000,42743.000000,23452.000000
17288.000000,36905.000000,42742.000000,23435.000000
17345.000000,36923.000000,42770.000000,23442.000000
17311.000000,36930.000000,42745.000000,23471.000000
17308.000000,36942.000000,42752.000000,23453.000000
17318.000000,36946.000000,42758.000000,23451.000000
17324.000000,36947.000000,42765.000000,23429.000000
17310.000000,36873.000000,42747.000000,23430.000000
17272.000000,36883.000000,42729.000000,23424.000000
17280.000000,36880.000000,42704.000000,23444.000000
17259.000000,36879.000000,42730.000000,23441.000000
17280.000000,36851.000000,42696.000000,23425.000000
17264.000000,36859.000000,42710.000000,23424.000000
17242.000000,36816.000000,42696.000000,23436.000000
17209.000000,36829.000000,42675.000000,23407.000000
17185.000000,36823.000000,42677.000000,23417.000000
17200.000000,36796.000000,42668.000000,23397.000000
17238.000000,36786.000000,42700.000000,23376.000000
17233.000000,36796.000000,42669.000000,23425.000000
17227.000000,36758.000000,42646.000000,23383.000000
17152.000000,36760.000000,42644.000000,23411.000000
17164.000000,36750.000000,42619.000000,23431.000000
17176.000000,36727.000000,42614.000000,23399.000000
17150.000000,36704.000000,42625.000000,23399.000000
17163.000000,36746.000000,42591.000000,23425.000000
17162.000000,36705.000000,42628.000000,23381.000000
17189.000000,36725.000000,42605.000000,23414.000000
17168.000000,36694.000000,42607.000000,23395.000000
17115.000000,36696.000000,42623.000000,23416.000000
17164.000000,36663.000000,42628.000000,23402.000000
17130.000000,36674.000000,42643.000000,23399.000000
17115.000000,36678.000000,42606.000000,23375.000000
17112.000000,36668.000000,42598.000000,23394.000000
17074.000000,36639.000000,42635.000000,23342.000000
17105.000000,36655.000000,42568.000000,23352.000000
17133.000000,36644.000000,42574.000000,23348.000000
17087.000000,36630.000000,42569.000000,23362.000000
17060.000000,36654.000000,42571.000000,23360.000000
17088.000000,36636.000000,42591.000000,23381.000000
17063.000000,36628.000000,42571.000000,23374.000000
17052.000000,36611.000000,42543.000000,23388.000000
17032.000000,36622.000000,42538.000000,23371.000000
17077.000000,36603.000000,42561.000000,23389.000000
17080.000000,36584.000000,42539.000000,23378.000000
17061.000000,36582.000000,42572.000000,23362.000000
17066.000000,36574.000000,42574.000000,23383.000000
17023.000000,36583.000000,42562.000000,23355.000000
17061.000000,36576.000000,42564.000000,23329.000000
17028.000000,36561.000000,42521.000000,23361.000000
17023.000000,36538.000000,42520.000000,23339.000000
16998.000000,36526.000000,42514.000000,23362.000000
16987.000000,36543.000000,42500.000000,23361.000000
16945.000000,36541.000000,42504.000000,23329.000000
17006.000000,36509.000000,42495.000000,23353.000000
16980.000000,36457.000000,42471.000000,23354.000000
16943.000000,36478.000000,42460.000000,23364.000000
16989.000000,36472.000000,42478.000000,23341.000000
16934.000000,36456.000000,42464.000000,23319.000000
16933.000000,36447.000000,42464.000000,23327.000000
16948.000000,36459.000000,42504.000000,23332.000000
16941.000000,36444.000000,42501.000000,23326.000000
16975.000000,36447.000000,42497.000000,23303.000000
16955.000000,36466.000000,42494.000000,23330.000000
16969.000000,36458.000000,42528.000000,23323.000000
16971.000000,36510.000000,42491.000000,23337.000000
16987.000000,36471.000000,42499.000000,23329.000000
17041.000000,36547.000000,42515.000000,23354.000000
17033.000000,36570.000000,42511.000000,23328.000000
17040.000000,36586.000000,42542.000000,23351.000000
17097.000000,36617.000000,42558.000000,23355.000000
17160.000000,36680.000000,42638.000000,23387.000000
17178.000000,36717.000000,42648.000000,23406.000000
17200.000000,36766.000000,42632.000000,23408.000000
17209.000000,36808.000000,42693.000000,23427.000000
17323.000000,36897.000000,42715.000000,23435.000000
17325.000000,36900.000000,42717.000000,23426.000000
17366.000000,36936.000000,42779.000000,23457.000000
17363.000000,36989.000000,42758.000000,23502.000000
17365.000000,37001.000000,42755.000000,23467.000000
17365.000000,36953.000000,42785.000000,23475.000000
17357.000000,36980.000000,42771.000000,23467.000000
17357.000000,36971.000000,42767.000000,23458.000000
17380.000000,36958.000000,42755.000000,23474.000000
17383.000000,36976.000000,42767.000000,23483.000000
17338.000000,36944.000000,42756.000000,23453.000000
17342.000000,36948.000000,42751.000000,23434.000000
17324.000000,36957.000000,42778.000000,23462.000000
17321.000000,36939.000000,42784.000000,23441.000000
17324.000000,36918.000000,42770.000000,23454.000000
17278.000000,36952.000000,42720.000000,23450.000000
17297.000000,36901.000000,42758.000000,23455.000000
17324.000000,36907.000000,42757.000000,23463.000000
17282.000000,36923.000000,42723.000000,23479.000000
17296.000000,36882.000000,42724.000000,23477.000000
17289.000000,36860.000000,42710.000000,23435.000000
17288.000000,36890.000000,42755.000000,23443.000000
17313.000000,36851.000000,42744.000000,23424.000000
17324.000000,36858.000000,42746.000000,23438.000000
17247.000000,36880.000000,42710.000000,23451.000000
17280.000000,36844.000000,42731.000000,23415.000000
17264.000000,36845.000000,42684.000000,23444.000000
17271.000000,36825.000000,42731.000000,23444.000000
17275.000000,36859.000000,42689.000000,23445.000000
17236.000000,36869.000000,42707.000000,23450.000000
17241.000000,36819.000000,42672.000000,23466.000000
17229.000000,36821.000000,42699.000000,23426.000000
17231.000000,36790.000000,42644.000000,23430.000000
17212.000000,36792.000000,42685.000000,23433.000000
17204.000000,36752.000000,42649.000000,23417.000000
17169.000000,36725.000000,42672.000000,23360.000000
17194.000000,36714.000000,42642.000000,23376.000000
17187.000000,36735.000000,42640.000000,23400.000000
17177.000000,36705.000000,42655.000000,23376.000000
17180.000000,36692.000000,42619.000000,23405.000000
17169.000000,36695.000000,42614.000000,23378.000000
17129.000000,36705.000000,42603.000000,23420.000000
17151.000000,36715.000000,42591.000000,23415.000000
17141.000000,36731.000000,42618.000000,23383.000000
17153.000000,36711.000000,42623.000000,23397.000000
17140.000000,36677.000000,42592.000000,23398.000000
17132.000000,36681.000000,42606.000000,23408.000000
17148.000000,36700.000000,42609.000000,23390.000000
17129.000000,36652.000000,42615.000000,23379.000000
17121.000000,36650.000000,42611.000000,23379.000000
17102.000000,36618.000000,42579.000000,23356.000000
17075.000000,36613.000000,42570.000000,23344.000000
17052.000000,36588.000000,42564.000000,23331.000000
17044.000000,36576.000000,42571.000000,23323.000000
17015.000000,36576.000000,42547.000000,23320.000000
17033.000000,36553.000000,42545.000000,23335.000000
17013.000000,36552.000000,42517.000000,23344.000000
16978.000000,36557.000000,42503.000000,23335.000000
16998.000000,36529.000000,42501.000000,23331.000000
16959.000000,36503.000000,42493.000000,23336.000000
16967.000000,36512.000000,42494.000000,23311.000000
16969.000000,36457.000000,42480.000000,23306.000000
16952.000000,36457.000000,42485.000000,23301.000000
16946.000000,36415.000000,42475.000000,23292.000000
16944.000000,36462.000000,42496.000000,23314.000000
16928.000000,36395.000000,42469.000000,23286.000000
16924.000000,36439.000000,42465.000000,23323.000000
16900.000000,36420.000000,42485.000000,23309.000000
16959.000000,36420.000000,42436.000000,23292.000000
16943.000000,36432.000000,42465.000000,23290.000000
16939.000000,36451.000000,42476.000000,23302.000000
16918.000000,36428.000000,42465.000000,23311.000000
16974.000000,36432.000000,42463.000000,23282.000000
16961.000000,36508.000000,42477.000000,23292.000000
17012.000000,36541.000000,42505.000000,23322.000000
17034.000000,36540.000000,42549.000000,23322.000000
17058.000000,36595.000000,42594.000000,23337.000000
17096.000000,36661.000000,42602.000000,23370.000000
17168.000000,36670.000000,42599.000000,23361.000000
17172.000000,36712.000000,42628.000000,23366.000000
17192.000000,36770.000000,42681.000000,23374.000000
17251.000000,36803.000000,42664.000000,23412.000000
17252.000000,36818.000000,42701.000000,23393.000000
17270.000000,36825.000000,42703.000000,23409.000000
17298.000000,36875.000000,42712.000000,23448.000000
17308.000000,36915.000000,42721.000000,23437.000000
17329.000000,36938.000000,42759.000000,23441.000000
17296.000000,36919.000000,42751.000000,23407.000000
17354.000000,36928.000000,42744.000000,23442.000000
17301.000000,36933.000000,42738.000000,23415.000000
17300.000000,36919.000000,42761.000000,23435.000000
17294.000000,36889.000000,42740.000000,23431.000000
17284.000000,36866.000000,42752.000000,23405.000000
17291.000000,36879.000000,42727.000000,23412.000000
17281.000000,36823.000000,42722.000000,23423.000000
17289.000000,36857.000000,42737.000000,23393.000000
17260.000000,36841.000000,42721.000000,23418.000000
17287.000000,36864.000000,42684.000000,23402.000000
17266.000000,36860.000000,42685.000000,23399.000000
17262.000000,36850.000000,42682.000000,23415.000000
17252.000000,36850.000000,42678.000000,23417.000000
17224.000000,36842.000000,42683.000000,23436.000000
17250.000000,36809.000000,42680.000000,23391.000000
17240.000000,36775.000000,42676.000000,23396.000000
17228.000000,36809.000000,42651.000000,23410.000000
17239.000000,36815.000000,42698.000000,23419.000000
17190.000000,36757.000000,42679.000000,23367.000000
17212.000000,36778.000000,42656.000000,23402.000000
17213.000000,36733.000000,42669.000000,23381.000000
17155.000000,36740.000000,42641.000000,23385.000000
17173.000000,36765.000000,42654.000000,23379.000000
17146.000000,36731.000000,42656.000000,23362.000000
17165.000000,36763.000000,42665.000000,23376.000000
17145.000000,36729.000000,42628.000000,23363.000000
17148.000000,36722.000000,42650.000000,23382.000000
17117.000000,36716.000000,42591.000000,23378.000000
17136.000000,36670.000000,42600.000000,23350.000000
17129.000000,36680.000000,42617.000000,23397.000000
17138.000000,36675.000000,42636.000000,23363.000000
17114.000000,36689.000000,42590.000000,23368.000000
17103.000000,36645.000000,42613.000000,23362.000000
17094.000000,36648.000000,42589.000000,23366.000000
17122.000000,36628.000000,42618.000000,23329.000000
17076.000000,36640.000000,42601.000000,23334.000000
17079.000000,36648.000000,42600.000000,23321.000000
17069.000000,36630.000000,42608.000000,23330.000000
17082.000000,36638.000000,42591.000000,23334.000000
17074.000000,36632.000000,42566.000000,23351.000000
17044.000000,36630.000000,42584.000000,23345.000000
17058.000000,36598.000000,42557.000000,23339.000000
17028.000000,36622.000000,42587.000000,23354.000000
17048.000000,36582.000000,42541.000000,23340.000000
17067.000000,36560.000000,42558.000000,23338.000000
17015.000000,36573.000000,42577.000000,23312.000000
17051.000000,36574.000000,42560.000000,23295.000000
17025.000000,36574.000000,42563.000000,23301.000000
17007.000000,36548.000000,42566.000000,23306.000000
17013.000000,36542.000000,42531.000000,23320.000000
17028.000000,36533.000000,42513.000000,23313.000000
16992.000000,36531.000000,42542.000000,23318.000000
16996.000000,36549.000000,42510.000000,23328.000000
16964.000000,36508.000000,42524.000000,23304.000000
16986.000000,36505.000000,42509.000000,23321.000000
16954.000000,36490.000000,42494.000000,23297.000000
16925.000000,36498.000000,42512.000000,23319.000000
16954.000000,36443.000000,42463.000000,23280.000000
16935.000000,36483.000000,42456.000000,23303.000000
16937.000000,36430.000000,42489.000000,23318.000000
16917.000000,36387.000000,42472.000000,23269.000000
16915.000000,36405.000000,42474.000000,23253.000000
16912.000000,36421.000000,42468.000000,23271.000000
16897.000000,36389.000000,42457.000000,23271.000000
16893.000000,36386.000000,42456.000000,23269.000000
16900.000000,36418.000000,42482.000000,23239.000000
16905.000000,36410.000000,42466.000000,23280.000000
16910.000000,36382.000000,42455.000000,23278.000000
16872.000000,36438.000000,42433.000000,23300.000000
16919.000000,36426.000000,42479.000000,23302.000000
16945.000000,36498.000000,42486.000000,23296.000000
17003.000000,36540.000000,42495.000000,23289.000000
17015.000000,36542.000000,42516.000000,23344.000000
17004.000000,36567.000000,42548.000000,23320.000000
17061.000000,36607.000000,42551.000000,23337.000000
17111.000000,36666.000000,42563.000000,23396.000000
17186.000000,36797.000000,42645.000000,23403.000000
17233.000000,36768.000000,42670.000000,23411.000000
17262.000000,36793.000000,42679.000000,23380.000000
17253.000000,36832.000000,42702.000000,23401.000000
17326.000000,36948.000000,42753.000000,23431.000000
17328.000000,36909.000000,42788.000000,23416.000000
17377.000000,36957.000000,42779.000000,23409.000000
17389.000000,36976.000000,42809.000000,23420.000000
17372.000000,36920.000000,42792.000000,23409.000000
17347.000000,36945.000000,42791.000000,23427.000000
17364.000000,36957.000000,42791.000000,23419.000000
17354.000000,36947.000000,42781.000000,23419.000000
17322.000000,36970.000000,42791.000000,23420.000000
17286.000000,36956.000000,42743.000000,23443.000000
17316.000000,36925.000000,42770.000000,23478.000000
17336.000000,36926.000000,42738.000000,23443.000000
17264.000000,36925.000000,42727.000000,23450.000000
17340.000000,36906.000000,42728.000000,23445.000000
17322.000000,36936.000000,42744.000000,23433.000000
17304.000000,36874.000000,42748.000000,23426.000000
17340.000000,36893.000000,42736.000000,23452.000000
17310.000000,36883.000000,42740.000000,23411.000000
17318.000000,36888.000000,42738.000000,23402.000000
17304.000000,36852.000000,42747.000000,23401.000000
17277.000000,36865.000000,42735.000000,23441.000000
17276.000000,36884.000000,42737.000000,23417.000000
17282.000000,36839.000000,42716.000000,23392.000000
17246.000000,36836.000000,42717.000000,23371.000000
17272.000000,36841.000000,42712.000000,23430.000000
17233.000000,36836.000000,42731.000000,23375.000000
17268.000000,36843.000000,42703.000000,23399.000000
17244.000000,36855.000000,42707.000000,23393.000000
17227.000000,36810.000000,42697.000000,23418.000000
17249.000000,36808.000000,42696.000000,23392.000000
17223.000000,36764.000000,42711.000000,23402.000000
17198.000000,36814.000000,42665.000000,23380.000000
17207.000000,36759.000000,42718.000000,23412.000000
17211.000000,36772.000000,42659.000000,23411.000000
17178.000000,36766.000000,42668.000000,23383.000000
17203.000000,36730.000000,42645.000000,23410.000000
17166.000000,36802.000000,42638.000000,23382.000000
17165.000000,36690.000000,42692.000000,23414.000000
17163.000000,36756.000000,42668.000000,23377.000000
17170.000000,36710.000000,42631.000000,23386.000000
17184.000000,36739.000000,42630.000000,23362.000000
17153.000000,36674.000000,42621.000000,23366.000000
17150.000000,36692.000000,42643.000000,23334.000000
17142.000000,36697.000000,42625.000000,23402.000000
17159.000000,36696.000000,42619.000000,23359.000000
17125.000000,36683.000000,42635.000000,23379.000000
17113.000000,36699.000000,42619.000000,23354.000000
17101.000000,36638.000000,42653.000000,23353.000000
17170.000000,36650.000000,42603.000000,23371.000000
17104.000000,36671.000000,42583.000000,23348.000000
17122.000000,36642.000000,42577.000000,23384.000000
17102.000000,36682.000000,42603.000000,23358.000000
17086.000000,36609.000000,42598.000000,23370.000000
17103.000000,36648.000000,42585.000000,23343.000000
17080.000000,36614.000000,42582.000000,23378.000000
17069.000000,36628.000000,42576.000000,23340.000000
17071.000000,36592.000000,42567.000000,23380.000000
17056.000000,36598.000000,42579.000000,23315.000000
17031.000000,36585.000000,42552.000000,23368.000000
17069.000000,36586.000000,42550.000000,23336.000000
17030.000000,36574.000000,42614.000000,23352.000000
17046.000000,36520.000000,42530.000000,23319.000000
17007.000000,36562.000000,42557.000000,23309.000000
17026.000000,36539.000000,42521.000000,23365.000000
16980.000000,36557.000000,42531.000000,23304.000000
16999.000000,36496.000000,42550.000000,23345.000000
16994.000000,36523.000000,42537.000000,23270.000000
17004.000000,36523.000000,42517.000000,23330.000000
17010.000000,36555.000000,42557.000000,23296.000000
16953.000000,36521.000000,42574.000000,23332.000000
17024.000000,36538.000000,42480.000000,23322.000000
17006.000000,36547.000000,42545.000000,23336.000000
17059.000000,36543.000000,42554.000000,23356.000000
17023.000000,36598.000000,42577.000000,23311.000000
17049.000000,36577.000000,42579.000000,23351.000000
17082.000000,36615.000000,42602.000000,23303.000000
17107.000000,36635.000000,42593.000000,23354.000000
17113.000000,36676.000000,42622.000000,23372.000000
17191.000000,36719.000000,42661.000000,23398.000000
17156.000000,36790.000000,42686.000000,23322.000000
17235.000000,36780.000000,42693.000000,23388.000000
17218.000000,36830.000000,42709.000000,23376.000000
17277.000000,36862.000000,42718.000000,23429.000000
17372.000000,36977.000000,42768.000000,23420.000000
17398.000000,36987.000000,42826.000000,23464.000000
17458.000000,37079.000000,42812.000000,23453.000000
17445.000000,37075.000000,42880.000000,23488.000000
17478.000000,37087.000000,42816.000000,23496.000000
17469.000000,37092.000000,42856.000000,23464.000000
17465.000000,37112.000000,42850.000000,23486.000000
17447.000000,37105.000000,42877.000000,23480.000000
17464.000000,37063.000000,42833.000000,23509.000000
17427.000000,37054.000000,42838.000000,23482.000000
17475.000000,37072.000000,42844.000000,23479.000000
17420.000000,37129.000000,42864.000000,23448.000000
17448.000000,37063.000000,42825.000000,23490.000000
17391.000000,37090.000000,42838.000000,23450.000000
17458.000000,37062.000000,42817.000000,23500.000000
17439.000000,37068.000000,42832.000000,23465.000000
17438.000000,37025.000000,42827.000000,23496.000000
17394.000000,37089.000000,42820.000000,23455.000000
17402.000000,37042.000000,42857.000000,23479.000000
17421.000000,37078.000000,42783.000000,23458.000000
17391.000000,37014.000000,42851.000000,23470.000000
17437.000000,37018.000000,42821.000000,23475.000000
17403.000000,37018.000000,42830.000000,23461.000000
17390.000000,37018.000000,42769.000000,23483.000000
17386.000000,37043.000000,42816.000000,23449.000000
17400.000000,36994.000000,42826.000000,23474.000000
17408.000000,37063.000000,42806.000000,23441.000000
17347.000000,36999.000000,42815.000000,23490.000000
17379.000000,37023.000000,42817.000000,23428.000000
17384.000000,36976.000000,42816.000000,23468.000000
17364.000000,36991.000000,42770.000000,23445.000000
17336.000000,36979.000000,42779.000000,23463.000000
17399.000000,36965.000000,42786.000000,23453.000000
17328.000000,36974.000000,42795.000000,23458.000000
17366.000000,36976.000000,42774.000000,23436.000000
17336.000000,36959.000000,42818.000000,23429.000000
17372.000000,36961.000000,42766.000000,23434.000000
17316.000000,36980.000000,42794.000000,23436.000000
17368.000000,36943.000000,42769.000000,23452.000000
17320.000000,36952.000000,42782.000000,23427.000000
17320.000000,36911.000000,42753.000000,23455.000000
17332.000000,36968.000000,42785.000000,23426.000000
17335.000000,36946.000000,42751.000000,23459.000000
17300.000000,36962.000000,42787.000000,23425.000000
17283.000000,36923.000000,42764.000000,23444.000000
17299.000000,36948.000000,42747.000000,23430.000000
17331.000000,36900.000000,42775.000000,23485.000000
17300.000000,36944.000000,42756.000000,23422.000000
17324.000000,36904.000000,42736.000000,23426.000000
17302.000000,36963.000000,42763.000000,23408.000000
17262.000000,36879.000000,42762.000000,23461.000000
17353.000000,36954.000000,42775.000000,23398.000000
17304.000000,36920.000000,42776.000000,23436.000000
17332.000000,36933.000000,42751.000000,23417.000000
17301.000000,36911.000000,42771.000000,23444.000000
17328.000000,36904.000000,42723.000000,23432.000000
17302.000000,36920.000000,42778.000000,23417.000000
17322.000000,36922.000000,42751.000000,23432.000000
17236.000000,36898.000000,42763.000000,23436.000000
17272.000000,36868.000000,42733.000000,23433.000000
17238.000000,36915.000000,42762.000000,23420.000000
17305.000000,36869.000000,42679.000000,23391.000000
17202.000000,36880.000000,42762.000000,23376.000000
17219.000000,36831.000000,42731.000000,23395.000000
17247.000000,36841.000000,42707.000000,23368.000000
17221.000000,36783.000000,42694.000000,23401.000000
17233.000000,36827.000000,42690.000000,23383.000000
17219.000000,36813.000000,42686.000000,23419.000000
17214.000000,36830.000000,42708.000000,23363.000000
17214.000000,36767.000000,42698.000000,23403.000000
17187.000000,36873.000000,42727.000000,23362.000000
17208.000000,36783.000000,42725.000000,23403.000000
17266.000000,36854.000000,42724.000000,23417.000000
17260.000000,36862.000000,42732.000000,23416.000000
17253.000000,36881.000000,42730.000000,23397.000000
17254.000000,36890.000000,42761.000000,23400.000000
17323.000000,36947.000000,42766.000000,23429.000000
17288.000000,36995.000000,42738.000000,23432.000000
17343.000000,36947.000000,42794.000000,23416.000000
17355.000000,36978.000000,42792.000000,23439.000000
17434.000000,37101.000000,42861.000000,23463.000000
17449.000000,37148.000000,42896.000000,23473.000000
17513.000000,37148.000000,42892.000000,23486.000000
17535.000000,37198.000000,42908.000000,23479.000000
17589.000000,37272.000000,42930.000000,23510.000000
17594.000000,37269.000000,42954.000000,23502.000000
17596.000000,37312.000000,42994.000000,23504.000000
17584.000000,37314.000000,42997.000000,23526.000000
17624.000000,37309.000000,43004.000000,23553.000000
17626.000000,37352.000000,42990.000000,23540.000000
17647.000000,37327.000000,43011.000000,23542.000000
17677.000000,37356.000000,43009.000000,23534.000000
17635.000000,37382.000000,43010.000000,23540.000000
17649.000000,37321.000000,43023.000000,23545.000000
17648.000000,37344.000000,42988.000000,23554.000000
17640.000000,37320.000000,43002.000000,23562.000000
17623.000000,37328.000000,42982.000000,23533.000000
17607.000000,37351.000000,42972.000000,23528.000000
17593.000000,37290.000000,43019.000000,23513.000000
17616.000000,37302.000000,42973.000000,23528.000000
17594.000000,37298.000000,42959.000000,23528.000000
17598.000000,37301.000000,43003.000000,23530.000000
17623.000000,37292.000000,42970.000000,23518.000000
17582.000000,37284.000000,42941.000000,23502.000000
17600.000000,37284.000000,42975.000000,23512.000000
17611.000000,37245.000000,42954.000000,23500.000000
17606.000000,37243.000000,42967.000000,23537.000000
17598.000000,37247.000000,42973.000000,23533.000000
17581.000000,37253.000000,42928.000000,23524.000000
17568.000000,37214.000000,42948.000000,23517.000000
17576.000000,37230.000000,42936.000000,23519.000000
17563.000000,37209.000000,42936.000000,23523.000000
17508.000000,37196.000000,42921.000000,23502.000000
17546.000000,37231.000000,42926.000000,23517.000000
17529.000000,37192.000000,42930.000000,23491.000000
17548.000000,37209.000000,42908.000000,23507.000000
17511.000000,37187.000000,42915.000000,23488.000000
17489.000000,37191.000000,42924.000000,23495.000000
17529.000000,37175.000000,42888.000000,23495.000000
17513.000000,37175.000000,42912.000000,23505.000000
17522.000000,37168.000000,42911.000000,23519.000000
17530.000000,37190.000000,42902.000000,23507.000000
17518.000000,37196.000000,42903.000000,23499.000000
17531.000000,37202.000000,42930.000000,23508.000000
17536.000000,37192.000000,42891.000000,23503.000000
17565.000000,37223.000000,42917.000000,23519.000000
17534.000000,37208.000000,42896.000000,23499.000000
17513.000000,37213.000000,42917.000000,23482.000000
17497.000000,37197.000000,42926.000000,23503.000000
17511.000000,37188.000000,42925.000000,23490.000000
17530.000000,37187.000000,42925.000000,23507.000000
17536.000000,37218.000000,42907.000000,23475.000000
17517.000000,37170.000000,42924.000000,23509.000000
17521.000000,37206.000000,42904.000000,23491.000000
17481.000000,37219.000000,42906.000000,23493.000000
17499.000000,37192.000000,42924.000000,23490.000000
17507.000000,37213.000000,42896.000000,23452.000000
17477.000000,37152.000000,42927.000000,23482.000000
17500.000000,37171.000000,42894.000000,23470.000000
17465.000000,37157.000000,42921.000000,23489.000000
17457.000000,37141.000000,42883.000000,23470.000000
17472.000000,37151.000000,42905.000000,23467.000000
17415.000000,37134.000000,42874.000000,23463.000000
17440.000000,37094.000000,42859.000000,23462.000000
17400.000000,37100.000000,42849.000000,23468.000000
17364.000000,37053.000000,42821.000000,23459.000000
17403.000000,37066.000000,42838.000000,23450.000000
17349.000000,37051.000000,42815.000000,23415.000000
17322.000000,37039.000000,42836.000000,23446.000000
17352.000000,37024.000000,42836.000000,23435.000000
17330.000000,37023.000000,42821.000000,23430.000000
17383.000000,37022.000000,42819.000000,23399.000000
17345.000000,36991.000000,42810.000000,23418.000000
17356.000000,37018.000000,42823.000000,23405.000000
17354.000000,37039.000000,42818.000000,23416.000000
17340.000000,37034.000000,42819.000000,23431.000000
17347.000000,37071.000000,42863.000000,23422.000000
17395.000000,37123.000000,42866.000000,23462.000000
17416.000000,37129.000000,42873.000000,23456.000000
17458.000000,37115.000000,42864.000000,23470.000000
17482.000000,37180.000000,42905.000000,23453.000000
17478.000000,37207.000000,42918.000000,23476.000000
17562.000000,37268.000000,42962.000000,23504.000000
17616.000000,37360.000000,43003.000000,23514.000000
17702.000000,37427.000000,43066.000000,23551.000000
17705.000000,37459.000000,43036.000000,23544.000000
17722.000000,37496.000000,43085.000000,23556.000000
17761.000000,37526.000000,43087.000000,23549.000000
17761.000000,37529.000000,43115.000000,23586.000000
17790.000000,37506.000000,43102.000000,23562.000000
17783.000000,37533.000000,43103.000000,23553.000000
17772.000000,37518.000000,43099.000000,23553.000000
17780.000000,37534.000000,43129.000000,23569.000000
17745.000000,37533.000000,43099.000000,23554.000000
17771.000000,37492.000000,43093.000000,23544.000000
17750.000000,37480.000000,43080.000000,23544.000000
17689.000000,37469.000000,43079.000000,23532.000000
17698.000000,37472.000000,43058.000000,23540.000000
17679.000000,37379.000000,43036.000000,23534.000000
17669.000000,37406.000000,43057.000000,23530.000000
17675.000000,37392.000000,43040.000000,23520.000000
17676.000000,37394.000000,43050.000000,23516.000000
17661.000000,37367.000000,43045.000000,23532.000000
17673.000000,37393.000000,43042.000000,23551.000000
17645.000000,37388.000000,42998.000000,23524.000000
17647.000000,37355.000000,43014.000000,23522.000000
17629.000000,37371.000000,43008.000000,23525.000000
17598.000000,37357.000000,43004.000000,23512.000000
17637.000000,37353.000000,43005.000000,23524.000000
17634.000000,37352.000000,42999.000000,23504.000000
17605.000000,37338.000000,42983.000000,23532.000000
17591.000000,37305.000000,42992.000000,23490.000000
17576.000000,37287.000000,43000.000000,23512.000000
17588.000000,37306.000000,42972.000000,23502.000000
17578.000000,37300.000000,42974.000000,23501.000000
17552.000000,37290.000000,42963.000000,23527.000000
17570.000000,37246.000000,42946.000000,23477.000000
17513.000000,37235.000000,42959.000000,23498.000000
17546.000000,37193.000000,42930.000000,23496.000000
17527.000000,37221.000000,42944.000000,23475.000000
17504.000000,37202.000000,42919.000000,23494.000000
17505.000000,37168.000000,42880.000000,23475.000000
17482.000000,37150.000000,42896.000000,23482.000000
17480.000000,37143.000000,42890.000000,23488.000000
17458.000000,37172.000000,42910.000000,23497.000000
17468.000000,37137.000000,42889.000000,23458.000000
17468.000000,37129.000000,42874.000000,23461.000000
17450.000000,37118.000000,42892.000000,23432.000000
17451.000000,37110.000000,42867.000000,23476.000000
17450.000000,37101.000000,42859.000000,23489.000000
17421.000000,37071.000000,42854.000000,23477.000000
17417.000000,37035.000000,42861.000000,23458.000000
17392.000000,37096.000000,42868.000000,23459.000000
17409.000000,37049.000000,42821.000000,23475.000000
17400.000000,37080.000000,42822.000000,23441.000000
17381.000000,37046.000000,42831.000000,23444.000000
17397.000000,37034.000000,42830.000000,23449.000000
17372.000000,37022.000000,42833.000000,23443.000000
17403.000000,37010.000000,42797.000000,23457.000000
17375.000000,36992.000000,42803.000000,23407.000000
17312.000000,36947.000000,42784.000000,23439.000000
17312.000000,36930.000000,42761.000000,23411.000000
17306.000000,36918.000000,42777.000000,23444.000000
17297.000000,36937.000000,42773.000000,23413.000000
17292.000000,36904.000000,42764.000000,23410.000000
17304.000000,36910.000000,42756.000000,23414.000000
17259.000000,36884.000000,42758.000000,23402.000000
17251.000000,36857.000000,42727.000000,23435.000000
17268.000000,36867.000000,42740.000000,23418.000000
17257.000000,36840.000000,42733.000000,23437.000000
17249.000000,36871.000000,42752.000000,23409.000000
17223.000000,36876.000000,42751.000000,23420.000000
17268.000000,36848.000000,42752.000000,23391.000000
17274.000000,36892.000000,42737.000000,23385.000000
17256.000000,36884.000000,42756.000000,23411.000000
17242.000000,36903.000000,42770.000000,23423.000000
17298.000000,36909.000000,42769.000000,23424.000000
17302.000000,36917.000000,42761.000000,23407.000000
17345.000000,36932.000000,42802.000000,23439.000000
17360.000000,36986.000000,42807.000000,23444.000000
17402.000000,37041.000000,42787.000000,23437.000000
17404.000000,37042.000000,42836.000000,23458.000000
17472.000000,37083.000000,42839.000000,23468.000000
17460.000000,37110.000000,42891.000000,23482.000000
17480.000000,37127.000000,42899.000000,23485.000000
17509.000000,37168.000000,42911.000000,23483.000000
17566.000000,37253.000000,42975.000000,23497.000000
17570.000000,37250.000000,42952.000000,23537.000000
17651.000000,37299.000000,42981.000000,23524.000000
17627.000000,37277.000000,42963.000000,23532.000000
17638.000000,37294.000000,42979.000000,23545.000000
17623.000000,37298.000000,42971.000000,23519.000000
17607.000000,37296.000000,42975.000000,23525.000000
17628.000000,37255.000000,42965.000000,23522.000000
17624.000000,37275.000000,42970.000000,23537.000000
17631.000000,37239.000000,42943.000000,23513.000000
17597.000000,37227.000000,42945.000000,23511.000000
17578.000000,37260.000000,42948.000000,23523.000000
17596.000000,37215.000000,42944.000000,23528.000000
17575.000000,37218.000000,42924.000000,23541.000000
17557.000000,37183.000000,42934.000000,23530.000000
17567.000000,37184.000000,42928.000000,23521.000000
17538.000000,37165.000000,42929.000000,23526.000000
17562.000000,37191.000000,42920.000000,23516.000000
17535.000000,37200.000000,42931.000000,23536.000000
17527.000000,37153.000000,42925.000000,23515.000000
17564.000000,37162.000000,42895.000000,23519.000000
17550.000000,37163.000000,42908.000000,23509.000000
17528.000000,37153.000000,42912.000000,23516.000000
17527.000000,37169.000000,42883.000000,23488.000000
17525.000000,37156.000000,42912.000000,23526.000000
17548.000000,37154.000000,42874.000000,23519.000000
17529.000000,37146.000000,42889.000000,23512.000000
17519.000000,37140.000000,42886.000000,23508.000000
17511.000000,37123.000000,42880.000000,23514.000000
17524.000000,37113.000000,42887.000000,23525.000000
17491.000000,37131.000000,42853.000000,23505.000000
17494.000000,37105.000000,42893.000000,23511.000000
17507.000000,37083.000000,42860.000000,23495.000000
17476.000000,37106.000000,42879.000000,23507.000000
17485.000000,37122.000000,42880.000000,23505.000000
17492.000000,37090.000000,42872.000000,23500.000000
17494.000000,37107.000000,42867.000000,23476.000000
17485.000000,37079.000000,42843.000000,23516.000000
17495.000000,37104.000000,42859.000000,23506.000000
17479.000000,37079.000000,42895.000000,23502.000000
17464.000000,37091.000000,42861.000000,23470.000000
17482.000000,37103.000000,42852.000000,23497.000000
17455.000000,37109.000000,42864.000000,23493.000000
17453.000000,37060.000000,42859.000000,23496.000000
17474.000000,37099.000000,42853.000000,23490.000000
17451.000000,37100.000000,42866.000000,23468.000000
17448.000000,37069.000000,42875.000000,23475.000000
17431.000000,37080.000000,42857.000000,23489.000000
17444.000000,37059.000000,42873.000000,23481.000000
17431.000000,37039.000000,42824.000000,23455.000000
17417.000000,36972.000000,42833.000000,23469.000000
17438.000000,37023.000000,42828.000000,23460.000000
17430.000000,36988.000000,42813.000000,23452.000000
17411.000000,36957.000000,42807.000000,23453.000000
17385.000000,36986.000000,42847.000000,23433.000000
17374.000000,36957.000000,42815.000000,23458.000000
17377.000000,36936.000000,42788.000000,23469.000000
17353.000000,36903.000000,42793.000000,23443.000000
17359.000000,36937.000000,42779.000000,23437.000000
17359.000000,36930.000000,42767.000000,23440.000000
17332.000000,36890.000000,42782.000000,23445.000000
17326.000000,36919.000000,42762.000000,23431.000000
17359.000000,36947.000000,42776.000000,23446.000000
17368.000000,36902.000000,42805.000000,23450.000000
17334.000000,36918.000000,42809.000000,23420.000000
17361.000000,36975.000000,42814.000000,23438.000000
17359.000000,36968.000000,42811.000000,23428.000000
17404.000000,36990.000000,42807.000000,23457.000000
17441.000000,36996.000000,42818.000000,23460.000000
17428.000000,37041.000000,42850.000000,23469.000000
17506.000000,37111.000000,42897.000000,23469.000000
17538.000000,37124.000000,42873.000000,23499.000000
17559.000000,37174.000000,42944.000000,23512.000000
17589.000000,37236.000000,42949.000000,23538.000000
17626.000000,37248.000000,42934.000000,23536.000000
17643.000000,37276.000000,43004.000000,23552.000000
17681.000000,37304.000000,43010.000000,23544.000000
17686.000000,37360.000000,43028.000000,23562.000000
17736.000000,37380.000000,43045.000000,23584.000000
17747.000000,37426.000000,43085.000000,23586.000000
17801.000000,37498.000000,43105.000000,23612.000000
17782.000000,37495.000000,43077.000000,23590.000000
17806.000000,37479.000000,43113.000000,23587.000000
17831.000000,37458.000000,43092.000000,23623.000000
17794.000000,37478.000000,43086.000000,23585.000000
17784.000000,37486.000000,43074.000000,23615.000000
17775.000000,37484.000000,43070.000000,23619.000000
17774.000000,37425.000000,43089.000000,23603.000000
17758.000000,37452.000000,43045.000000,23571.000000
17724.000000,37419.000000,43047.000000,23569.000000
17727.000000,37383.000000,43046.000000,23594.000000
17734.000000,37433.000000,43047.000000,23591.000000
17711.000000,37398.000000,43075.000000,23602.000000
17745.000000,37395.000000,43046.000000,23595.000000
17731.000000,37386.000000,43042.000000,23589.000000
17731.000000,37391.000000,43052.000000,23594.000000
17722.000000,37360.000000,43045.000000,23584.000000
17758.000000,37430.000000,43022.000000,23572.000000
17724.000000,37394.000000,43028.000000,23575.000000
17742.000000,37412.000000,43058.000000,23580.000000
17700.000000,37400.000000,43033.000000,23579.000000
17688.000000,37389.000000,43045.000000,23561.000000
17736.000000,37365.000000,43038.000000,23552.000000
17682.000000,37384.000000,43046.000000,23569.000000
17715.000000,37376.000000,43041.000000,23567.000000
17705.000000,37370.000000,43022.000000,23564.000000
17698.000000,37364.000000,43039.000000,23566.000000
17678.000000,37339.000000,43024.000000,23549.000000
17634.000000,37315.000000,43036.000000,23548.000000
17639.000000,37310.000000,42999.000000,23546.000000
17637.000000,37299.000000,42996.000000,23566.000000
17631.000000,37300.000000,43008.000000,23547.000000
17640.000000,37309.000000,42980.000000,23552.000000
17634.000000,37300.000000,42993.000000,23549.000000
17629.000000,37284.000000,42982.000000,23543.000000
17623.000000,37297.000000,42989.000000,23564.000000
17628.000000,37286.000000,43005.000000,23541.000000
17644.000000,37303.000000,43009.000000,23565.000000
17661.000000,37300.000000,43003.000000,23528.000000
17601.000000,37311.000000,42986.000000,23549.000000
17629.000000,37278.000000,42993.000000,23541.000000
17612.000000,37295.000000,42985.000000,23542.000000
17617.000000,37300.000000,43004.000000,23567.000000
17611.000000,37316.000000,42990.000000,23545.000000
17600.000000,37303.000000,42985.000000,23555.000000
