660nm,730nm,850nm,940nm
5111.000000,22008.000000,33957.000000,17444.000000
5076.000000,21937.000000,33915.000000,17447.000000
5027.000000,21903.000000,33898.000000,17419.000000
4919.000000,21768.000000,33790.000000,17369.000000
4887.000000,21708.000000,33782.000000,17376.000000
4827.000000,21631.000000,33739.000000,17330.000000
4813.000000,21633.000000,33733.000000,17362.000000
4785.000000,21625.000000,33747.000000,17324.000000
4789.000000,21603.000000,33733.000000,17319.000000
4775.000000,21639.000000,33707.000000,17326.000000
4754.000000,21625.000000,33725.000000,17341.000000
4799.000000,21594.000000,33716.000000,17337.000000
4824.000000,21597.000000,33734.000000,17331.000000
4751.000000,21606.000000,33721.000000,17314.000000
4778.000000,21617.000000,33745.000000,17327.000000
4782.000000,21601.000000,33716.000000,17329.000000
4848.000000,21655.000000,33760.000000,17327.000000
4855.000000,21707.000000,33783.000000,17353.000000
4898.000000,21732.000000,33806.000000,17351.000000
4950.000000,21803.000000,33829.000000,17379.000000
4947.000000,21812.000000,33845.000000,17393.000000
4982.000000,21881.000000,33864.000000,17371.000000
5397.000000,22335.000000,34127.000000,17510.000000
5528.000000,22439.000000,34192.000000,17563.000000
5615.000000,22591.000000,34289.000000,17574.000000
5711.000000,22687.000000,34352.000000,17630.000000
5839.000000,22782.000000,34396.000000,17648.000000
5877.000000,22896.000000,34438.000000,17671.000000
6000.000000,23044.000000,34541.000000,17742.000000
5977.000000,23039.000000,34558.000000,17712.000000
5979.000000,23054.000000,34543.000000,17685.000000
5924.000000,22992.000000,34544.000000,17718.000000
5936.000000,22958.000000,34517.000000,17721.000000
5931.000000,22958.000000,34476.000000,17680.000000
5911.000000,22972.000000,34528.000000,17703.000000
5908.000000,22923.000000,34478.000000,17719.000000
5868.000000,22872.000000,34473.000000,17683.000000
5829.000000,22829.000000,34425.000000,17662.000000
5760.000000,22821.000000,34396.000000,17643.000000
5771.000000,22784.000000,34402.000000,17659.000000
5740.000000,22713.000000,34352.000000,17643.000000
5695.000000,22723.000000,34361.000000,17644.000000
5673.000000,22718.000000,34341.000000,17645.000000
5683.000000,22672.000000,34320.000000,17617.000000
5645.000000,22658.000000,34299.000000,17632.000000
5583.000000,22615.000000,34295.000000,17615.000000
5571.000000,22564.000000,34277.000000,17607.000000
5562.000000,22531.000000,34284.000000,17588.000000
5502.000000,22458.000000,34218.000000,17577.000000
5455.000000,22407.000000,34165.000000,17554.000000
5431.000000,22397.000000,34197.000000,17580.000000
5397.000000,22395.000000,34147.000000,17540.000000
5373.000000,22352.000000,34154.000000,17547.000000
5346.000000,22326.000000,34110.000000,17528.000000
5304.000000,22318.000000,34139.000000,17533.000000
5235.000000,22206.000000,34042.000000,17508.000000
5221.000000,22150.000000,34041.000000,17478.000000
5113.000000,22070.000000,33959.000000,17448.000000
5117.000000,22037.000000,33947.000000,17444.000000
5065.000000,21995.000000,33965.000000,17460.000000
5067.000000,21972.000000,33923.000000,17443.000000
5007.000000,21894.000000,33859.000000,17408.000000
4989.000000,21870.000000,33872.000000,17409.000000
4960.000000,21852.000000,33871.000000,17399.000000
4983.000000,21834.000000,33832.000000,17405.000000
4939.000000,21769.000000,33811.000000,17390.000000
4916.000000,21800.000000,33845.000000,17395.000000
4919.000000,21754.000000,33799.000000,17392.000000
4862.000000,21717.000000,33782.000000,17349.000000
4809.000000,21700.000000,33765.000000,17379.000000
4760.000000,21621.000000,33710.000000,17343.000000
4660.000000,21528.000000,33657.000000,17313.000000
4648.000000,21485.000000,33614.000000,17308.000000
4615.000000,21421.000000,33639.000000,17307.000000
4499.000000,21320.000000,33551.000000,17256.000000
4481.000000,21330.000000,33550.000000,17258.000000
4492.000000,21287.000000,33538.000000,17241.000000
4412.000000,21245.000000,33520.000000,17222.000000
4453.000000,21230.000000,33494.000000,17261.000000
4416.000000,21254.000000,33521.000000,17222.000000
4444.000000,21223.000000,33493.000000,17241.000000
4434.000000,21279.000000,33506.000000,17231.000000
4446.000000,21293.000000,33511.000000,17235.000000
4441.000000,21302.000000,33572.000000,17224.000000
4479.000000,21306.000000,33543.000000,17238.000000
4483.000000,21305.000000,33570.000000,17249.000000
4503.000000,21352.000000,33562.000000,17238.000000
4582.000000,21356.000000,33597.000000,17250.000000
4545.000000,21389.000000,33590.000000,17255.000000
4622.000000,21496.000000,33665.000000,17275.000000
4678.000000,21525.000000,33637.000000,17287.000000
4814.000000,21674.000000,33740.000000,17331.000000
4834.000000,21727.000000,33806.000000,17356.000000
5263.000000,22251.000000,34083.000000,17501.000000
5397.000000,22346.000000,34119.000000,17517.000000
5491.000000,22482.000000,34209.000000,17576.000000
5577.000000,22569.000000,34274.000000,17601.000000
5737.000000,22782.000000,34398.000000,17637.000000
5790.000000,22762.000000,34410.000000,17630.000000
5732.000000,22808.000000,34424.000000,17659.000000
5747.000000,22784.000000,34392.000000,17632.000000
5714.000000,22766.000000,34389.000000,17646.000000
5696.000000,22761.000000,34402.000000,17651.000000
5722.000000,22760.000000,34382.000000,17627.000000
5681.000000,22723.000000,34345.000000,17609.000000
5567.000000,22615.000000,34274.000000,17591.000000
5549.000000,22580.000000,34274.000000,17580.000000
5536.000000,22497.000000,34263.000000,17581.000000
5454.000000,22499.000000,34249.000000,17585.000000
5471.000000,22474.000000,34196.000000,17553.000000
5458.000000,22429.000000,34182.000000,17551.000000
5355.000000,22330.000000,34122.000000,17515.000000
5302.000000,22317.000000,34105.000000,17526.000000
5311.000000,22295.000000,34112.000000,17525.000000
5229.000000,22192.000000,34048.000000,17473.000000
5224.000000,22158.000000,34031.000000,17480.000000
5232.000000,22161.000000,34026.000000,17495.000000
5183.000000,22143.000000,34033.000000,17496.000000
5163.000000,22104.000000,34019.000000,17467.000000
5134.000000,22085.000000,33993.000000,17466.000000
5152.000000,22065.000000,33946.000000,17442.000000
5147.000000,22039.000000,33969.000000,17451.000000
5110.000000,22023.000000,33963.000000,17432.000000
5074.000000,22031.000000,33923.000000,17432.000000
5018.000000,21955.000000,33897.000000,17423.000000
5011.000000,21935.000000,33926.000000,17409.000000
4991.000000,21878.000000,33884.000000,17407.000000
4955.000000,21841.000000,33841.000000,17413.000000
4922.000000,21790.000000,33846.000000,17376.000000
4902.000000,21770.000000,33802.000000,17392.000000
4866.000000,21780.000000,33790.000000,17369.000000
4847.000000,21766.000000,33793.000000,17380.000000
4781.000000,21665.000000,33754.000000,17368.000000
4764.000000,21646.000000,33745.000000,17341.000000
4727.000000,21607.000000,33735.000000,17349.000000
4667.000000,21535.000000,33662.000000,17351.000000
4700.000000,21533.000000,33670.000000,17328.000000
4622.000000,21509.000000,33694.000000,17309.000000
4651.000000,21495.000000,33643.000000,17293.000000
4607.000000,21462.000000,33654.000000,17298.000000
4578.000000,21422.000000,33614.000000,17282.000000
4396.000000,21240.000000,33511.000000,17244.000000
4375.000000,21202.000000,33455.000000,17218.000000
4361.000000,21191.000000,33447.000000,17205.000000
4315.000000,21114.000000,33426.000000,17206.000000
4216.000000,20995.000000,33370.000000,17171.000000
4189.000000,20995.000000,33338.000000,17143.000000
4134.000000,20963.000000,33330.000000,17153.000000
4146.000000,20920.000000,33285.000000,17131.000000
4115.000000,20914.000000,33337.000000,17128.000000
4096.000000,20869.000000,33298.000000,17139.000000
4122.000000,20868.000000,33272.000000,17096.000000
4066.000000,20858.000000,33300.000000,17125.000000
4113.000000,20861.000000,33306.000000,17122.000000
4152.000000,20893.000000,33306.000000,17106.000000
4118.000000,20910.000000,33312.000000,17089.000000
4150.000000,20888.000000,33321.000000,17094.000000
4191.000000,20955.000000,33328.000000,17113.000000
4169.000000,21006.000000,33346.000000,17124.000000
4242.000000,20968.000000,33367.000000,17139.000000
4386.000000,21132.000000,33436.000000,17162.000000
4401.000000,21175.000000,33472.000000,17162.000000
4427.000000,21209.000000,33497.000000,17172.000000
4484.000000,21298.000000,33520.000000,17166.000000
4545.000000,21378.000000,33544.000000,17221.000000
4619.000000,21415.000000,33606.000000,17226.000000
4859.000000,21657.000000,33746.000000,17283.000000
4960.000000,21796.000000,33844.000000,17323.000000
5275.000000,22178.000000,34067.000000,17433.000000
5412.000000,22341.000000,34122.000000,17479.000000
5465.000000,22429.000000,34141.000000,17485.000000
5580.000000,22572.000000,34274.000000,17564.000000
5579.000000,22528.000000,34243.000000,17582.000000
5593.000000,22543.000000,34237.000000,17566.000000
5549.000000,22551.000000,34279.000000,17538.000000
5516.000000,22486.000000,34194.000000,17506.000000
5510.000000,22452.000000,34162.000000,17527.000000
5503.000000,22451.000000,34192.000000,17491.000000
5446.000000,22415.000000,34133.000000,17506.000000
5404.000000,22391.000000,34155.000000,17500.000000
5403.000000,22406.000000,34131.000000,17528.000000
5388.000000,22388.000000,34134.000000,17493.000000
5380.000000,22339.000000,34132.000000,17479.000000
5339.000000,22247.000000,34058.000000,17466.000000
5297.000000,22214.000000,34056.000000,17428.000000
5264.000000,22180.000000,34025.000000,17444.000000
5258.000000,22164.000000,34025.000000,17414.000000
5226.000000,22139.000000,34016.000000,17430.000000
5171.000000,22118.000000,34021.000000,17434.000000
5178.000000,22072.000000,33971.000000,17422.000000
5118.000000,22002.000000,33940.000000,17401.000000
5040.000000,21919.000000,33896.000000,17372.000000
5017.000000,21897.000000,33887.000000,17343.000000
4979.000000,21886.000000,33863.000000,17352.000000
4906.000000,21805.000000,33809.000000,17333.000000
4867.000000,21778.000000,33786.000000,17327.000000
4841.000000,21726.000000,33792.000000,17303.000000
4810.000000,21666.000000,33780.000000,17327.000000
4783.000000,21637.000000,33725.000000,17320.000000
4666.000000,21536.000000,33673.000000,17277.000000
4662.000000,21529.000000,33629.000000,17253.000000
4628.000000,21497.000000,33638.000000,17254.000000
4542.000000,21362.000000,33584.000000,17217.000000
4538.000000,21333.000000,33547.000000,17223.000000
4529.000000,21336.000000,33511.000000,17232.000000
4522.000000,21340.000000,33564.000000,17231.000000
4516.000000,21312.000000,33516.000000,17200.000000
4466.000000,21297.000000,33520.000000,17214.000000
4421.000000,21209.000000,33499.000000,17183.000000
4366.000000,21129.000000,33448.000000,17175.000000
4339.000000,21111.000000,33424.000000,17148.000000
4264.000000,21081.000000,33424.000000,17151.000000
4290.000000,21028.000000,33342.000000,17135.000000
4263.000000,21008.000000,33336.000000,17140.000000
4139.000000,20868.000000,33269.000000,17081.000000
4078.000000,20848.000000,33264.000000,17068.000000
3951.000000,20691.000000,33204.000000,17030.000000
3912.000000,20704.000000,33186.000000,17004.000000
3860.000000,20620.000000,33161.000000,16986.000000
3864.000000,20584.000000,33130.000000,16966.000000
3896.000000,20629.000000,33115.000000,16983.000000
3907.000000,20625.000000,33122.000000,16944.000000
3903.000000,20607.000000,33139.000000,16957.000000
3920.000000,20642.000000,33187.000000,16985.000000
3929.000000,20663.000000,33153.000000,16953.000000
3908.000000,20649.000000,33170.000000,16962.000000
3963.000000,20704.000000,33155.000000,16957.000000
3963.000000,20711.000000,33161.000000,16970.000000
4115.000000,20891.000000,33312.000000,16984.000000
4167.000000,20918.000000,33307.000000,16995.000000
4217.000000,20984.000000,33342.000000,17028.000000
4372.000000,21189.000000,33441.000000,17046.000000
4438.000000,21250.000000,33459.000000,17078.000000
4517.000000,21301.000000,33515.000000,17091.000000
4730.000000,21556.000000,33679.000000,17171.000000
4821.000000,21663.000000,33730.000000,17190.000000
4916.000000,21783.000000,33783.000000,17198.000000
5215.000000,22132.000000,34018.000000,17325.000000
5306.000000,22254.000000,34052.000000,17347.000000
5358.000000,22321.000000,34112.000000,17338.000000
5392.000000,22368.000000,34107.000000,17398.000000
5413.000000,22352.000000,34134.000000,17406.000000
5351.000000,22295.000000,34078.000000,17389.000000
5310.000000,22281.000000,34075.000000,17365.000000
5333.000000,22263.000000,34052.000000,17358.000000
5293.000000,22245.000000,34041.000000,17361.000000
5248.000000,22184.000000,34055.000000,17350.000000
5268.000000,22189.000000,34008.000000,17335.000000
5149.000000,22034.000000,33929.000000,17300.000000
5120.000000,22036.000000,33930.000000,17300.000000
5115.000000,22007.000000,33930.000000,17301.000000
5085.000000,21962.000000,33880.000000,17302.000000
5065.000000,21959.000000,33923.000000,17275.000000
4961.000000,21849.000000,33826.000000,17256.000000
4926.000000,21819.000000,33818.000000,17255.000000
4907.000000,21826.000000,33811.000000,17242.000000
4930.000000,21764.000000,33786.000000,17245.000000
4886.000000,21767.000000,33778.000000,17256.000000
4820.000000,21736.000000,33753.000000,17215.000000
4847.000000,21684.000000,33745.000000,17215.000000
4817.000000,21702.000000,33753.000000,17232.000000
4811.000000,21652.000000,33724.000000,17211.000000
4670.000000,21555.000000,33669.000000,17134.000000
4684.000000,21543.000000,33644.000000,17141.000000
4637.000000,21484.000000,33632.000000,17143.000000
4586.000000,21437.000000,33613.000000,17174.000000
4591.000000,21461.000000,33599.000000,17113.000000
4555.000000,21397.000000,33580.000000,17115.000000
4505.000000,21337.000000,33516.000000,17106.000000
4530.000000,21290.000000,33513.000000,17116.000000
4490.000000,21278.000000,33522.000000,17101.000000
4443.000000,21273.000000,33524.000000,17104.000000
4372.000000,21164.000000,33458.000000,17094.000000
4377.000000,21193.000000,33444.000000,17073.000000
4364.000000,21180.000000,33458.000000,17046.000000
4371.000000,21153.000000,33436.000000,17051.000000
4301.000000,21166.000000,33419.000000,17039.000000
4289.000000,21134.000000,33398.000000,17023.000000
4195.000000,21002.000000,33368.000000,17008.000000
4180.000000,21000.000000,33331.000000,17011.000000
4173.000000,20970.000000,33322.000000,16991.000000
4038.000000,20792.000000,33240.000000,16917.000000
4002.000000,20756.000000,33214.000000,16923.000000
3943.000000,20748.000000,33187.000000,16901.000000
3928.000000,20663.000000,33174.000000,16895.000000
3846.000000,20605.000000,33108.000000,16853.000000
3813.000000,20614.000000,33086.000000,16839.000000
3765.000000,20538.000000,33108.000000,16847.000000
3790.000000,20543.000000,33084.000000,16859.000000
3766.000000,20544.000000,33094.000000,16828.000000
3773.000000,20544.000000,33074.000000,16816.000000
3788.000000,20507.000000,33075.000000,16822.000000
3823.000000,20597.000000,33102.000000,16782.000000
3819.000000,20564.000000,33099.000000,16811.000000
3863.000000,20625.000000,33104.000000,16765.000000
3872.000000,20613.000000,33120.000000,16798.000000
3915.000000,20629.000000,33107.000000,16814.000000
3951.000000,20710.000000,33185.000000,16798.000000
4093.000000,20818.000000,33244.000000,16839.000000
4107.000000,20884.000000,33274.000000,16843.000000
4113.000000,20880.000000,33287.000000,16833.000000
4184.000000,20972.000000,33340.000000,16853.000000
4323.000000,21088.000000,33417.000000,16901.000000
4510.000000,21316.000000,33520.000000,16929.000000
4565.000000,21386.000000,33553.000000,16989.000000
4661.000000,21464.000000,33602.000000,16981.000000
4686.000000,21555.000000,33675.000000,17016.000000
4963.000000,21865.000000,33830.000000,17124.000000
5051.000000,21991.000000,33881.000000,17140.000000
5146.000000,22098.000000,33991.000000,17179.000000
5236.000000,22146.000000,33988.000000,17188.000000
5268.000000,22238.000000,34058.000000,17182.000000
5297.000000,22282.000000,34065.000000,17209.000000
5330.000000,22296.000000,34031.000000,17241.000000
5253.000000,22169.000000,34010.000000,17188.000000
5239.000000,22166.000000,34029.000000,17177.000000
5227.000000,22152.000000,33975.000000,17173.000000
5221.000000,22145.000000,33970.000000,17188.000000
5213.000000,22154.000000,34019.000000,17143.000000
5131.000000,22111.000000,33984.000000,17161.000000
5146.000000,22112.000000,33981.000000,17171.000000
5089.000000,22063.000000,33961.000000,17152.000000
5091.000000,22021.000000,33908.000000,17150.000000
5079.000000,21988.000000,33916.000000,17144.000000
5050.000000,22000.000000,33941.000000,17142.000000
5049.000000,21955.000000,33909.000000,17109.000000
5040.000000,21969.000000,33888.000000,17137.000000
5024.000000,21958.000000,33895.000000,17121.000000
4927.000000,21903.000000,33848.000000,17093.000000
4924.000000,21837.000000,33809.000000,17075.000000
4933.000000,21837.000000,33784.000000,17071.000000
4860.000000,21779.000000,33826.000000,17088.000000
4859.000000,21783.000000,33773.000000,17063.000000
4766.000000,21676.000000,33710.000000,17044.000000
4730.000000,21654.000000,33698.000000,17001.000000
4669.000000,21528.000000,33631.000000,16978.000000
4642.000000,21497.000000,33616.000000,16998.000000
4591.000000,21462.000000,33623.000000,16980.000000
4587.000000,21428.000000,33588.000000,16972.000000
4568.000000,21391.000000,33577.000000,16952.000000
4525.000000,21377.000000,33549.000000,16972.000000
4482.000000,21380.000000,33546.000000,16929.000000
4523.000000,21340.000000,33530.000000,16927.000000
4500.000000,21320.000000,33507.000000,16921.000000
4442.000000,21284.000000,33540.000000,16936.000000
4379.000000,21231.000000,33484.000000,16932.000000
4406.000000,21248.000000,33446.000000,16890.000000
4330.000000,21151.000000,33390.000000,16869.000000
4286.000000,21153.000000,33419.000000,16875.000000
4271.000000,21097.000000,33376.000000,16868.000000
4184.000000,20983.000000,33315.000000,16842.000000
4121.000000,20899.000000,33323.000000,16819.000000
4107.000000,20858.000000,33253.000000,16786.000000
4057.000000,20828.000000,33209.000000,16762.000000
3986.000000,20777.000000,33203.000000,16784.000000
3885.000000,20644.000000,33123.000000,16728.000000
3839.000000,20621.000000,33099.000000,16712.000000
3763.000000,20537.000000,33018.000000,16646.000000
3755.000000,20510.000000,33073.000000,16635.000000
3764.000000,20500.000000,33057.000000,16650.000000
3773.000000,20507.000000,33052.000000,16655.000000
3816.000000,20559.000000,33080.000000,16640.000000
3809.000000,20560.000000,33094.000000,16622.000000
3856.000000,20613.000000,33118.000000,16639.000000
3941.000000,20763.000000,33219.000000,16644.000000
3993.000000,20762.000000,33203.000000,16690.000000
4110.000000,20889.000000,33277.000000,16657.000000
4133.000000,20962.000000,33320.000000,16698.000000
4239.000000,20991.000000,33346.000000,16713.000000
4269.000000,21052.000000,33353.000000,16701.000000
4318.000000,21114.000000,33375.000000,16730.000000
4615.000000,21461.000000,33594.000000,16813.000000
4712.000000,21540.000000,33639.000000,16837.000000
4786.000000,21677.000000,33713.000000,16857.000000
4870.000000,21741.000000,33748.000000,16911.000000
5147.000000,22079.000000,33907.000000,16985.000000
5232.000000,22153.000000,33967.000000,17023.000000
5298.000000,22231.000000,34042.000000,17036.000000
5364.000000,22281.000000,34082.000000,17064.000000
5378.000000,22288.000000,34051.000000,17060.000000
5334.000000,22304.000000,34104.000000,17044.000000
5406.000000,22341.000000,34069.000000,17085.000000
5314.000000,22300.000000,34082.000000,17051.000000
5321.000000,22314.000000,34061.000000,17033.000000
5314.000000,22248.000000,34056.000000,17061.000000
5286.000000,22271.000000,34084.000000,17026.000000
5277.000000,22263.000000,34032.000000,17040.000000
5255.000000,22223.000000,34045.000000,17055.000000
5224.000000,22154.000000,33985.000000,16999.000000
5199.000000,22131.000000,33971.000000,16994.000000
5173.000000,22100.000000,33964.000000,16993.000000
5149.000000,22080.000000,33935.000000,16997.000000
5156.000000,22086.000000,33958.000000,16986.000000
5130.000000,22086.000000,33940.000000,16980.000000
5071.000000,22001.000000,33875.000000,16951.000000
4991.000000,21932.000000,33847.000000,16940.000000
4997.000000,21938.000000,33829.000000,16920.000000
4984.000000,21868.000000,33819.000000,16932.000000
4909.000000,21786.000000,33779.000000,16899.000000
4857.000000,21787.000000,33802.000000,16887.000000
4903.000000,21752.000000,33749.000000,16872.000000
4834.000000,21739.000000,33743.000000,16879.000000
4829.000000,21706.000000,33723.000000,16868.000000
4807.000000,21667.000000,33735.000000,16878.000000
4764.000000,21600.000000,33671.000000,16815.000000
4679.000000,21597.000000,33661.000000,16826.000000
4731.000000,21585.000000,33675.000000,16822.000000
4708.000000,21541.000000,33638.000000,16808.000000
4641.000000,21509.000000,33614.000000,16802.000000
4614.000000,21481.000000,33624.000000,16789.000000
4623.000000,21491.000000,33600.000000,16778.000000
4609.000000,21473.000000,33589.000000,16768.000000
4569.000000,21415.000000,33581.000000,16783.000000
4550.000000,21430.000000,33592.000000,16774.000000
4567.000000,21407.000000,33576.000000,16759.000000
4489.000000,21343.000000,33519.000000,16740.000000
4503.000000,21358.000000,33553.000000,16725.000000
4479.000000,21315.000000,33537.000000,16744.000000
4467.000000,21353.000000,33493.000000,16727.000000
4472.000000,21288.000000,33500.000000,16713.000000
4350.000000,21234.000000,33421.000000,16720.000000
4277.000000,21095.000000,33375.000000,16639.000000
4234.000000,21072.000000,33379.000000,16642.000000
4179.000000,20994.000000,33364.000000,16626.000000
4160.000000,21028.000000,33306.000000,16618.000000
4121.000000,20964.000000,33288.000000,16615.000000
4031.000000,20853.000000,33271.000000,16570.000000
4050.000000,20882.000000,33249.000000,16558.000000
4076.000000,20841.000000,33230.000000,16559.000000
4108.000000,20842.000000,33278.000000,16549.000000
4089.000000,20885.000000,33273.000000,16527.000000
4120.000000,20873.000000,33255.000000,16525.000000
4095.000000,20892.000000,33289.000000,16524.000000
4229.000000,21021.000000,33350.000000,16559.000000
4240.000000,21031.000000,33368.000000,16553.000000
4248.000000,21060.000000,33378.000000,16553.000000
4363.000000,21162.000000,33414.000000,16577.000000
4408.000000,21235.000000,33469.000000,16573.000000
4443.000000,21258.000000,33501.000000,16586.000000
4494.000000,21297.000000,33498.000000,16636.000000
4525.000000,21362.000000,33540.000000,16646.000000
4898.000000,21761.000000,33805.000000,16719.000000
4949.000000,21862.000000,33836.000000,16757.000000
5064.000000,21970.000000,33890.000000,16786.000000
5349.000000,22373.000000,34087.000000,16849.000000
5459.000000,22414.000000,34138.000000,16894.000000
5497.000000,22476.000000,34156.000000,16926.000000
5482.000000,22496.000000,34213.000000,16931.000000
5511.000000,22521.000000,34221.000000,16948.000000
5490.000000,22522.000000,34196.000000,16958.000000
5517.000000,22462.000000,34177.000000,16926.000000
5445.000000,22423.000000,34123.000000,16897.000000
5459.000000,22415.000000,34111.000000,16892.000000
5382.000000,22348.000000,34134.000000,16891.000000
5378.000000,22370.000000,34082.000000,16897.000000
5298.000000,22263.000000,34074.000000,16851.000000
5294.000000,22212.000000,34058.000000,16859.000000
5301.000000,22207.000000,34031.000000,16863.000000
5197.000000,22133.000000,34029.000000,16817.000000
5193.000000,22134.000000,33974.000000,16828.000000
5203.000000,22092.000000,33985.000000,16804.000000
5211.000000,22101.000000,33971.000000,16832.000000
5160.000000,22043.000000,33933.000000,16802.000000
5137.000000,22054.000000,33967.000000,16806.000000
5159.000000,22068.000000,33927.000000,16817.000000
5113.000000,22051.000000,33940.000000,16791.000000
5089.000000,22021.000000,33905.000000,16754.000000
5044.000000,21941.000000,33888.000000,16754.000000
5007.000000,21912.000000,33888.000000,16755.000000
4981.000000,21889.000000,33836.000000,16726.000000
4922.000000,21802.000000,33817.000000,16685.000000
4902.000000,21767.000000,33762.000000,16690.000000
4903.000000,21726.000000,33761.000000,16704.000000
4857.000000,21694.000000,33744.000000,16683.000000
4828.000000,21658.000000,33706.000000,16672.000000
4756.000000,21582.000000,33684.000000,16658.000000
4732.000000,21575.000000,33661.000000,16619.000000
4692.000000,21519.000000,33636.000000,16618.000000
4676.000000,21491.000000,33625.000000,16623.000000
4668.000000,21475.000000,33610.000000,16633.000000
4671.000000,21436.000000,33617.000000,16635.000000
4658.000000,21483.000000,33607.000000,16610.000000
4647.000000,21508.000000,33652.000000,16601.000000
4652.000000,21492.000000,33662.000000,16598.000000
4651.000000,21539.000000,33645.000000,16580.000000
4682.000000,21514.000000,33656.000000,16616.000000
4648.000000,21503.000000,33622.000000,16584.000000
4585.000000,21442.000000,33578.000000,16573.000000
4588.000000,21422.000000,33565.000000,16568.000000
4562.000000,21359.000000,33581.000000,16538.000000
4434.000000,21296.000000,33514.000000,16505.000000
4374.000000,21168.000000,33426.000000,16473.000000
4320.000000,21133.000000,33419.000000,16462.000000
4296.000000,21071.000000,33406.000000,16460.000000
4311.000000,21078.000000,33406.000000,16436.000000
4286.000000,21083.000000,33388.000000,16442.000000
4253.000000,21068.000000,33391.000000,16429.000000
4310.000000,21065.000000,33385.000000,16433.000000
4366.000000,21145.000000,33413.000000,16412.000000
4390.000000,21162.000000,33429.000000,16432.000000
4439.000000,21162.000000,33459.000000,16414.000000
4405.000000,21202.000000,33471.000000,16409.000000
4574.000000,21333.000000,33538.000000,16457.000000
4581.000000,21376.000000,33561.000000,16457.000000
4605.000000,21411.000000,33585.000000,16452.000000
4696.000000,21448.000000,33615.000000,16498.000000
4669.000000,21518.000000,33637.000000,16476.000000
4767.000000,21564.000000,33666.000000,16520.000000
5048.000000,21914.000000,33847.000000,16603.000000
5152.000000,22035.000000,33922.000000,16619.000000
5246.000000,22109.000000,33997.000000,16639.000000
5309.000000,22251.000000,34053.000000,16711.000000
5469.000000,22390.000000,34109.000000,16741.000000
5578.000000,22508.000000,34203.000000,16784.000000
5789.000000,22743.000000,34329.000000,16849.000000
5809.000000,22785.000000,34370.000000,16851.000000
5864.000000,22817.000000,34378.000000,16867.000000
5822.000000,22824.000000,34376.000000,16835.000000
5762.000000,22753.000000,34356.000000,16828.000000
5770.000000,22747.000000,34368.000000,16836.000000
5697.000000,22657.000000,34330.000000,16801.000000
5695.000000,22678.000000,34298.000000,16810.000000
5676.000000,22639.000000,34333.000000,16808.000000
5680.000000,22633.000000,34287.000000,16778.000000
5680.000000,22626.000000,34272.000000,16804.000000
5638.000000,22617.000000,34285.000000,16764.000000
5649.000000,22536.000000,34260.000000,16777.000000
5571.000000,22502.000000,34211.000000,16787.000000
5533.000000,22445.000000,34181.000000,16747.000000
5402.000000,22357.000000,34093.000000,16694.000000
5397.000000,22308.000000,34072.000000,16655.000000
5348.000000,22256.000000,34088.000000,16671.000000
5305.000000,22249.000000,34077.000000,16671.000000
5216.000000,22080.000000,33958.000000,16629.000000
5222.000000,22058.000000,33969.000000,16606.000000
5183.000000,22034.000000,33926.000000,16577.000000
5139.000000,22018.000000,33944.000000,16578.000000
5107.000000,21971.000000,33890.000000,16561.000000
4991.000000,21839.000000,33826.000000,16507.000000
4982.000000,21804.000000,33822.000000,16486.000000
4959.000000,21806.000000,33802.000000,16524.000000
4876.000000,21639.000000,33728.000000,16490.000000
4869.000000,21635.000000,33716.000000,16477.000000
4849.000000,21588.000000,33705.000000,16471.000000
4814.000000,21597.000000,33690.000000,16464.000000
4705.000000,21474.000000,33644.000000,16419.000000
4682.000000,21427.000000,33610.000000,16394.000000
4611.000000,21367.000000,33598.000000,16380.000000
4525.000000,21228.000000,33488.000000,16354.000000
4430.000000,21136.000000,33443.000000,16267.000000
4416.000000,21129.000000,33444.000000,16288.000000
4446.000000,21127.000000,33421.000000,16307.000000
4452.000000,21110.000000,33429.000000,16305.000000
4422.000000,21141.000000,33440.000000,16288.000000
4459.000000,21191.000000,33457.000000,16276.000000
4506.000000,21218.000000,33482.000000,16309.000000
4601.000000,21320.000000,33518.000000,16327.000000
4642.000000,21353.000000,33528.000000,16334.000000
4665.000000,21374.000000,33575.000000,16351.000000
4698.000000,21391.000000,33573.000000,16350.000000
4991.000000,21722.000000,33766.000000,16441.000000
5032.000000,21805.000000,33806.000000,16459.000000
5267.000000,22085.000000,33940.000000,16539.000000
5352.000000,22221.000000,34026.000000,16585.000000
5518.000000,22302.000000,34089.000000,16620.000000
5533.000000,22439.000000,34172.000000,16600.000000
5793.000000,22648.000000,34331.000000,16702.000000
5758.000000,22683.000000,34311.000000,16712.000000
5761.000000,22654.000000,34339.000000,16694.000000
5703.000000,22591.000000,34242.000000,16691.000000
5656.000000,22586.000000,34240.000000,16659.000000
5696.000000,22549.000000,34221.000000,16668.000000
5667.000000,22503.000000,34218.000000,16672.000000
5592.000000,22437.000000,34166.000000,16661.000000
5548.000000,22392.000000,34133.000000,16642.000000
5541.000000,22362.000000,34129.000000,16621.000000
5422.000000,22265.000000,34058.000000,16589.000000
5400.000000,22266.000000,34064.000000,16589.000000
5424.000000,22258.000000,34070.000000,16592.000000
5329.000000,22173.000000,34014.000000,16570.000000
5314.000000,22154.000000,33990.000000,16569.000000
5307.000000,22160.000000,34032.000000,16553.000000
5291.000000,22145.000000,34032.000000,16529.000000
5298.000000,22109.000000,33984.000000,16557.000000
5287.000000,22049.000000,33977.000000,16513.000000
5171.000000,22003.000000,33915.000000,16475.000000
5130.000000,21978.000000,33870.000000,16485.000000
5150.000000,21937.000000,33869.000000,16482.000000
5007.000000,21789.000000,33780.000000,16422.000000
4995.000000,21802.000000,33818.000000,16419.000000
4987.000000,21757.000000,33801.000000,16445.000000
5001.000000,21754.000000,33769.000000,16434.000000
4901.000000,21725.000000,33752.000000,16401.000000
4907.000000,21684.000000,33759.000000,16406.000000
4849.000000,21655.000000,33722.000000,16405.000000
4729.000000,21468.000000,33603.000000,16338.000000
4686.000000,21436.000000,33607.000000,16308.000000
4668.000000,21380.000000,33592.000000,16333.000000
4517.000000,21246.000000,33483.000000,16282.000000
4534.000000,21210.000000,33465.000000,16293.000000
4508.000000,21221.000000,33476.000000,16244.000000
4516.000000,21222.000000,33475.000000,16251.000000
4505.000000,21246.000000,33505.000000,16231.000000
4556.000000,21255.000000,33487.000000,16277.000000
4570.000000,21251.000000,33500.000000,16266.000000
4598.000000,21318.000000,33538.000000,16276.000000
4602.000000,21340.000000,33530.000000,16247.000000
4623.000000,21363.000000,33573.000000,16283.000000
4870.000000,21592.000000,33684.000000,16317.000000
4902.000000,21647.000000,33713.000000,16369.000000
4954.000000,21687.000000,33724.000000,16385.000000
5188.000000,21923.000000,33867.000000,16461.000000
5255.000000,22066.000000,33956.000000,16478.000000
5393.000000,22122.000000,34012.000000,16525.000000
5605.000000,22487.000000,34172.000000,16609.000000
5648.000000,22551.000000,34219.000000,16631.000000
5818.000000,22653.000000,34296.000000,16672.000000
5771.000000,22679.000000,34326.000000,16686.000000
5797.000000,22684.000000,34317.000000,16687.000000
5747.000000,22630.000000,34277.000000,16670.000000
5718.000000,22600.000000,34262.000000,16650.000000
5711.000000,22593.000000,34225.000000,16643.000000
5689.000000,22560.000000,34212.000000,16639.000000
5617.000000,22430.000000,34154.000000,16625.000000
5587.000000,22429.000000,34187.000000,16619.000000
5573.000000,22393.000000,34138.000000,16602.000000
5524.000000,22419.000000,34140.000000,16593.000000
5514.000000,22329.000000,34119.000000,16572.000000
5450.000000,22289.000000,34095.000000,16555.000000
5438.000000,22271.000000,34045.000000,16545.000000
5399.000000,22237.000000,34066.000000,16525.000000
5339.000000,22205.000000,34038.000000,16526.000000
5308.000000,22113.000000,33981.000000,16503.000000
5181.000000,22002.000000,33927.000000,16467.000000
5190.000000,21966.000000,33885.000000,16439.000000
5173.000000,21969.000000,33888.000000,16428.000000
5141.000000,21936.000000,33886.000000,16464.000000
5098.000000,21935.000000,33857.000000,16447.000000
5000.000000,21778.000000,33769.000000,16395.000000
4951.000000,21746.000000,33778.000000,16378.000000
4984.000000,21695.000000,33759.000000,16401.000000
4940.000000,21635.000000,33698.000000,16359.000000
4865.000000,21571.000000,33688.000000,16350.000000
4706.000000,21383.000000,33551.000000,16312.000000
4691.000000,21395.000000,33567.000000,16303.000000
4636.000000,21336.000000,33524.000000,16307.000000
4648.000000,21299.000000,33516.000000,16277.000000
4574.000000,21321.000000,33516.000000,16264.000000
4601.000000,21288.000000,33519.000000,16269.000000
4579.000000,21285.000000,33498.000000,16281.000000
4607.000000,21315.000000,33532.000000,16284.000000
4630.000000,21375.000000,33537.000000,16286.000000
4706.000000,21431.000000,33599.000000,16301.000000
4774.000000,21522.000000,33649.000000,16336.000000
4891.000000,21636.000000,33727.000000,16394.000000
5005.000000,21809.000000,33795.000000,16426.000000
5173.000000,22028.000000,33940.000000,16495.000000
5792.000000,22672.000000,34314.000000,16704.000000
5838.000000,22782.000000,34374.000000,16699.000000
5928.000000,22856.000000,34394.000000,16751.000000
6015.000000,23016.000000,34475.000000,16762.000000
5996.000000,22978.000000,34474.000000,16796.000000
6021.000000,22967.000000,34474.000000,16754.000000
6007.000000,22965.000000,34471.000000,16777.000000
5997.000000,22981.000000,34464.000000,16774.000000
6010.000000,22956.000000,34474.000000,16802.000000
5980.000000,22984.000000,34469.000000,16755.000000
5962.000000,22926.000000,34478.000000,16760.000000
5948.000000,22926.000000,34452.000000,16770.000000
5953.000000,22936.000000,34406.000000,16731.000000
5900.000000,22905.000000,34436.000000,16751.000000
5853.000000,22850.000000,34378.000000,16730.000000
5875.000000,22809.000000,34363.000000,16717.000000
5830.000000,22809.000000,34361.000000,16709.000000
5754.000000,22684.000000,34319.000000,16673.000000
5713.000000,22663.000000,34304.000000,16652.000000
5722.000000,22657.000000,34282.000000,16680.000000
5662.000000,22563.000000,34247.000000,16623.000000
5614.000000,22517.000000,34210.000000,16648.000000
5614.000000,22517.000000,34187.000000,16620.000000
5585.000000,22502.000000,34217.000000,16627.000000
5587.000000,22550.000000,34172.000000,16631.000000
5530.000000,22532.000000,34172.000000,16609.000000
5508.000000,22472.000000,34176.000000,16599.000000
5532.000000,22431.000000,34159.000000,16631.000000
5509.000000,22414.000000,34139.000000,16614.000000
5387.000000,22343.000000,34082.000000,16561.000000
5347.000000,22259.000000,34054.000000,16544.000000
5320.000000,22219.000000,34016.000000,16558.000000
5292.000000,22204.000000,34048.000000,16532.000000
5290.000000,22165.000000,34003.000000,16511.000000
5235.000000,22111.000000,33985.000000,16503.000000
5182.000000,22014.000000,33931.000000,16507.000000
5155.000000,22027.000000,33940.000000,16474.000000
5164.000000,22047.000000,33916.000000,16497.000000
5156.000000,22003.000000,33924.000000,16497.000000
5136.000000,22015.000000,33915.000000,16487.000000
5138.000000,21955.000000,33888.000000,16485.000000
5121.000000,21998.000000,33901.000000,16482.000000
5163.000000,22007.000000,33888.000000,16483.000000
5126.000000,21997.000000,33877.000000,16490.000000
5285.000000,22135.000000,33974.000000,16515.000000
5283.000000,22208.000000,34028.000000,16553.000000
5418.000000,22364.000000,34102.000000,16583.000000
5503.000000,22446.000000,34139.000000,16589.000000
5569.000000,22576.000000,34217.000000,16628.000000
5886.000000,22883.000000,34391.000000,16751.000000
6140.000000,23243.000000,34606.000000,16873.000000
6119.000000,23277.000000,34620.000000,16888.000000
6137.000000,23256.000000,34599.000000,16861.000000
6121.000000,23258.000000,34606.000000,16858.000000
6108.000000,23244.000000,34574.000000,16866.000000
6072.000000,23229.000000,34571.000000,16876.000000
6032.000000,23148.000000,34539.000000,16880.000000
6019.000000,23182.000000,34532.000000,16860.000000
6032.000000,23202.000000,34544.000000,16836.000000
6038.000000,23154.000000,34518.000000,16864.000000
6000.000000,23169.000000,34526.000000,16865.000000
5962.000000,23133.000000,34481.000000,16825.000000
5916.000000,23116.000000,34526.000000,16862.000000
5951.000000,23065.000000,34473.000000,16831.000000
5817.000000,22985.000000,34454.000000,16811.000000
5867.000000,22972.000000,34403.000000,16815.000000
5859.000000,22969.000000,34417.000000,16790.000000
5820.000000,22943.000000,34419.000000,16789.000000
5785.000000,22973.000000,34419.000000,16788.000000
5736.000000,22940.000000,34367.000000,16781.000000
5756.000000,22896.000000,34356.000000,16783.000000
5774.000000,22878.000000,34337.000000,16784.000000
5665.000000,22833.000000,34340.000000,16746.000000
5660.000000,22791.000000,34307.000000,16727.000000
5680.000000,22752.000000,34295.000000,16745.000000
5621.000000,22701.000000,34265.000000,16741.000000
5590.000000,22692.000000,34264.000000,16711.000000
5575.000000,22659.000000,34217.000000,16716.000000
5514.000000,22637.000000,34204.000000,16677.000000
5407.000000,22516.000000,34128.000000,16653.000000
5235.000000,22266.000000,34008.000000,16624.000000
5203.000000,22260.000000,33998.000000,16585.000000
5196.000000,22206.000000,34025.000000,16569.000000
5163.000000,22223.000000,33945.000000,16562.000000
5123.000000,22155.000000,33922.000000,16578.000000
5114.000000,22126.000000,33919.000000,16567.000000
5069.000000,22145.000000,33915.000000,16553.000000
5133.000000,22114.000000,33903.000000,16566.000000
5068.000000,22127.000000,33915.000000,16540.000000
5053.000000,22116.000000,33923.000000,16556.000000
5132.000000,22171.000000,33950.000000,16566.000000
5159.000000,22190.000000,33945.000000,16581.000000
5167.000000,22238.000000,33997.000000,16587.000000
5578.000000,22717.000000,34258.000000,16738.000000
5695.000000,22834.000000,34324.000000,16745.000000
5799.000000,22950.000000,34375.000000,16798.000000
5916.000000,23053.000000,34470.000000,16836.000000
6071.000000,23317.000000,34605.000000,16899.000000
6190.000000,23435.000000,34714.000000,16936.000000
6200.000000,23458.000000,34714.000000,16947.000000
6187.000000,23489.000000,34716.000000,16933.000000
6208.000000,23441.000000,34733.000000,16964.000000
6170.000000,23459.000000,34701.000000,16944.000000
6200.000000,23452.000000,34675.000000,16925.000000
6204.000000,23485.000000,34700.000000,16952.000000
6198.000000,23457.000000,34683.000000,16977.000000
6221.000000,23433.000000,34686.000000,16955.000000
6212.000000,23435.000000,34696.000000,16939.000000
6198.000000,23447.000000,34690.000000,16936.000000
6184.000000,23401.000000,34700.000000,16919.000000
6173.000000,23411.000000,34706.000000,16920.000000
6127.000000,23427.000000,34695.000000,16921.000000
6162.000000,23371.000000,34661.000000,16908.000000
6182.000000,23373.000000,34667.000000,16899.000000
6128.000000,23303.000000,34662.000000,16926.000000
6134.000000,23356.000000,34677.000000,16890.000000
6138.000000,23305.000000,34643.000000,16898.000000
6105.000000,23251.000000,34645.000000,16867.000000
6112.000000,23241.000000,34626.000000,16880.000000
6061.000000,23209.000000,34626.000000,16871.000000
6082.000000,23214.000000,34596.000000,16863.000000
6063.000000,23198.000000,34580.000000,16871.000000
6053.000000,23200.000000,34598.000000,16852.000000
6003.000000,23149.000000,34584.000000,16866.000000
5965.000000,23105.000000,34535.000000,16848.000000
5948.000000,23111.000000,34542.000000,16826.000000
5809.000000,22979.000000,34450.000000,16832.000000
5812.000000,22947.000000,34405.000000,16812.000000
5739.000000,22943.000000,34412.000000,16788.000000
5725.000000,22843.000000,34390.000000,16767.000000
5407.000000,22570.000000,34167.000000,16668.000000
5371.000000,22510.000000,34133.000000,16664.000000
5351.000000,22494.000000,34136.000000,16663.000000
5333.000000,22486.000000,34101.000000,16646.000000
5241.000000,22382.000000,34068.000000,16673.000000
5212.000000,22403.000000,34048.000000,16650.000000
5232.000000,22378.000000,34029.000000,16642.000000
5247.000000,22351.000000,34047.000000,16636.000000
5252.000000,22410.000000,34062.000000,16637.000000
5241.000000,22388.000000,34081.000000,16645.000000
5261.000000,22457.000000,34071.000000,16654.000000
5342.000000,22534.000000,34135.000000,16669.000000
5408.000000,22528.000000,34155.000000,16708.000000
5750.000000,22966.000000,34374.000000,16810.000000
5873.000000,23072.000000,34438.000000,16850.000000
5924.000000,23124.000000,34515.000000,16877.000000
6012.000000,23249.000000,34564.000000,16891.000000
6233.000000,23594.000000,34789.000000,16991.000000
6316.000000,23597.000000,34815.000000,17028.000000
6304.000000,23637.000000,34801.000000,17036.000000
6318.000000,23677.000000,34809.000000,17011.000000
6346.000000,23684.000000,34812.000000,17000.000000
6342.000000,23669.000000,34821.000000,17017.000000
6293.000000,23693.000000,34837.000000,17005.000000
6309.000000,23671.000000,34810.000000,17023.000000
6321.000000,23683.000000,34850.000000,17001.000000
6299.000000,23651.000000,34798.000000,16993.000000
6313.000000,23651.000000,34809.000000,17004.000000
6284.000000,23649.000000,34780.000000,16985.000000
6285.000000,23631.000000,34764.000000,16986.000000
6264.000000,23592.000000,34761.000000,16988.000000
6234.000000,23588.000000,34762.000000,16977.000000
6234.000000,23538.000000,34774.000000,16981.000000
6196.000000,23543.000000,34756.000000,16955.000000
6211.000000,23529.000000,34734.000000,16965.000000
6197.000000,23507.000000,34753.000000,16950.000000
6224.000000,23503.000000,34730.000000,16971.000000
6145.000000,23465.000000,34726.000000,16936.000000
6133.000000,23472.000000,34714.000000,16936.000000
6120.000000,23469.000000,34705.000000,16966.000000
6124.000000,23410.000000,34693.000000,16938.000000
6089.000000,23359.000000,34662.000000,16930.000000
6110.000000,23399.000000,34676.000000,16932.000000
6046.000000,23397.000000,34664.000000,16920.000000
6082.000000,23364.000000,34630.000000,16916.000000
6058.000000,23348.000000,34629.000000,16924.000000
6015.000000,23300.000000,34613.000000,16916.000000
5986.000000,23268.000000,34597.000000,16901.000000
5959.000000,23249.000000,34548.000000,16888.000000
5978.000000,23221.000000,34568.000000,16873.000000
5734.000000,22945.000000,34407.000000,16831.000000
5692.000000,22925.000000,34370.000000,16804.000000
5660.000000,22870.000000,34363.000000,16783.000000
5603.000000,22830.000000,34335.000000,16785.000000
5495.000000,22671.000000,34217.000000,16723.000000
5465.000000,22664.000000,34238.000000,16723.000000
5442.000000,22626.000000,34214.000000,16710.000000
5424.000000,22642.000000,34212.000000,16719.000000
5388.000000,22538.000000,34176.000000,16699.000000
5357.000000,22541.000000,34165.000000,16694.000000
5382.000000,22577.000000,34168.000000,16695.000000
5632.000000,22845.000000,34329.000000,16756.000000
5679.000000,22890.000000,34361.000000,16801.000000
5773.000000,22951.000000,34382.000000,16826.000000
5844.000000,23063.000000,34459.000000,16869.000000
6091.000000,23316.000000,34655.000000,16965.000000
6099.000000,23408.000000,34661.000000,16944.000000
6164.000000,23433.000000,34692.000000,16966.000000
6252.000000,23524.000000,34703.000000,17005.000000
6204.000000,23505.000000,34721.000000,16989.000000
6207.000000,23497.000000,34694.000000,16988.000000
6175.000000,23452.000000,34721.000000,16994.000000
6186.000000,23502.000000,34705.000000,16968.000000
6190.000000,23485.000000,34713.000000,17002.000000
6179.000000,23505.000000,34719.000000,16978.000000
6216.000000,23494.000000,34697.000000,16988.000000
6215.000000,23462.000000,34687.000000,16976.000000
6161.000000,23476.000000,34692.000000,16974.000000
6169.000000,23468.000000,34693.000000,16998.000000
6126.000000,23469.000000,34698.000000,16968.000000
6159.000000,23425.000000,34721.000000,16977.000000
6143.000000,23428.000000,34684.000000,16951.000000
6102.000000,23436.000000,34682.000000,16961.000000
6136.000000,23416.000000,34718.000000,16949.000000
6125.000000,23415.000000,34676.000000,16960.000000
6117.000000,23420.000000,34667.000000,16948.000000
6103.000000,23389.000000,34660.000000,16961.000000
6137.000000,23406.000000,34681.000000,16951.000000
6052.000000,23387.000000,34657.000000,16967.000000
6016.000000,23369.000000,34657.000000,16929.000000
6054.000000,23344.000000,34654.000000,16937.000000
6060.000000,23360.000000,34645.000000,16914.000000
6074.000000,23397.000000,34639.000000,16935.000000
6101.000000,23377.000000,34690.000000,16933.000000
6047.000000,23344.000000,34636.000000,16914.000000
6047.000000,23351.000000,34641.000000,16912.000000
6027.000000,23335.000000,34634.000000,16921.000000
6023.000000,23315.000000,34630.000000,16916.000000
5866.000000,23121.000000,34538.000000,16879.000000
5844.000000,23096.000000,34498.000000,16873.000000
5841.000000,23051.000000,34478.000000,16847.000000
5808.000000,22987.000000,34443.000000,16858.000000
5676.000000,22865.000000,34341.000000,16806.000000
5666.000000,22839.000000,34374.000000,16801.000000
5514.000000,22685.000000,34275.000000,16759.000000
5514.000000,22681.000000,34277.000000,16774.000000
5535.000000,22642.000000,34248.000000,16753.000000
5479.000000,22685.000000,34289.000000,16750.000000
5462.000000,22682.000000,34253.000000,16728.000000
5527.000000,22644.000000,34246.000000,16741.000000
5532.000000,22679.000000,34287.000000,16750.000000
5733.000000,22871.000000,34372.000000,16799.000000
5711.000000,22915.000000,34415.000000,16806.000000
5828.000000,22995.000000,34417.000000,16853.000000
5860.000000,23039.000000,34476.000000,16869.000000
6029.000000,23262.000000,34574.000000,16907.000000
6226.000000,23460.000000,34746.000000,16980.000000
6256.000000,23500.000000,34750.000000,16981.000000
6235.000000,23494.000000,34748.000000,17001.000000
6256.000000,23503.000000,34757.000000,16970.000000
6272.000000,23518.000000,34770.000000,16986.000000
6237.000000,23568.000000,34772.000000,17012.000000
6275.000000,23526.000000,34764.000000,16986.000000
6254.000000,23561.000000,34750.000000,16972.000000
6233.000000,23542.000000,34745.000000,17027.000000
6179.000000,23476.000000,34739.000000,16979.000000
6185.000000,23447.000000,34727.000000,16981.000000
6193.000000,23455.000000,34714.000000,16967.000000
6164.000000,23426.000000,34708.000000,16965.000000
6140.000000,23428.000000,34725.000000,16980.000000
6166.000000,23411.000000,34682.000000,16953.000000
6125.000000,23422.000000,34688.000000,16977.000000
6143.000000,23415.000000,34702.000000,16965.000000
6145.000000,23423.000000,34686.000000,17004.000000
6127.000000,23394.000000,34700.000000,16947.000000
6168.000000,23404.000000,34698.000000,16946.000000
6131.000000,23396.000000,34681.000000,16960.000000
6129.000000,23375.000000,34695.000000,16971.000000
6088.000000,23327.000000,34622.000000,16931.000000
6064.000000,23345.000000,34661.000000,16932.000000
6088.000000,23316.000000,34627.000000,16927.000000
6085.000000,23336.000000,34627.000000,16921.000000
6045.000000,23289.000000,34598.000000,16920.000000
6079.000000,23276.000000,34619.000000,16930.000000
6029.000000,23268.000000,34619.000000,16935.000000
6023.000000,23288.000000,34598.000000,16923.000000
6031.000000,23253.000000,34602.000000,16907.000000
6030.000000,23221.000000,34583.000000,16891.000000
6009.000000,23209.000000,34611.000000,16898.000000
5998.000000,23214.000000,34578.000000,16908.000000
5953.000000,23110.000000,34549.000000,16885.000000
5939.000000,23095.000000,34517.000000,16873.000000
5895.000000,23057.000000,34503.000000,16863.000000
5856.000000,23062.000000,34523.000000,16848.000000
5725.000000,22870.000000,34385.000000,16796.000000
5682.000000,22847.000000,34353.000000,16829.000000
5665.000000,22798.000000,34358.000000,16780.000000
5656.000000,22772.000000,34353.000000,16784.000000
5562.000000,22657.000000,34258.000000,16759.000000
5518.000000,22621.000000,34262.000000,16716.000000
5541.000000,22629.000000,34234.000000,16741.000000
5515.000000,22627.000000,34259.000000,16729.000000
5572.000000,22626.000000,34241.000000,16726.000000
5693.000000,22760.000000,34318.000000,16794.000000
5701.000000,22797.000000,34379.000000,16810.000000
5748.000000,22879.000000,34391.000000,16798.000000
5802.000000,22925.000000,34407.000000,16840.000000
6123.000000,23323.000000,34667.000000,16948.000000
6178.000000,23378.000000,34691.000000,16943.000000
6217.000000,23412.000000,34743.000000,16998.000000
6226.000000,23467.000000,34736.000000,17011.000000
6312.000000,23540.000000,34776.000000,17009.000000
6295.000000,23536.000000,34797.000000,17013.000000
6303.000000,23533.000000,34811.000000,17012.000000
6264.000000,23523.000000,34782.000000,16999.000000
6300.000000,23521.000000,34777.000000,16997.000000
6276.000000,23497.000000,34801.000000,16992.000000
6333.000000,23481.000000,34791.000000,17029.000000
6288.000000,23521.000000,34781.000000,16999.000000
6315.000000,23478.000000,34769.000000,16997.000000
6338.000000,23574.000000,34791.000000,17043.000000
6309.000000,23578.000000,34797.000000,17022.000000
6321.000000,23551.000000,34832.000000,17015.000000
6360.000000,23600.000000,34818.000000,17023.000000
6362.000000,23576.000000,34812.000000,17024.000000
6341.000000,23564.000000,34810.000000,17038.000000
6346.000000,23541.000000,34818.000000,17011.000000
6312.000000,23559.000000,34811.000000,17041.000000
6299.000000,23560.000000,34813.000000,16968.000000
6341.000000,23551.000000,34784.000000,17007.000000
6295.000000,23561.000000,34821.000000,17013.000000
6303.000000,23585.000000,34808.000000,17017.000000
6296.000000,23529.000000,34816.000000,17001.000000
6315.000000,23569.000000,34812.000000,17010.000000
6312.000000,23507.000000,34807.000000,16987.000000
6356.000000,23561.000000,34801.000000,16968.000000
6276.000000,23561.000000,34817.000000,16990.000000
6318.000000,23528.000000,34814.000000,16970.000000
6311.000000,23552.000000,34813.000000,16992.000000
6333.000000,23550.000000,34833.000000,16978.000000
6315.000000,23532.000000,34831.000000,16994.000000
6296.000000,23513.000000,34802.000000,16991.000000
6322.000000,23531.000000,34791.000000,16974.000000
6296.000000,23474.000000,34777.000000,16951.000000
6222.000000,23408.000000,34742.000000,16926.000000
6018.000000,23200.000000,34598.000000,16883.000000
5965.000000,23150.000000,34616.000000,16872.000000
5829.000000,23024.000000,34496.000000,16819.000000
5804.000000,22948.000000,34507.000000,16816.000000
5790.000000,22977.000000,34477.000000,16784.000000
5790.000000,22917.000000,34451.000000,16812.000000
5707.000000,22887.000000,34418.000000,16786.000000
5592.000000,22773.000000,34344.000000,16783.000000
5615.000000,22754.000000,34335.000000,16768.000000
5578.000000,22740.000000,34329.000000,16756.000000
5591.000000,22714.000000,34295.000000,16766.000000
5739.000000,22874.000000,34404.000000,16810.000000
5841.000000,22924.000000,34455.000000,16830.000000
5869.000000,23028.000000,34492.000000,16854.000000
5982.000000,23058.000000,34515.000000,16907.000000
6303.000000,23508.000000,34772.000000,17013.000000
6343.000000,23517.000000,34812.000000,17015.000000
6381.000000,23580.000000,34808.000000,17061.000000
6427.000000,23581.000000,34848.000000,17032.000000
6412.000000,23626.000000,34872.000000,17023.000000
6411.000000,23630.000000,34822.000000,17068.000000
6454.000000,23602.000000,34858.000000,17039.000000
6425.000000,23628.000000,34874.000000,17032.000000
6429.000000,23642.000000,34897.000000,17052.000000
6445.000000,23634.000000,34857.000000,17034.000000
6403.000000,23611.000000,34843.000000,17038.000000
6382.000000,23575.000000,34830.000000,17051.000000
6391.000000,23574.000000,34825.000000,17030.000000
6410.000000,23580.000000,34814.000000,17029.000000
6423.000000,23547.000000,34826.000000,17030.000000
6406.000000,23549.000000,34809.000000,17025.000000
6392.000000,23560.000000,34818.000000,17074.000000
6410.000000,23557.000000,34826.000000,17029.000000
6414.000000,23586.000000,34831.000000,17040.000000
6418.000000,23569.000000,34834.000000,17043.000000
6393.000000,23593.000000,34848.000000,17037.000000
6342.000000,23566.000000,34835.000000,17005.000000
6371.000000,23581.000000,34838.000000,17017.000000
6368.000000,23536.000000,34824.000000,17036.000000
6331.000000,23544.000000,34810.000000,17021.000000
6354.000000,23563.000000,34789.000000,17018.000000
6363.000000,23555.000000,34826.000000,17031.000000
6359.000000,23584.000000,34835.000000,17018.000000
6409.000000,23632.000000,34867.000000,17042.000000
6398.000000,23653.000000,34883.000000,17030.000000
6409.000000,23647.000000,34890.000000,17027.000000
6394.000000,23638.000000,34883.000000,17034.000000
6395.000000,23582.000000,34850.000000,17031.000000
6355.000000,23611.000000,34863.000000,17000.000000
6346.000000,23475.000000,34825.000000,16978.000000
6284.000000,23479.000000,34793.000000,16978.000000
6223.000000,23407.000000,34749.000000,16958.000000
6144.000000,23294.000000,34722.000000,16948.000000
6127.000000,23340.000000,34685.000000,16925.000000
6132.000000,23313.000000,34668.000000,16921.000000
6117.000000,23276.000000,34668.000000,16901.000000
6090.000000,23227.000000,34619.000000,16912.000000
6077.000000,23240.000000,34651.000000,16874.000000
6105.000000,23222.000000,34658.000000,16899.000000
6123.000000,23273.000000,34635.000000,16907.000000
6242.000000,23387.000000,34779.000000,16956.000000
6308.000000,23509.000000,34790.000000,16957.000000
6358.000000,23572.000000,34803.000000,17006.000000
6402.000000,23599.000000,34868.000000,17021.000000
6696.000000,23970.000000,35079.000000,17121.000000
6728.000000,23995.000000,35102.000000,17130.000000
6775.000000,24073.000000,35106.000000,17145.000000
6771.000000,24084.000000,35129.000000,17155.000000
6810.000000,24127.000000,35157.000000,17172.000000
6775.000000,24082.000000,35147.000000,17158.000000
6798.000000,24100.000000,35117.000000,17165.000000
6745.000000,24034.000000,35117.000000,17139.000000
6750.000000,24008.000000,35120.000000,17141.000000
6706.000000,23987.000000,35070.000000,17119.000000
6671.000000,23953.000000,35075.000000,17119.000000
6706.000000,23987.000000,35056.000000,17123.000000
6660.000000,23973.000000,35085.000000,17107.000000
6699.000000,23941.000000,35049.000000,17109.000000
6673.000000,23897.000000,35053.000000,17111.000000
6690.000000,23891.000000,35034.000000,17100.000000
6673.000000,23887.000000,35058.000000,17121.000000
6682.000000,23887.000000,35053.000000,17081.000000
6613.000000,23850.000000,35004.000000,17091.000000
6630.000000,23822.000000,34973.000000,17101.000000
6559.000000,23803.000000,35002.000000,17062.000000
6520.000000,23720.000000,34888.000000,17068.000000
6517.000000,23691.000000,34932.000000,17057.000000
6496.000000,23685.000000,34905.000000,17040.000000
6456.000000,23625.000000,34872.000000,17023.000000
6407.000000,23614.000000,34845.000000,17021.000000
6408.000000,23567.000000,34863.000000,17031.000000
6325.000000,23520.000000,34816.000000,17037.000000
6315.000000,23507.000000,34794.000000,17019.000000
6269.000000,23473.000000,34786.000000,17007.000000
6121.000000,23327.000000,34671.000000,16977.000000
6124.000000,23373.000000,34679.000000,16950.000000
6089.000000,23351.000000,34686.000000,16977.000000
6095.000000,23291.000000,34654.000000,16953.000000
6052.000000,23271.000000,34612.000000,16943.000000
5843.000000,23076.000000,34492.000000,16869.000000
5788.000000,23026.000000,34508.000000,16869.000000
5755.000000,22988.000000,34459.000000,16861.000000
5711.000000,22951.000000,34445.000000,16850.000000
5627.000000,22844.000000,34357.000000,16776.000000
5644.000000,22804.000000,34370.000000,16796.000000
5636.000000,22812.000000,34346.000000,16781.000000
5531.000000,22730.000000,34324.000000,16768.000000
5553.000000,22754.000000,34291.000000,16759.000000
5533.000000,22785.000000,34293.000000,16778.000000
5561.000000,22790.000000,34359.000000,16782.000000
5612.000000,22796.000000,34353.000000,16796.000000
5644.000000,22777.000000,34339.000000,16831.000000
5650.000000,22842.000000,34386.000000,16801.000000
6130.000000,23388.000000,34680.000000,16972.000000
6185.000000,23506.000000,34732.000000,16985.000000
6251.000000,23586.000000,34834.000000,17037.000000
6434.000000,23814.000000,34927.000000,17074.000000
6509.000000,23966.000000,34986.000000,17130.000000
6535.000000,23941.000000,35033.000000,17114.000000
6537.000000,23956.000000,35029.000000,17120.000000
6567.000000,23932.000000,34999.000000,17141.000000
6478.000000,23885.000000,34994.000000,17118.000000
6447.000000,23852.000000,34970.000000,17139.000000
6471.000000,23844.000000,34944.000000,17096.000000
6462.000000,23841.000000,34950.000000,17087.000000
6390.000000,23801.000000,34946.000000,17087.000000
6431.000000,23797.000000,34938.000000,17084.000000
6373.000000,23755.000000,34889.000000,17104.000000
6259.000000,23609.000000,34852.000000,17077.000000
6265.000000,23591.000000,34813.000000,17062.000000
6281.000000,23617.000000,34822.000000,17049.000000
6243.000000,23575.000000,34797.000000,17047.000000
6199.000000,23534.000000,34787.000000,17041.000000
6145.000000,23497.000000,34738.000000,17023.000000
6121.000000,23483.000000,34741.000000,17013.000000
6096.000000,23491.000000,34743.000000,17023.000000
6125.000000,23460.000000,34730.000000,17010.000000
6074.000000,23403.000000,34697.000000,16998.000000
6020.000000,23378.000000,34656.000000,16993.000000
6011.000000,23371.000000,34655.000000,16969.000000
5986.000000,23323.000000,34634.000000,17004.000000
5933.000000,23273.000000,34626.000000,16954.000000
5929.000000,23290.000000,34608.000000,16943.000000
5917.000000,23279.000000,34609.000000,16930.000000
5914.000000,23241.000000,34573.000000,16933.000000
5869.000000,23187.000000,34561.000000,16936.000000
5846.000000,23207.000000,34585.000000,16928.000000
5844.000000,23166.000000,34556.000000,16943.000000
5689.000000,23044.000000,34458.000000,16886.000000
5649.000000,22956.000000,34457.000000,16871.000000
5619.000000,22900.000000,34413.000000,16864.000000
5571.000000,22860.000000,34365.000000,16853.000000
5469.000000,22731.000000,34273.000000,16793.000000
5415.000000,22714.000000,34308.000000,16797.000000
5351.000000,22594.000000,34193.000000,16733.000000
5350.000000,22573.000000,34216.000000,16750.000000
5316.000000,22585.000000,34195.000000,16741.000000
5369.000000,22561.000000,34208.000000,16743.000000
5284.000000,22528.000000,34187.000000,16730.000000
5227.000000,22528.000000,34207.000000,16720.000000
5304.000000,22561.000000,34198.000000,16747.000000
5306.000000,22546.000000,34163.000000,16734.000000
5343.000000,22610.000000,34202.000000,16757.000000
5378.000000,22651.000000,34215.000000,16772.000000
5398.000000,22692.000000,34264.000000,16773.000000
5774.000000,23106.000000,34495.000000,16911.000000
5898.000000,23192.000000,34577.000000,16921.000000
5924.000000,23336.000000,34607.000000,16982.000000
6033.000000,23411.000000,34660.000000,16989.000000
6363.000000,23769.000000,34889.000000,17089.000000
6395.000000,23797.000000,34882.000000,17108.000000
6353.000000,23850.000000,34939.000000,17074.000000
6379.000000,23832.000000,34922.000000,17102.000000
6425.000000,23898.000000,34960.000000,17118.000000
6437.000000,23920.000000,34977.000000,17137.000000
6431.000000,23913.000000,34954.000000,17114.000000
6377.000000,23917.000000,34966.000000,17132.000000
6391.000000,23869.000000,34984.000000,17118.000000
6391.000000,23880.000000,34935.000000,17108.000000
6329.000000,23868.000000,34916.000000,17093.000000
6339.000000,23863.000000,34918.000000,17074.000000
6357.000000,23860.000000,34927.000000,17111.000000
6293.000000,23821.000000,34900.000000,17062.000000
6284.000000,23806.000000,34931.000000,17106.000000
6240.000000,23803.000000,34897.000000,17059.000000
6258.000000,23815.000000,34879.000000,17086.000000
6196.000000,23690.000000,34825.000000,17042.000000
6176.000000,23639.000000,34807.000000,17007.000000
6134.000000,23630.000000,34811.000000,17037.000000
6071.000000,23544.000000,34743.000000,17019.000000
5970.000000,23419.000000,34715.000000,16987.000000
5969.000000,23426.000000,34675.000000,16970.000000
5948.000000,23428.000000,34648.000000,16970.000000
5966.000000,23401.000000,34655.000000,16986.000000
5859.000000,23328.000000,34634.000000,16962.000000
5862.000000,23285.000000,34610.000000,16963.000000
5858.000000,23241.000000,34578.000000,16969.000000
5787.000000,23164.000000,34496.000000,16939.000000
5627.000000,22973.000000,34420.000000,16849.000000
5603.000000,22911.000000,34388.000000,16896.000000
5596.000000,22891.000000,34401.000000,16875.000000
5292.000000,22663.000000,34178.000000,16793.000000
5260.000000,22581.000000,34192.000000,16768.000000
5196.000000,22547.000000,34178.000000,16744.000000
5241.000000,22536.000000,34141.000000,16738.000000
5150.000000,22454.000000,34134.000000,16736.000000
5139.000000,22486.000000,34086.000000,16683.000000
5151.000000,22493.000000,34121.000000,16713.000000
5154.000000,22486.000000,34141.000000,16716.000000
5172.000000,22470.000000,34128.000000,16700.000000
5181.000000,22476.000000,34147.000000,16712.000000
5167.000000,22511.000000,34133.000000,16706.000000
5276.000000,22622.000000,34193.000000,16751.000000
5358.000000,22772.000000,34284.000000,16788.000000
5451.000000,22816.000000,34339.000000,16808.000000
5555.000000,22882.000000,34362.000000,16830.000000
5634.000000,23005.000000,34451.000000,16859.000000
6122.000000,23535.000000,34756.000000,17032.000000
6176.000000,23577.000000,34767.000000,17063.000000
6225.000000,23659.000000,34806.000000,17078.000000
6247.000000,23699.000000,34841.000000,17078.000000
6312.000000,23766.000000,34874.000000,17115.000000
6249.000000,23751.000000,34876.000000,17123.000000
6274.000000,23756.000000,34889.000000,17096.000000
6281.000000,23770.000000,34859.000000,17104.000000
6219.000000,23720.000000,34857.000000,17062.000000
6202.000000,23690.000000,34824.000000,17096.000000
6218.000000,23675.000000,34814.000000,17048.000000
6073.000000,23569.000000,34737.000000,17036.000000
6071.000000,23534.000000,34763.000000,17025.000000
6093.000000,23538.000000,34731.000000,17037.000000
6037.000000,23411.000000,34668.000000,17035.000000
6020.000000,23409.000000,34660.000000,17010.000000
5987.000000,23430.000000,34652.000000,17008.000000
5984.000000,23423.000000,34674.000000,17020.000000
5901.000000,23290.000000,34609.000000,16968.000000
5920.000000,23267.000000,34605.000000,16999.000000
5893.000000,23264.000000,34571.000000,16996.000000
5879.000000,23263.000000,34609.000000,16972.000000
5898.000000,23271.000000,34572.000000,16991.000000
5877.000000,23265.000000,34559.000000,16997.000000
5897.000000,23282.000000,34559.000000,17001.000000
5905.000000,23273.000000,34592.000000,17009.000000
5900.000000,23343.000000,34592.000000,17000.000000
5938.000000,23313.000000,34622.000000,16989.000000
5862.000000,23328.000000,34592.000000,16988.000000
5838.000000,23283.000000,34592.000000,16973.000000
5717.000000,23126.000000,34530.000000,16936.000000
5722.000000,23086.000000,34490.000000,16951.000000
5670.000000,23045.000000,34459.000000,16912.000000
5676.000000,23018.000000,34433.000000,16919.000000
5542.000000,22901.000000,34364.000000,16882.000000
5306.000000,22634.000000,34188.000000,16803.000000
5240.000000,22531.000000,34171.000000,16782.000000
5217.000000,22508.000000,34123.000000,16760.000000
5217.000000,22475.000000,34107.000000,16762.000000
5153.000000,22418.000000,34104.000000,16771.000000
5146.000000,22412.000000,34057.000000,16751.000000
5142.000000,22391.000000,34067.000000,16743.000000
5137.000000,22403.000000,34070.000000,16712.000000
5117.000000,22414.000000,34078.000000,16724.000000
5114.000000,22384.000000,34067.000000,16753.000000
5124.000000,22391.000000,34074.000000,16747.000000
5154.000000,22416.000000,34052.000000,16738.000000
5164.000000,22391.000000,34048.000000,16742.000000
5181.000000,22431.000000,34082.000000,16748.000000
5189.000000,22444.000000,34093.000000,16775.000000
5473.000000,22787.000000,34321.000000,16847.000000
5572.000000,22916.000000,34343.000000,16870.000000
5710.000000,23036.000000,34440.000000,16931.000000
5783.000000,23130.000000,34464.000000,16967.000000
6197.000000,23628.000000,34783.000000,17101.000000
6183.000000,23633.000000,34814.000000,17111.000000
6265.000000,23693.000000,34828.000000,17128.000000
6276.000000,23703.000000,34813.000000,17135.000000
6265.000000,23697.000000,34830.000000,17129.000000
6256.000000,23676.000000,34787.000000,17106.000000
6196.000000,23631.000000,34784.000000,17111.000000
6180.000000,23606.000000,34800.000000,17095.000000
6180.000000,23591.000000,34771.000000,17116.000000
6162.000000,23604.000000,34725.000000,17071.000000
6154.000000,23564.000000,34759.000000,17098.000000
6135.000000,23584.000000,34742.000000,17104.000000
6112.000000,23551.000000,34747.000000,17100.000000
6118.000000,23501.000000,34718.000000,17097.000000
6070.000000,23525.000000,34710.000000,17088.000000
6087.000000,23486.000000,34693.000000,17062.000000
6078.000000,23457.000000,34714.000000,17068.000000
5985.000000,23440.000000,34652.000000,17040.000000
6018.000000,23422.000000,34671.000000,17071.000000
6002.000000,23423.000000,34644.000000,17039.000000
5974.000000,23411.000000,34670.000000,17034.000000
5976.000000,23356.000000,34661.000000,17017.000000
5935.000000,23373.000000,34636.000000,17028.000000
5918.000000,23378.000000,34621.000000,17023.000000
5861.000000,23305.000000,34567.000000,17007.000000
5846.000000,23259.000000,34565.000000,17002.000000
5840.000000,23258.000000,34530.000000,16983.000000
5808.000000,23246.000000,34565.000000,16994.000000
5746.000000,23183.000000,34495.000000,16958.000000
5764.000000,23170.000000,34536.000000,16942.000000
5702.000000,23115.000000,34504.000000,16927.000000
5709.000000,23107.000000,34495.000000,16938.000000
5509.000000,22904.000000,34338.000000,16887.000000
5453.000000,22856.000000,34343.000000,16863.000000
5427.000000,22802.000000,34290.000000,16846.000000
5374.000000,22749.000000,34292.000000,16827.000000
5214.000000,22548.000000,34162.000000,16792.000000
5181.000000,22598.000000,34167.000000,16770.000000
5189.000000,22547.000000,34152.000000,16771.000000
5223.000000,22544.000000,34109.000000,16773.000000
5176.000000,22513.000000,34157.000000,16767.000000
5205.000000,22537.000000,34135.000000,16782.000000
5206.000000,22551.000000,34122.000000,16763.000000
5196.000000,22537.000000,34169.000000,16777.000000
5252.000000,22520.000000,34150.000000,16790.000000
5232.000000,22540.000000,34144.000000,16768.000000
5234.000000,22546.000000,34157.000000,16775.000000
5456.000000,22788.000000,34297.000000,16850.000000
5509.000000,22940.000000,34336.000000,16896.000000
5623.000000,23032.000000,34412.000000,16897.000000
5736.000000,23124.000000,34469.000000,16962.000000
6033.000000,23496.000000,34680.000000,17054.000000
6286.000000,23842.000000,34895.000000,17143.000000
6320.000000,23833.000000,34883.000000,17159.000000
6316.000000,23866.000000,34902.000000,17155.000000
6363.000000,23871.000000,34929.000000,17174.000000
6340.000000,23849.000000,34917.000000,17165.000000
6311.000000,23884.000000,34925.000000,17158.000000
6291.000000,23883.000000,34894.000000,17155.000000
6302.000000,23850.000000,34915.000000,17182.000000
6308.000000,23853.000000,34915.000000,17179.000000
6264.000000,23760.000000,34829.000000,17137.000000
6233.000000,23763.000000,34862.000000,17135.000000
6220.000000,23758.000000,34824.000000,17145.000000
6211.000000,23705.000000,34813.000000,17133.000000
6205.000000,23708.000000,34816.000000,17120.000000
6132.000000,23682.000000,34796.000000,17080.000000
6136.000000,23664.000000,34771.000000,17121.000000
6152.000000,23631.000000,34766.000000,17102.000000
6107.000000,23615.000000,34760.000000,17099.000000
6109.000000,23590.000000,34766.000000,17098.000000
6126.000000,23613.000000,34763.000000,17097.000000
6091.000000,23592.000000,34779.000000,17067.000000
6073.000000,23553.000000,34726.000000,17053.000000
5980.000000,23474.000000,34669.000000,17044.000000
5987.000000,23415.000000,34668.000000,17050.000000
5944.000000,23444.000000,34654.000000,17044.000000
5903.000000,23416.000000,34646.000000,17024.000000
5910.000000,23346.000000,34615.000000,17029.000000
5907.000000,23332.000000,34615.000000,17009.000000
5809.000000,23298.000000,34557.000000,16986.000000
5833.000000,23275.000000,34559.000000,16967.000000
5797.000000,23253.000000,34570.000000,16967.000000
5790.000000,23242.000000,34533.000000,16990.000000
5698.000000,23157.000000,34473.000000,16980.000000
5686.000000,23107.000000,34456.000000,16947.000000
5650.000000,23091.000000,34445.000000,16934.000000
5568.000000,23040.000000,34410.000000,16929.000000
5483.000000,22874.000000,34341.000000,16862.000000
5280.000000,22661.000000,34225.000000,16838.000000
5247.000000,22659.000000,34206.000000,16814.000000
5230.000000,22624.000000,34168.000000,16817.000000
5214.000000,22594.000000,34183.000000,16818.000000
5220.000000,22561.000000,34144.000000,16783.000000
5171.000000,22580.000000,34185.000000,16765.000000
5198.000000,22559.000000,34133.000000,16783.000000
5216.000000,22570.000000,34135.000000,16765.000000
5208.000000,22503.000000,34119.000000,16786.000000
5189.000000,22499.000000,34117.000000,16799.000000
5164.000000,22540.000000,34161.000000,16794.000000
5200.000000,22530.000000,34138.000000,16769.000000
5265.000000,22612.000000,34208.000000,16809.000000
5259.000000,22642.000000,34186.000000,16817.000000
5303.000000,22738.000000,34237.000000,16831.000000
5807.000000,23222.000000,34513.000000,16953.000000
5893.000000,23313.000000,34597.000000,17001.000000
5982.000000,23443.000000,34655.000000,17065.000000
6067.000000,23518.000000,34692.000000,17076.000000
6261.000000,23834.000000,34862.000000,17161.000000
6277.000000,23820.000000,34882.000000,17163.000000
6319.000000,23763.000000,34851.000000,17183.000000
6291.000000,23789.000000,34878.000000,17176.000000
6233.000000,23759.000000,34858.000000,17133.000000
6210.000000,23771.000000,34865.000000,17142.000000
6238.000000,23745.000000,34850.000000,17165.000000
6204.000000,23728.000000,34858.000000,17151.000000
6194.000000,23700.000000,34808.000000,17162.000000
6164.000000,23718.000000,34789.000000,17130.000000
6201.000000,23648.000000,34793.000000,17139.000000
6165.000000,23671.000000,34777.000000,17136.000000
6130.000000,23644.000000,34785.000000,17116.000000
6128.000000,23646.000000,34774.000000,17131.000000
6073.000000,23600.000000,34761.000000,17092.000000
6080.000000,23606.000000,34754.000000,17124.000000
6066.000000,23557.000000,34742.000000,17084.000000
6047.000000,23572.000000,34730.000000,17088.000000
6045.000000,23531.000000,34737.000000,17076.000000
6039.000000,23485.000000,34716.000000,17114.000000
5990.000000,23475.000000,34673.000000,17059.000000
5940.000000,23445.000000,34684.000000,17047.000000
5941.000000,23427.000000,34677.000000,17060.000000
5946.000000,23442.000000,34658.000000,17069.000000
5891.000000,23395.000000,34635.000000,17055.000000
5900.000000,23363.000000,34612.000000,17032.000000
5861.000000,23363.000000,34600.000000,17029.000000
5849.000000,23340.000000,34622.000000,17031.000000
5850.000000,23300.000000,34573.000000,17017.000000
5831.000000,23278.000000,34583.000000,17009.000000
5826.000000,23285.000000,34554.000000,17033.000000
5769.000000,23213.000000,34537.000000,17015.000000
5728.000000,23185.000000,34526.000000,16981.000000
5702.000000,23168.000000,34541.000000,16996.000000
5684.000000,23117.000000,34468.000000,16969.000000
5475.000000,22905.000000,34358.000000,16896.000000
5415.000000,22870.000000,34325.000000,16872.000000
5376.000000,22776.000000,34283.000000,16840.000000
5352.000000,22740.000000,34261.000000,16853.000000
5222.000000,22607.000000,34194.000000,16815.000000
5221.000000,22583.000000,34176.000000,16818.000000
5194.000000,22556.000000,34174.000000,16822.000000
5217.000000,22577.000000,34161.000000,16815.000000
5192.000000,22569.000000,34135.000000,16800.000000
5205.000000,22547.000000,34139.000000,16801.000000
5200.000000,22540.000000,34176.000000,16824.000000
5224.000000,22571.000000,34155.000000,16823.000000
5237.000000,22578.000000,34161.000000,16817.000000
5243.000000,22633.000000,34200.000000,16843.000000
5322.000000,22689.000000,34234.000000,16845.000000
5541.000000,22959.000000,34384.000000,16925.000000
5669.000000,23059.000000,34444.000000,16967.000000
5763.000000,23181.000000,34515.000000,16971.000000
5849.000000,23276.000000,34576.000000,17006.000000
6230.000000,23767.000000,34853.000000,17163.000000
6289.000000,23812.000000,34916.000000,17163.000000
6299.000000,23898.000000,34947.000000,17198.000000
6371.000000,23958.000000,34979.000000,17218.000000
6399.000000,23932.000000,34953.000000,17208.000000
6345.000000,23942.000000,34959.000000,17208.000000
6364.000000,23903.000000,34937.000000,17221.000000
6330.000000,23856.000000,34909.000000,17191.000000
6302.000000,23884.000000,34927.000000,17185.000000
6316.000000,23862.000000,34926.000000,17190.000000
6316.000000,23818.000000,34909.000000,17196.000000
6266.000000,23803.000000,34903.000000,17161.000000
6271.000000,23790.000000,34884.000000,17156.000000
6245.000000,23794.000000,34881.000000,17147.000000
6253.000000,23791.000000,34862.000000,17153.000000
6197.000000,23733.000000,34822.000000,17146.000000
6172.000000,23698.000000,34834.000000,17129.000000
6184.000000,23674.000000,34810.000000,17140.000000
6178.000000,23684.000000,34777.000000,17132.000000
6082.000000,23570.000000,34733.000000,17085.000000
6076.000000,23520.000000,34713.000000,17100.000000
6034.000000,23499.000000,34725.000000,17100.000000
6053.000000,23502.000000,34696.000000,17079.000000
6020.000000,23395.000000,34664.000000,17075.000000
5927.000000,23377.000000,34657.000000,17066.000000
5950.000000,23385.000000,34660.000000,17065.000000
5915.000000,23391.000000,34612.000000,17069.000000
5930.000000,23330.000000,34637.000000,17059.000000
5885.000000,23296.000000,34593.000000,17024.000000
5889.000000,23290.000000,34589.000000,17013.000000
5842.000000,23303.000000,34604.000000,17033.000000
5856.000000,23289.000000,34575.000000,17028.000000
5775.000000,23225.000000,34541.000000,16993.000000
5696.000000,23054.000000,34461.000000,16961.000000
5645.000000,23053.000000,34451.000000,16956.000000
5636.000000,23002.000000,34409.000000,16947.000000
5579.000000,22958.000000,34387.000000,16908.000000
5383.000000,22731.000000,34253.000000,16882.000000
5348.000000,22678.000000,34215.000000,16826.000000
5320.000000,22636.000000,34227.000000,16850.000000
5292.000000,22636.000000,34203.000000,16829.000000
5232.000000,22610.000000,34192.000000,16797.000000
5265.000000,22576.000000,34158.000000,16799.000000
5267.000000,22595.000000,34183.000000,16805.000000
5264.000000,22585.000000,34157.000000,16826.000000
5284.000000,22599.000000,34186.000000,16843.000000
5271.000000,22595.000000,34189.000000,16845.000000
5333.000000,22629.000000,34198.000000,16844.000000
5456.000000,22809.000000,34337.000000,16875.000000
5515.000000,22835.000000,34330.000000,16865.000000
5562.000000,22926.000000,34399.000000,16926.000000
5643.000000,22988.000000,34400.000000,16926.000000
5924.000000,23344.000000,34624.000000,17060.000000
6351.000000,23824.000000,34909.000000,17167.000000
6400.000000,23907.000000,34941.000000,17184.000000
6414.000000,23947.000000,34992.000000,17199.000000
6463.000000,24002.000000,35021.000000,17245.000000
6463.000000,24026.000000,35010.000000,17234.000000
6443.000000,23995.000000,35000.000000,17235.000000
6463.000000,24005.000000,35017.000000,17224.000000
6459.000000,23992.000000,34986.000000,17216.000000
6434.000000,23980.000000,34992.000000,17206.000000
6442.000000,23993.000000,34981.000000,17207.000000
6430.000000,23936.000000,34972.000000,17196.000000
6451.000000,23933.000000,34979.000000,17194.000000
6371.000000,23892.000000,34936.000000,17205.000000
6370.000000,23852.000000,34934.000000,17187.000000
6365.000000,23900.000000,34953.000000,17187.000000
6383.000000,23873.000000,34915.000000,17186.000000
6352.000000,23832.000000,34899.000000,17189.000000
6307.000000,23845.000000,34920.000000,17154.000000
6310.000000,23821.000000,34884.000000,17161.000000
6253.000000,23734.000000,34879.000000,17150.000000
6250.000000,23741.000000,34855.000000,17161.000000
6215.000000,23736.000000,34844.000000,17137.000000
6216.000000,23683.000000,34846.000000,17122.000000
6138.000000,23637.000000,34795.000000,17124.000000
6151.000000,23584.000000,34776.000000,17118.000000
6151.000000,23631.000000,34766.000000,17098.000000
6084.000000,23557.000000,34763.000000,17112.000000
6063.000000,23566.000000,34743.000000,17085.000000
6085.000000,23510.000000,34754.000000,17086.000000
6055.000000,23476.000000,34690.000000,17072.000000
6008.000000,23434.000000,34681.000000,17059.000000
5949.000000,23429.000000,34670.000000,17056.000000
5970.000000,23368.000000,34651.000000,17027.000000
5965.000000,23376.000000,34652.000000,17011.000000
5819.000000,23312.000000,34593.000000,16989.000000
5695.000000,23091.000000,34448.000000,16934.000000
5666.000000,23024.000000,34436.000000,16949.000000
5585.000000,22996.000000,34421.000000,16940.000000
5568.000000,22928.000000,34407.000000,16917.000000
5453.000000,22809.000000,34332.000000,16884.000000
5443.000000,22813.000000,34334.000000,16887.000000
5428.000000,22799.000000,34307.000000,16869.000000
5451.000000,22800.000000,34320.000000,16874.000000
5473.000000,22831.000000,34308.000000,16884.000000
5480.000000,22837.000000,34317.000000,16880.000000
5447.000000,22803.000000,34333.000000,16873.000000
5499.000000,22858.000000,34347.000000,16893.000000
5533.000000,22869.000000,34359.000000,16899.000000
5557.000000,22881.000000,34376.000000,16901.000000
5604.000000,22993.000000,34477.000000,16918.000000
5821.000000,23194.000000,34573.000000,16987.000000
6130.000000,23510.000000,34732.000000,17113.000000
6223.000000,23643.000000,34788.000000,17128.000000
6432.000000,23890.000000,34943.000000,17221.000000
6562.000000,24096.000000,35080.000000,17269.000000
6589.000000,24111.000000,35107.000000,17260.000000
6590.000000,24094.000000,35102.000000,17270.000000
6575.000000,24118.000000,35097.000000,17275.000000
6543.000000,24083.000000,35089.000000,17248.000000
6557.000000,24068.000000,35066.000000,17283.000000
6507.000000,24064.000000,35052.000000,17243.000000
6542.000000,24018.000000,35054.000000,17243.000000
6454.000000,23976.000000,35012.000000,17219.000000
6492.000000,23964.000000,35034.000000,17210.000000
6462.000000,23937.000000,35019.000000,17218.000000
6436.000000,23931.000000,34999.000000,17217.000000
6431.000000,23907.000000,34978.000000,17201.000000
6429.000000,23882.000000,34983.000000,17194.000000
6451.000000,23933.000000,34967.000000,17206.000000
6417.000000,23926.000000,34986.000000,17206.000000
6363.000000,23857.000000,34951.000000,17199.000000
6381.000000,23844.000000,34943.000000,17179.000000
6371.000000,23815.000000,34934.000000,17186.000000
6352.000000,23868.000000,34936.000000,17213.000000
6293.000000,23802.000000,34907.000000,17157.000000
6298.000000,23761.000000,34900.000000,17152.000000
6286.000000,23759.000000,34884.000000,17154.000000
6281.000000,23728.000000,34887.000000,17161.000000
6218.000000,23675.000000,34856.000000,17141.000000
6172.000000,23682.000000,34871.000000,17146.000000
6212.000000,23666.000000,34818.000000,17133.000000
6191.000000,23690.000000,34830.000000,17109.000000
6098.000000,23579.000000,34787.000000,17099.000000
6108.000000,23568.000000,34763.000000,17074.000000
6078.000000,23505.000000,34770.000000,17103.000000
5992.000000,23407.000000,34706.000000,17049.000000
5932.000000,23372.000000,34669.000000,17034.000000
5788.000000,23197.000000,34590.000000,16995.000000
5777.000000,23168.000000,34574.000000,16971.000000
5799.000000,23176.000000,34563.000000,16969.000000
5786.000000,23148.000000,34550.000000,16963.000000
5754.000000,23138.000000,34545.000000,16943.000000
5709.000000,23150.000000,34553.000000,16950.000000
5725.000000,23156.000000,34547.000000,16943.000000
5735.000000,23165.000000,34556.000000,16959.000000
5727.000000,23197.000000,34560.000000,16947.000000
5750.000000,23190.000000,34546.000000,16968.000000
5874.000000,23272.000000,34618.000000,16982.000000
5896.000000,23333.000000,34648.000000,16992.000000
5890.000000,23359.000000,34627.000000,17025.000000
5919.000000,23390.000000,34673.000000,17027.000000
6116.000000,23593.000000,34805.000000,17095.000000
6634.000000,24183.000000,35154.000000,17267.000000
6668.000000,24228.000000,35177.000000,17270.000000
6759.000000,24282.000000,35238.000000,17256.000000
6757.000000,24346.000000,35246.000000,17289.000000
6859.000000,24425.000000,35304.000000,17336.000000
6861.000000,24447.000000,35316.000000,17316.000000
6873.000000,24450.000000,35305.000000,17331.000000
6846.000000,24445.000000,35296.000000,17304.000000
6809.000000,24404.000000,35283.000000,17310.000000
6816.000000,24395.000000,35256.000000,17301.000000
6823.000000,24373.000000,35284.000000,17311.000000
6810.000000,24365.000000,35293.000000,17285.000000
6786.000000,24342.000000,35273.000000,17297.000000
6742.000000,24305.000000,35244.000000,17322.000000
6776.000000,24319.000000,35221.000000,17297.000000
6773.000000,24324.000000,35251.000000,17299.000000
6743.000000,24307.000000,35235.000000,17315.000000
6731.000000,24271.000000,35208.000000,17256.000000
6665.000000,24175.000000,35163.000000,17280.000000
6641.000000,24209.000000,35175.000000,17252.000000
6621.000000,24159.000000,35163.000000,17251.000000
6629.000000,24140.000000,35148.000000,17258.000000
6599.000000,24048.000000,35088.000000,17244.000000
6561.000000,24074.000000,35114.000000,17233.000000
6562.000000,24063.000000,35103.000000,17239.000000
6540.000000,24020.000000,35058.000000,17204.000000
6495.000000,24033.000000,35039.000000,17228.000000
6492.000000,23985.000000,35078.000000,17217.000000
6479.000000,23974.000000,35062.000000,17198.000000
6492.000000,23945.000000,35044.000000,17192.000000
6464.000000,23977.000000,35059.000000,17200.000000
6400.000000,23949.000000,34994.000000,17182.000000
6383.000000,23876.000000,35038.000000,17187.000000
6394.000000,23896.000000,35005.000000,17170.000000
6408.000000,23869.000000,34993.000000,17171.000000
6318.000000,23770.000000,34946.000000,17137.000000
6123.000000,23555.000000,34788.000000,17080.000000
6043.000000,23537.000000,34766.000000,17047.000000
6018.000000,23443.000000,34735.000000,17053.000000
5993.000000,23404.000000,34710.000000,17009.000000
5917.000000,23336.000000,34659.000000,17016.000000
5910.000000,23345.000000,34648.000000,17018.000000
5895.000000,23301.000000,34649.000000,16995.000000
5893.000000,23284.000000,34648.000000,16994.000000
5865.000000,23285.000000,34665.000000,17021.000000
5910.000000,23289.000000,34652.000000,17011.000000
5884.000000,23305.000000,34657.000000,16986.000000
5854.000000,23317.000000,34623.000000,17002.000000
5896.000000,23309.000000,34662.000000,17013.000000
6032.000000,23441.000000,34746.000000,17030.000000
6052.000000,23470.000000,34784.000000,17075.000000
6083.000000,23548.000000,34778.000000,17085.000000
6342.000000,23800.000000,34950.000000,17150.000000
6414.000000,23922.000000,35035.000000,17179.000000
6781.000000,24304.000000,35235.000000,17310.000000
6844.000000,24393.000000,35287.000000,17331.000000
6840.000000,24468.000000,35307.000000,17335.000000
6923.000000,24545.000000,35368.000000,17360.000000
6918.000000,24530.000000,35364.000000,17351.000000
6908.000000,24446.000000,35306.000000,17331.000000
6855.000000,24430.000000,35296.000000,17323.000000
6843.000000,24426.000000,35301.000000,17336.000000
6825.000000,24406.000000,35306.000000,17317.000000
6826.000000,24387.000000,35261.000000,17326.000000
6811.000000,24339.000000,35253.000000,17307.000000
6785.000000,24314.000000,35237.000000,17294.000000
6785.000000,24335.000000,35268.000000,17287.000000
6736.000000,24308.000000,35229.000000,17321.000000
6733.000000,24311.000000,35239.000000,17282.000000
6702.000000,24283.000000,35211.000000,17285.000000
6657.000000,24219.000000,35163.000000,17275.000000
6664.000000,24226.000000,35167.000000,17266.000000
6626.000000,24188.000000,35160.000000,17272.000000
6651.000000,24200.000000,35147.000000,17262.000000
6585.000000,24121.000000,35135.000000,17257.000000
6581.000000,24115.000000,35139.000000,17273.000000
6589.000000,24107.000000,35098.000000,17254.000000
6543.000000,24122.000000,35069.000000,17255.000000
6539.000000,24075.000000,35082.000000,17243.000000
6497.000000,24013.000000,35060.000000,17250.000000
6468.000000,24026.000000,35054.000000,17242.000000
6440.000000,24018.000000,35055.000000,17217.000000
6447.000000,23975.000000,35051.000000,17230.000000
6393.000000,23880.000000,35016.000000,17161.000000
6334.000000,23881.000000,34973.000000,17159.000000
6331.000000,23854.000000,34958.000000,17188.000000
6252.000000,23760.000000,34890.000000,17154.000000
6207.000000,23681.000000,34874.000000,17150.000000
6169.000000,23678.000000,34863.000000,17130.000000
5980.000000,23418.000000,34685.000000,17064.000000
5931.000000,23406.000000,34702.000000,17062.000000
5938.000000,23355.000000,34685.000000,17051.000000
5902.000000,23297.000000,34649.000000,17055.000000
5863.000000,23321.000000,34627.000000,17028.000000
5884.000000,23308.000000,34628.000000,17013.000000
5892.000000,23287.000000,34641.000000,17027.000000
5860.000000,23270.000000,34639.000000,17020.000000
5859.000000,23314.000000,34663.000000,17014.000000
5857.000000,23301.000000,34607.000000,17018.000000
5860.000000,23328.000000,34638.000000,17013.000000
5931.000000,23315.000000,34641.000000,17020.000000
6094.000000,23545.000000,34752.000000,17086.000000
6136.000000,23608.000000,34835.000000,17120.000000
6233.000000,23674.000000,34882.000000,17129.000000
6312.000000,23826.000000,34898.000000,17166.000000
6692.000000,24216.000000,35212.000000,17308.000000
6742.000000,24298.000000,35209.000000,17313.000000
6781.000000,24391.000000,35256.000000,17322.000000
6891.000000,24520.000000,35358.000000,17384.000000
6890.000000,24525.000000,35328.000000,17353.000000
6877.000000,24480.000000,35353.000000,17375.000000
6873.000000,24457.000000,35322.000000,17357.000000
6859.000000,24387.000000,35266.000000,17356.000000
6848.000000,24425.000000,35278.000000,17347.000000
6808.000000,24383.000000,35266.000000,17363.000000
6819.000000,24379.000000,35257.000000,17336.000000
6754.000000,24312.000000,35245.000000,17315.000000
6773.000000,24356.000000,35223.000000,17345.000000
6742.000000,24320.000000,35228.000000,17333.000000
6744.000000,24315.000000,35260.000000,17322.000000
6701.000000,24258.000000,35217.000000,17308.000000
6685.000000,24274.000000,35234.000000,17304.000000
6665.000000,24267.000000,35169.000000,17304.000000
6684.000000,24238.000000,35175.000000,17322.000000
6625.000000,24161.000000,35143.000000,17315.000000
6616.000000,24111.000000,35117.000000,17258.000000
6540.000000,24102.000000,35125.000000,17248.000000
6597.000000,24079.000000,35099.000000,17271.000000
6504.000000,24000.000000,35062.000000,17255.000000
6480.000000,23985.000000,35044.000000,17252.000000
6481.000000,24001.000000,35037.000000,17232.000000
6451.000000,24011.000000,35051.000000,17241.000000
6425.000000,23936.000000,35019.000000,17222.000000
6401.000000,23957.000000,35012.000000,17215.000000
6410.000000,23897.000000,34999.000000,17226.000000
6382.000000,23916.000000,34997.000000,17226.000000
6281.000000,23781.000000,34930.000000,17197.000000
6231.000000,23754.000000,34939.000000,17149.000000
6230.000000,23743.000000,34870.000000,17175.000000
6222.000000,23661.000000,34825.000000,17159.000000
5960.000000,23422.000000,34711.000000,17055.000000
5951.000000,23371.000000,34676.000000,17085.000000
5897.000000,23360.000000,34694.000000,17053.000000
5891.000000,23332.000000,34641.000000,17057.000000
5852.000000,23243.000000,34606.000000,17009.000000
5819.000000,23241.000000,34622.000000,17006.000000
5808.000000,23281.000000,34568.000000,17036.000000
5821.000000,23262.000000,34619.000000,17032.000000
5796.000000,23250.000000,34602.000000,17017.000000
5813.000000,23204.000000,34581.000000,16993.000000
5786.000000,23217.000000,34589.000000,17015.000000
5858.000000,23273.000000,34608.000000,17063.000000
5869.000000,23321.000000,34623.000000,17046.000000
5879.000000,23370.000000,34651.000000,17058.000000
6063.000000,23526.000000,34769.000000,17114.000000
6530.000000,24051.000000,35069.000000,17249.000000
6582.000000,24123.000000,35084.000000,17285.000000
6611.000000,24182.000000,35176.000000,17295.000000
6693.000000,24259.000000,35169.000000,17320.000000
6792.000000,24367.000000,35239.000000,17363.000000
6786.000000,24421.000000,35246.000000,17362.000000
6799.000000,24394.000000,35241.000000,17362.000000
6737.000000,24357.000000,35218.000000,17355.000000
6760.000000,24353.000000,35230.000000,17343.000000
6701.000000,24354.000000,35217.000000,17357.000000
6705.000000,24301.000000,35183.000000,17342.000000
6730.000000,24303.000000,35163.000000,17308.000000
6643.000000,24244.000000,35158.000000,17303.000000
6649.000000,24237.000000,35133.000000,17323.000000
6623.000000,24204.000000,35167.000000,17308.000000
6618.000000,24224.000000,35129.000000,17302.000000
6530.000000,24164.000000,35114.000000,17298.000000
6568.000000,24139.000000,35110.000000,17294.000000
6565.000000,24104.000000,35105.000000,17311.000000
6538.000000,24161.000000,35121.000000,17278.000000
6503.000000,24103.000000,35086.000000,17306.000000
6525.000000,24047.000000,35093.000000,17273.000000
6450.000000,23979.000000,35015.000000,17270.000000
6455.000000,24006.000000,35035.000000,17255.000000
6387.000000,23972.000000,35019.000000,17247.000000
6393.000000,23903.000000,34971.000000,17250.000000
6396.000000,23936.000000,34953.000000,17229.000000
6384.000000,23935.000000,34965.000000,17228.000000
6311.000000,23877.000000,34981.000000,17230.000000
6340.000000,23858.000000,34953.000000,17228.000000
6314.000000,23863.000000,34945.000000,17217.000000
6304.000000,23876.000000,34925.000000,17252.000000
6307.000000,23857.000000,34929.000000,17215.000000
6172.000000,23733.000000,34843.000000,17185.000000
6169.000000,23666.000000,34846.000000,17157.000000
6171.000000,23626.000000,34826.000000,17163.000000
6082.000000,23605.000000,34797.000000,17108.000000
5898.000000,23364.000000,34686.000000,17074.000000
5915.000000,23350.000000,34644.000000,17082.000000
5874.000000,23339.000000,34636.000000,17036.000000
5803.000000,23256.000000,34622.000000,17023.000000
5829.000000,23283.000000,34577.000000,17025.000000
5801.000000,23292.000000,34603.000000,17023.000000
5810.000000,23245.000000,34594.000000,17030.000000
5821.000000,23237.000000,34595.000000,17013.000000
5807.000000,23266.000000,34575.000000,17011.000000
5811.000000,23258.000000,34610.000000,17018.000000
5857.000000,23336.000000,34645.000000,17047.000000
5869.000000,23372.000000,34651.000000,17056.000000
5915.000000,23399.000000,34689.000000,17040.000000
5961.000000,23443.000000,34681.000000,17063.000000
6383.000000,23925.000000,34989.000000,17220.000000
6439.000000,24046.000000,35044.000000,17264.000000
6529.000000,24117.000000,35074.000000,17257.000000
6591.000000,24208.000000,35121.000000,17303.000000
6815.000000,24462.000000,35290.000000,17363.000000
6836.000000,24463.000000,35296.000000,17377.000000
6863.000000,24497.000000,35310.000000,17387.000000
6844.000000,24544.000000,35295.000000,17398.000000
6816.000000,24500.000000,35294.000000,17371.000000
6766.000000,24422.000000,35264.000000,17368.000000
6763.000000,24392.000000,35264.000000,17375.000000
6752.000000,24425.000000,35246.000000,17339.000000
6773.000000,24365.000000,35215.000000,17334.000000
6726.000000,24364.000000,35247.000000,17346.000000
6747.000000,24387.000000,35209.000000,17344.000000
6721.000000,24351.000000,35199.000000,17342.000000
6691.000000,24341.000000,35204.000000,17335.000000
6621.000000,24276.000000,35224.000000,17341.000000
6667.000000,24312.000000,35187.000000,17344.000000
6679.000000,24286.000000,35199.000000,17306.000000
6572.000000,24231.000000,35138.000000,17303.000000
6553.000000,24167.000000,35117.000000,17279.000000
6559.000000,24197.000000,35085.000000,17293.000000
6534.000000,24181.000000,35121.000000,17313.000000
6455.000000,24094.000000,35065.000000,17302.000000
6476.000000,24048.000000,35056.000000,17275.000000
6488.000000,24048.000000,35048.000000,17294.000000
6465.000000,24049.000000,35066.000000,17261.000000
6435.000000,24041.000000,35048.000000,17281.000000
6420.000000,23993.000000,35005.000000,17252.000000
6401.000000,23964.000000,35016.000000,17255.000000
6397.000000,23972.000000,35021.000000,17251.000000
6379.000000,23980.000000,34991.000000,17255.000000
6336.000000,23936.000000,34957.000000,17232.000000
6346.000000,23890.000000,34965.000000,17258.000000
6294.000000,23939.000000,34936.000000,17234.000000
6318.000000,23860.000000,34929.000000,17227.000000
6173.000000,23741.000000,34878.000000,17180.000000
6174.000000,23689.000000,34858.000000,17179.000000
6077.000000,23573.000000,34749.000000,17152.000000
6012.000000,23507.000000,34746.000000,17151.000000
5995.000000,23498.000000,34712.000000,17106.000000
5880.000000,23338.000000,34663.000000,17078.000000
5882.000000,23360.000000,34649.000000,17072.000000
5826.000000,23341.000000,34632.000000,17084.000000
5860.000000,23337.000000,34637.000000,17053.000000
5831.000000,23322.000000,34617.000000,17080.000000
5826.000000,23304.000000,34607.000000,17034.000000
5853.000000,23288.000000,34598.000000,17052.000000
5822.000000,23310.000000,34634.000000,17040.000000
5806.000000,23290.000000,34630.000000,17043.000000
5855.000000,23308.000000,34633.000000,17088.000000
5871.000000,23368.000000,34651.000000,17096.000000
5881.000000,23415.000000,34677.000000,17089.000000
6197.000000,23726.000000,34833.000000,17191.000000
6253.000000,23780.000000,34904.000000,17194.000000
6322.000000,23875.000000,34916.000000,17226.000000
6657.000000,24241.000000,35156.000000,17319.000000
6681.000000,24301.000000,35236.000000,17338.000000
6741.000000,24322.000000,35222.000000,17371.000000
6796.000000,24447.000000,35273.000000,17363.000000
6803.000000,24500.000000,35270.000000,17393.000000
6798.000000,24428.000000,35274.000000,17395.000000
6755.000000,24414.000000,35235.000000,17371.000000
6759.000000,24408.000000,35274.000000,17368.000000
6711.000000,24379.000000,35266.000000,17380.000000
6714.000000,24370.000000,35214.000000,17353.000000
6730.000000,24367.000000,35180.000000,17321.000000
6705.000000,24328.000000,35199.000000,17349.000000
6695.000000,24320.000000,35215.000000,17336.000000
6696.000000,24315.000000,35185.000000,17370.000000
6693.000000,24291.000000,35198.000000,17335.000000
6616.000000,24263.000000,35173.000000,17324.000000
6644.000000,24257.000000,35150.000000,17339.000000
6612.000000,24232.000000,35148.000000,17315.000000
6570.000000,24195.000000,35123.000000,17304.000000
6560.000000,24194.000000,35132.000000,17311.000000
6543.000000,24182.000000,35142.000000,17302.000000
6549.000000,24212.000000,35134.000000,17318.000000
6514.000000,24097.000000,35118.000000,17304.000000
6468.000000,24128.000000,35103.000000,17299.000000
6495.000000,24096.000000,35084.000000,17260.000000
6433.000000,24068.000000,35086.000000,17299.000000
6457.000000,24052.000000,35032.000000,17290.000000
6430.000000,24058.000000,35051.000000,17247.000000
6417.000000,24040.000000,35024.000000,17275.000000
6397.000000,23983.000000,35066.000000,17299.000000
6352.000000,24018.000000,35038.000000,17257.000000
6337.000000,23941.000000,34970.000000,17250.000000
6300.000000,23925.000000,34997.000000,17214.000000
6315.000000,23901.000000,34934.000000,17234.000000
6234.000000,23759.000000,34879.000000,17213.000000
5990.000000,23527.000000,34725.000000,17151.000000
5940.000000,23463.000000,34705.000000,17112.000000
5909.000000,23418.000000,34678.000000,17084.000000
5817.000000,23325.000000,34632.000000,17061.000000
5821.000000,23308.000000,34633.000000,17083.000000
5807.000000,23326.000000,34602.000000,17059.000000
5786.000000,23271.000000,34619.000000,17056.000000
5761.000000,23276.000000,34602.000000,17063.000000
5764.000000,23283.000000,34599.000000,17059.000000
5775.000000,23258.000000,34579.000000,17079.000000
5815.000000,23245.000000,34594.000000,17052.000000
5802.000000,23289.000000,34626.000000,17024.000000
5823.000000,23321.000000,34602.000000,17056.000000
5852.000000,23308.000000,34613.000000,17052.000000
6119.000000,23623.000000,34811.000000,17157.000000
6195.000000,23721.000000,34872.000000,17198.000000
6266.000000,23832.000000,34906.000000,17234.000000
6384.000000,23902.000000,34959.000000,17249.000000
6654.000000,24312.000000,35193.000000,17357.000000
6695.000000,24325.000000,35194.000000,17355.000000
6747.000000,24338.000000,35220.000000,17384.000000
6760.000000,24381.000000,35224.000000,17382.000000
6769.000000,24445.000000,35214.000000,17377.000000
6751.000000,24412.000000,35231.000000,17382.000000
6723.000000,24355.000000,35249.000000,17380.000000
6727.000000,24336.000000,35232.000000,17378.000000
6659.000000,24320.000000,35214.000000,17372.000000
6653.000000,24312.000000,35178.000000,17371.000000
6657.000000,24271.000000,35181.000000,17347.000000
6627.000000,24231.000000,35161.000000,17361.000000
6590.000000,24271.000000,35150.000000,17335.000000
6633.000000,24204.000000,35137.000000,17348.000000
6616.000000,24226.000000,35143.000000,17338.000000
6533.000000,24192.000000,35137.000000,17340.000000
6565.000000,24181.000000,35126.000000,17339.000000
6610.000000,24178.000000,35099.000000,17344.000000
6541.000000,24148.000000,35101.000000,17318.000000
6497.000000,24102.000000,35092.000000,17295.000000
6492.000000,24149.000000,35065.000000,17310.000000
6498.000000,24109.000000,35071.000000,17296.000000
6459.000000,24091.000000,35081.000000,17281.000000
6413.000000,24073.000000,35021.000000,17306.000000
6410.000000,24041.000000,35034.000000,17281.000000
6375.000000,24018.000000,35007.000000,17299.000000
6393.000000,23981.000000,34972.000000,17269.000000
6367.000000,23986.000000,34976.000000,17302.000000
6337.000000,23974.000000,34985.000000,17268.000000
6355.000000,23959.000000,34974.000000,17252.000000
6365.000000,23917.000000,34967.000000,17267.000000
6309.000000,23910.000000,34981.000000,17263.000000
6298.000000,23929.000000,34964.000000,17258.000000
6313.000000,23906.000000,34959.000000,17265.000000
6237.000000,23808.000000,34880.000000,17237.000000
6169.000000,23802.000000,34894.000000,17230.000000
6160.000000,23747.000000,34847.000000,17223.000000
6150.000000,23716.000000,34843.000000,17186.000000
6037.000000,23635.000000,34753.000000,17176.000000
6015.000000,23551.000000,34777.000000,17177.000000
5852.000000,23402.000000,34639.000000,17085.000000
5882.000000,23346.000000,34656.000000,17083.000000
5825.000000,23381.000000,34606.000000,17107.000000
5823.000000,23333.000000,34600.000000,17099.000000
5757.000000,23287.000000,34593.000000,17106.000000
5738.000000,23312.000000,34596.000000,17049.000000
5788.000000,23304.000000,34599.000000,17073.000000
5771.000000,23294.000000,34574.000000,17098.000000
5843.000000,23335.000000,34608.000000,17060.000000
5889.000000,23369.000000,34625.000000,17105.000000
5874.000000,23411.000000,34661.000000,17123.000000
5950.000000,23489.000000,34663.000000,17118.000000
6276.000000,23900.000000,34909.000000,17246.000000
6327.000000,24020.000000,35024.000000,17276.000000
6418.000000,24040.000000,35010.000000,17307.000000
6452.000000,24095.000000,35061.000000,17289.000000
6599.000000,24227.000000,35156.000000,17369.000000
6729.000000,24325.000000,35212.000000,17386.000000
6739.000000,24386.000000,35211.000000,17383.000000
6699.000000,24385.000000,35206.000000,17392.000000
6701.000000,24306.000000,35190.000000,17388.000000
6661.000000,24300.000000,35204.000000,17369.000000
6652.000000,24326.000000,35183.000000,17348.000000
6662.000000,24320.000000,35175.000000,17358.000000
6614.000000,24215.000000,35134.000000,17345.000000
6633.000000,24247.000000,35119.000000,17387.000000
6568.000000,24256.000000,35130.000000,17383.000000
6614.000000,24236.000000,35118.000000,17345.000000
6553.000000,24133.000000,35089.000000,17358.000000
6535.000000,24198.000000,35107.000000,17340.000000
6519.000000,24153.000000,35076.000000,17342.000000
6512.000000,24145.000000,35092.000000,17357.000000
6450.000000,24069.000000,35016.000000,17297.000000
6459.000000,24059.000000,35024.000000,17341.000000
6423.000000,24059.000000,35013.000000,17312.000000
6393.000000,24034.000000,35013.000000,17287.000000
6375.000000,23980.000000,35017.000000,17310.000000
6381.000000,23977.000000,34972.000000,17297.000000
6333.000000,23953.000000,34975.000000,17280.000000
6286.000000,23910.000000,34903.000000,17293.000000
6291.000000,23826.000000,34896.000000,17262.000000
6269.000000,23843.000000,34897.000000,17251.000000
6262.000000,23814.000000,34904.000000,17270.000000
6227.000000,23821.000000,34897.000000,17247.000000
6162.000000,23732.000000,34839.000000,17250.000000
6158.000000,23713.000000,34830.000000,17234.000000
6190.000000,23690.000000,34820.000000,17214.000000
6142.000000,23709.000000,34840.000000,17239.000000
6076.000000,23626.000000,34774.000000,17196.000000
6032.000000,23566.000000,34744.000000,17195.000000
5991.000000,23535.000000,34707.000000,17167.000000
5938.000000,23460.000000,34677.000000,17146.000000
5746.000000,23235.000000,34541.000000,17099.000000
5745.000000,23184.000000,34543.000000,17098.000000
5732.000000,23171.000000,34528.000000,17104.000000
5737.000000,23195.000000,34527.000000,17051.000000
5649.000000,23116.000000,34487.000000,17058.000000
5625.000000,23090.000000,34485.000000,17062.000000
5664.000000,23053.000000,34463.000000,17045.000000
5634.000000,23071.000000,34475.000000,17046.000000
5610.000000,23094.000000,34469.000000,17056.000000
5728.000000,23153.000000,34503.000000,17062.000000
5738.000000,23161.000000,34516.000000,17085.000000
5757.000000,23230.000000,34525.000000,17077.000000
6060.000000,23545.000000,34725.000000,17204.000000
6122.000000,23653.000000,34806.000000,17196.000000
6212.000000,23714.000000,34875.000000,17231.000000
6278.000000,23815.000000,34876.000000,17273.000000
6448.000000,24038.000000,34998.000000,17312.000000
6477.000000,24088.000000,35072.000000,17310.000000
6502.000000,24112.000000,35079.000000,17329.000000
6606.000000,24216.000000,35109.000000,17364.000000
6613.000000,24267.000000,35140.000000,17381.000000
6654.000000,24247.000000,35129.000000,17378.000000
6630.000000,24236.000000,35140.000000,17375.000000
6592.000000,24187.000000,35151.000000,17380.000000
6592.000000,24212.000000,35121.000000,17376.000000
6607.000000,24236.000000,35126.000000,17362.000000
6560.000000,24204.000000,35118.000000,17363.000000
6522.000000,24177.000000,35056.000000,17337.000000
6517.000000,24148.000000,35083.000000,17379.000000
6534.000000,24153.000000,35066.000000,17355.000000
6479.000000,24117.000000,35074.000000,17355.000000
6468.000000,24060.000000,35039.000000,17348.000000
6462.000000,24091.000000,35050.000000,17344.000000
6476.000000,24062.000000,35057.000000,17342.000000
6453.000000,24072.000000,35027.000000,17357.000000
6419.000000,24020.000000,35008.000000,17330.000000
6379.000000,23970.000000,34965.000000,17307.000000
6366.000000,23977.000000,34974.000000,17296.000000
6386.000000,23942.000000,34988.000000,17297.000000
6347.000000,23946.000000,34961.000000,17323.000000
6313.000000,23874.000000,34950.000000,17267.000000
6266.000000,23895.000000,34960.000000,17290.000000
6285.000000,23836.000000,34895.000000,17285.000000
6275.000000,23857.000000,34922.000000,17292.000000
6193.000000,23763.000000,34849.000000,17267.000000
6186.000000,23769.000000,34851.000000,17270.000000
6162.000000,23744.000000,34873.000000,17255.000000
6204.000000,23736.000000,34842.000000,17251.000000
6144.000000,23725.000000,34820.000000,17257.000000
6153.000000,23694.000000,34840.000000,17269.000000
6152.000000,23710.000000,34830.000000,17246.000000
6120.000000,23695.000000,34834.000000,17257.000000
6054.000000,23621.000000,34799.000000,17214.000000
6015.000000,23570.000000,34785.000000,17213.000000
5963.000000,23564.000000,34735.000000,17185.000000
5936.000000,23504.000000,34720.000000,17184.000000
5760.000000,23284.000000,34577.000000,17099.000000
5742.000000,23241.000000,34578.000000,17115.000000
5710.000000,23242.000000,34565.000000,17099.000000
5687.000000,23219.000000,34549.000000,17082.000000
5661.000000,23178.000000,34557.000000,17068.000000
5664.000000,23213.000000,34529.000000,17094.000000
5679.000000,23212.000000,34523.000000,17080.000000
5674.000000,23226.000000,34527.000000,17072.000000
5701.000000,23268.000000,34584.000000,17082.000000
5735.000000,23265.000000,34596.000000,17109.000000
5744.000000,23309.000000,34574.000000,17099.000000
6033.000000,23630.000000,34828.000000,17195.000000
6117.000000,23708.000000,34848.000000,17228.000000
6214.000000,23798.000000,34903.000000,17249.000000
6437.000000,24122.000000,35075.000000,17366.000000
6480.000000,24179.000000,35106.000000,17347.000000
6542.000000,24225.000000,35129.000000,17386.000000
6613.000000,24256.000000,35155.000000,17389.000000
6662.000000,24417.000000,35231.000000,17439.000000
6658.000000,24388.000000,35229.000000,17403.000000
6689.000000,24391.000000,35221.000000,17402.000000
6633.000000,24328.000000,35211.000000,17406.000000
6634.000000,24333.000000,35202.000000,17370.000000
6616.000000,24316.000000,35194.000000,17400.000000
6631.000000,24281.000000,35185.000000,17383.000000
6632.000000,24284.000000,35175.000000,17367.000000
6611.000000,24279.000000,35200.000000,17389.000000
6645.000000,24280.000000,35173.000000,17365.000000
6610.000000,24270.000000,35188.000000,17372.000000
6581.000000,24277.000000,35175.000000,17390.000000
6643.000000,24260.000000,35167.000000,17358.000000
6635.000000,24312.000000,35175.000000,17363.000000
6596.000000,24257.000000,35178.000000,17345.000000
6632.000000,24246.000000,35164.000000,17366.000000
6608.000000,24211.000000,35170.000000,17357.000000
6571.000000,24218.000000,35162.000000,17353.000000
6520.000000,24111.000000,35129.000000,17337.000000
6551.000000,24122.000000,35115.000000,17345.000000
6504.000000,24121.000000,35099.000000,17333.000000
6547.000000,24123.000000,35097.000000,17332.000000
6484.000000,24057.000000,35094.000000,17306.000000
6490.000000,24071.000000,35070.000000,17324.000000
6476.000000,24025.000000,35065.000000,17309.000000
6473.000000,24022.000000,35050.000000,17292.000000
6430.000000,23978.000000,35037.000000,17285.000000
6407.000000,23973.000000,35005.000000,17278.000000
6420.000000,23965.000000,35009.000000,17276.000000
6372.000000,23917.000000,34958.000000,17278.000000
6279.000000,23847.000000,34923.000000,17270.000000
6284.000000,23829.000000,34936.000000,17259.000000
6271.000000,23781.000000,34945.000000,17261.000000
6265.000000,23766.000000,34909.000000,17224.000000
6173.000000,23692.000000,34873.000000,17204.000000
6136.000000,23642.000000,34847.000000,17202.000000
6123.000000,23579.000000,34824.000000,17195.000000
5949.000000,23434.000000,34709.000000,17141.000000
5950.000000,23421.000000,34682.000000,17136.000000
5880.000000,23396.000000,34685.000000,17130.000000
5907.000000,23392.000000,34669.000000,17108.000000
5841.000000,23290.000000,34639.000000,17101.000000
5790.000000,23314.000000,34675.000000,17086.000000
5826.000000,23268.000000,34636.000000,17093.000000
5792.000000,23286.000000,34654.000000,17095.000000
5804.000000,23288.000000,34617.000000,17100.000000
5803.000000,23296.000000,34639.000000,17054.000000
5812.000000,23257.000000,34643.000000,17078.000000
5982.000000,23481.000000,34736.000000,17145.000000
6006.000000,23540.000000,34778.000000,17167.000000
6121.000000,23622.000000,34833.000000,17180.000000
6143.000000,23706.000000,34854.000000,17211.000000
6359.000000,23968.000000,35037.000000,17256.000000
6754.000000,24353.000000,35291.000000,17409.000000
6821.000000,24426.000000,35287.000000,17380.000000
6797.000000,24442.000000,35318.000000,17424.000000
6835.000000,24451.000000,35297.000000,17422.000000
6835.000000,24438.000000,35313.000000,17427.000000
6817.000000,24477.000000,35316.000000,17420.000000
6841.000000,24421.000000,35322.000000,17416.000000
6828.000000,24474.000000,35282.000000,17426.000000
6774.000000,24408.000000,35270.000000,17381.000000
6734.000000,24402.000000,35318.000000,17422.000000
6783.000000,24406.000000,35291.000000,17411.000000
6758.000000,24371.000000,35283.000000,17435.000000
6678.000000,24379.000000,35251.000000,17407.000000
6699.000000,24310.000000,35252.000000,17388.000000
6711.000000,24307.000000,35226.000000,17383.000000
6618.000000,24228.000000,35231.000000,17362.000000
6627.000000,24233.000000,35169.000000,17390.000000
6628.000000,24206.000000,35173.000000,17343.000000
6576.000000,24148.000000,35144.000000,17345.000000
6576.000000,24146.000000,35170.000000,17335.000000
6586.000000,24160.000000,35149.000000,17327.000000
6514.000000,24091.000000,35102.000000,17355.000000
6508.000000,24060.000000,35089.000000,17329.000000
6442.000000,24065.000000,35095.000000,17322.000000
6487.000000,24032.000000,35080.000000,17322.000000
6444.000000,23997.000000,35054.000000,17310.000000
6418.000000,23985.000000,35061.000000,17312.000000
6425.000000,24009.000000,35054.000000,17308.000000
6352.000000,23957.000000,35042.000000,17310.000000
6367.000000,23923.000000,35016.000000,17290.000000
6388.000000,23922.000000,35008.000000,17279.000000
6298.000000,23874.000000,35005.000000,17269.000000
6261.000000,23862.000000,34983.000000,17255.000000
6304.000000,23827.000000,34970.000000,17260.000000
6178.000000,23732.000000,34869.000000,17222.000000
6130.000000,23645.000000,34867.000000,17205.000000
6056.000000,23611.000000,34861.000000,17202.000000
6043.000000,23588.000000,34806.000000,17180.000000
5874.000000,23374.000000,34694.000000,17121.000000
5853.000000,23323.000000,34643.000000,17103.000000
5832.000000,23355.000000,34673.000000,17096.000000
5810.000000,23320.000000,34667.000000,17098.000000
5753.000000,23262.000000,34654.000000,17103.000000
5775.000000,23278.000000,34642.000000,17106.000000
5786.000000,23285.000000,34624.000000,17084.000000
5804.000000,23317.000000,34626.000000,17084.000000
5837.000000,23318.000000,34661.000000,17083.000000
5803.000000,23325.000000,34681.000000,17110.000000
5845.000000,23355.000000,34702.000000,17087.000000
6042.000000,23571.000000,34845.000000,17153.000000
6118.000000,23687.000000,34852.000000,17170.000000
6185.000000,23745.000000,34909.000000,17186.000000
6243.000000,23840.000000,34983.000000,17245.000000
6733.000000,24355.000000,35274.000000,17388.000000
6748.000000,24461.000000,35325.000000,17372.000000
6806.000000,24473.000000,35344.000000,17422.000000
6833.000000,24532.000000,35353.000000,17411.000000
6872.000000,24576.000000,35421.000000,17463.000000
6882.000000,24593.000000,35409.000000,17458.000000
6871.000000,24632.000000,35408.000000,17435.000000
6822.000000,24581.000000,35416.000000,17437.000000
6801.000000,24536.000000,35372.000000,17441.000000
6799.000000,24483.000000,35350.000000,17394.000000
6768.000000,24481.000000,35334.000000,17397.000000
6689.000000,24458.000000,35295.000000,17397.000000
6682.000000,24358.000000,35282.000000,17369.000000
6625.000000,24273.000000,35246.000000,17381.000000
6626.000000,24260.000000,35197.000000,17342.000000
6587.000000,24257.000000,35201.000000,17382.000000
6581.000000,24252.000000,35205.000000,17365.000000
6546.000000,24195.000000,35211.000000,17348.000000
6454.000000,24157.000000,35165.000000,17339.000000
6476.000000,24146.000000,35120.000000,17327.000000
6450.000000,24116.000000,35118.000000,17330.000000
6459.000000,24099.000000,35141.000000,17322.000000
6421.000000,24076.000000,35101.000000,17326.000000
6391.000000,24040.000000,35063.000000,17292.000000
6387.000000,24015.000000,35060.000000,17309.000000
6342.000000,24010.000000,35096.000000,17291.000000
6371.000000,23975.000000,35039.000000,17297.000000
6279.000000,23915.000000,34995.000000,17282.000000
6235.000000,23905.000000,34999.000000,17249.000000
6252.000000,23903.000000,34962.000000,17277.000000
6187.000000,23881.000000,34962.000000,17274.000000
6107.000000,23712.000000,34884.000000,17211.000000
6059.000000,23683.000000,34870.000000,17247.000000
5994.000000,23642.000000,34804.000000,17199.000000
5959.000000,23551.000000,34815.000000,17176.000000
5792.000000,23377.000000,34656.000000,17121.000000
5752.000000,23332.000000,34643.000000,17093.000000
5725.000000,23293.000000,34635.000000,17103.000000
5674.000000,23265.000000,34611.000000,17106.000000
5661.000000,23190.000000,34575.000000,17089.000000
5621.000000,23176.000000,34582.000000,17069.000000
5623.000000,23189.000000,34589.000000,17059.000000
5612.000000,23146.000000,34567.000000,17069.000000
5579.000000,23117.000000,34544.000000,17074.000000
5585.000000,23138.000000,34568.000000,17050.000000
5612.000000,23156.000000,34561.000000,17049.000000
5603.000000,23147.000000,34566.000000,17058.000000
5625.000000,23198.000000,34548.000000,17075.000000
5885.000000,23479.000000,34740.000000,17144.000000
5975.000000,23525.000000,34781.000000,17186.000000
6026.000000,23655.000000,34827.000000,17195.000000
6118.000000,23729.000000,34870.000000,17250.000000
6361.000000,24013.000000,35061.000000,17279.000000
6564.000000,24287.000000,35223.000000,17385.000000
6601.000000,24332.000000,35223.000000,17403.000000
6579.000000,24351.000000,35244.000000,17399.000000
6616.000000,24358.000000,35282.000000,17384.000000
6634.000000,24345.000000,35238.000000,17411.000000
6644.000000,24349.000000,35261.000000,17389.000000
6647.000000,24328.000000,35246.000000,17381.000000
6586.000000,24336.000000,35222.000000,17357.000000
6520.000000,24236.000000,35179.000000,17339.000000
6521.000000,24210.000000,35182.000000,17369.000000
6517.000000,24208.000000,35167.000000,17370.000000
6481.000000,24188.000000,35170.000000,17365.000000
6449.000000,24167.000000,35108.000000,17361.000000
6427.000000,24110.000000,35090.000000,17325.000000
6376.000000,24064.000000,35086.000000,17332.000000
6411.000000,24069.000000,35080.000000,17351.000000
6363.000000,24031.000000,35088.000000,17322.000000
6271.000000,23958.000000,35029.000000,17288.000000
6286.000000,23934.000000,34987.000000,17313.000000
6275.000000,23931.000000,34994.000000,17303.000000
6211.000000,23899.000000,34983.000000,17283.000000
6198.000000,23832.000000,34959.000000,17291.000000
6167.000000,23785.000000,34948.000000,17258.000000
6126.000000,23831.000000,34932.000000,17267.000000
6195.000000,23847.000000,34944.000000,17264.000000
6180.000000,23812.000000,34945.000000,17242.000000
6141.000000,23811.000000,34908.000000,17239.000000
6173.000000,23823.000000,34913.000000,17257.000000
6112.000000,23789.000000,34932.000000,17240.000000
6046.000000,23714.000000,34886.000000,17249.000000
6056.000000,23704.000000,34874.000000,17246.000000
6035.000000,23683.000000,34882.000000,17231.000000
5850.000000,23498.000000,34753.000000,17165.000000
5787.000000,23402.000000,34720.000000,17149.000000
5778.000000,23412.000000,34691.000000,17138.000000
5758.000000,23340.000000,34633.000000,17124.000000
5628.000000,23208.000000,34589.000000,17080.000000
5530.000000,23085.000000,34496.000000,17059.000000
5488.000000,23069.000000,34502.000000,17039.000000
5488.000000,23100.000000,34490.000000,17058.000000
5469.000000,23054.000000,34496.000000,17053.000000
5484.000000,23083.000000,34496.000000,17050.000000
5453.000000,23050.000000,34496.000000,17040.000000
5494.000000,23040.000000,34473.000000,17041.000000
5488.000000,23055.000000,34505.000000,17036.000000
5504.000000,23048.000000,34499.000000,17024.000000
5650.000000,23236.000000,34578.000000,17103.000000
5723.000000,23308.000000,34642.000000,17114.000000
5815.000000,23406.000000,34671.000000,17159.000000
5895.000000,23524.000000,34748.000000,17202.000000
6309.000000,24040.000000,35042.000000,17307.000000
6379.000000,24103.000000,35075.000000,17364.000000
6420.000000,24113.000000,35112.000000,17351.000000
6532.000000,24290.000000,35177.000000,17388.000000
6573.000000,24314.000000,35190.000000,17388.000000
6519.000000,24291.000000,35216.000000,17391.000000
6512.000000,24304.000000,35190.000000,17406.000000
6492.000000,24279.000000,35190.000000,17393.000000
6459.000000,24222.000000,35164.000000,17369.000000
6449.000000,24183.000000,35162.000000,17384.000000
6448.000000,24224.000000,35167.000000,17374.000000
6403.000000,24157.000000,35140.000000,17368.000000
6434.000000,24158.000000,35139.000000,17357.000000
6407.000000,24155.000000,35126.000000,17339.000000
6399.000000,24114.000000,35114.000000,17375.000000
6368.000000,24080.000000,35097.000000,17358.000000
6304.000000,24068.000000,35082.000000,17350.000000
6357.000000,24066.000000,35069.000000,17330.000000
6284.000000,24013.000000,35032.000000,17325.000000
6261.000000,23998.000000,35033.000000,17307.000000
6285.000000,24001.000000,35021.000000,17298.000000
6276.000000,23995.000000,35047.000000,17312.000000
6150.000000,23885.000000,34980.000000,17280.000000
6195.000000,23824.000000,34991.000000,17311.000000
6145.000000,23829.000000,34980.000000,17284.000000
6086.000000,23810.000000,34942.000000,17277.000000
6086.000000,23742.000000,34910.000000,17255.000000
6026.000000,23643.000000,34866.000000,17255.000000
6010.000000,23687.000000,34852.000000,17249.000000
5988.000000,23639.000000,34865.000000,17209.000000
5888.000000,23558.000000,34822.000000,17212.000000
5943.000000,23534.000000,34800.000000,17191.000000
5897.000000,23566.000000,34782.000000,17187.000000
5718.000000,23320.000000,34653.000000,17148.000000
5665.000000,23288.000000,34646.000000,17095.000000
5625.000000,23304.000000,34636.000000,17124.000000
5650.000000,23222.000000,34595.000000,17103.000000
5457.000000,23016.000000,34478.000000,17033.000000
5415.000000,22993.000000,34462.000000,17049.000000
5396.000000,22987.000000,34440.000000,17030.000000
5353.000000,22873.000000,34410.000000,17006.000000
5372.000000,22907.000000,34379.000000,17018.000000
5354.000000,22923.000000,34392.000000,16986.000000
5331.000000,22884.000000,34398.000000,16997.000000
5352.000000,22850.000000,34405.000000,17002.000000
5345.000000,22900.000000,34392.000000,17025.000000
5440.000000,23025.000000,34488.000000,17031.000000
5494.000000,23032.000000,34478.000000,17039.000000
5521.000000,23080.000000,34547.000000,17059.000000
5608.000000,23154.000000,34559.000000,17067.000000
5827.000000,23396.000000,34689.000000,17150.000000
6240.000000,23920.000000,35023.000000,17300.000000
6340.000000,24013.000000,35050.000000,17301.000000
6398.000000,24074.000000,35082.000000,17337.000000
6444.000000,24116.000000,35111.000000,17370.000000
6552.000000,24223.000000,35172.000000,17380.000000
6526.000000,24253.000000,35178.000000,17382.000000
6515.000000,24244.000000,35214.000000,17400.000000
6522.000000,24256.000000,35200.000000,17392.000000
6526.000000,24232.000000,35179.000000,17372.000000
6517.000000,24219.000000,35154.000000,17371.000000
6479.000000,24194.000000,35151.000000,17374.000000
6465.000000,24188.000000,35136.000000,17356.000000
6445.000000,24161.000000,35140.000000,17386.000000
6393.000000,24109.000000,35079.000000,17333.000000
6352.000000,24064.000000,35087.000000,17381.000000
6335.000000,24048.000000,35050.000000,17354.000000
6333.000000,24071.000000,35062.000000,17327.000000
6310.000000,23981.000000,35056.000000,17344.000000
6215.000000,23892.000000,34988.000000,17296.000000
6220.000000,23866.000000,34957.000000,17322.000000
6197.000000,23883.000000,34974.000000,17288.000000
6203.000000,23860.000000,34940.000000,17307.000000
6123.000000,23785.000000,34903.000000,17288.000000
6107.000000,23741.000000,34888.000000,17267.000000
6080.000000,23773.000000,34904.000000,17272.000000
6017.000000,23689.000000,34853.000000,17237.000000
6003.000000,23637.000000,34822.000000,17239.000000
5991.000000,23635.000000,34816.000000,17249.000000
5893.000000,23570.000000,34783.000000,17236.000000
5908.000000,23571.000000,34747.000000,17238.000000
