660nm,730nm,850nm,940nm
21159.000000,43567.000000,46343.000000,23046.000000
21113.000000,43534.000000,46355.000000,23032.000000
21132.000000,43536.000000,46351.000000,23059.000000
21143.000000,43517.000000,46321.000000,23051.000000
21110.000000,43497.000000,46322.000000,23034.000000
21078.000000,43481.000000,46324.000000,23036.000000
21086.000000,43463.000000,46301.000000,23028.000000
21059.000000,43462.000000,46292.000000,23026.000000
21025.000000,43398.000000,46303.000000,23034.000000
21006.000000,43394.000000,46249.000000,22996.000000
20991.000000,43368.000000,46253.000000,23013.000000
21000.000000,43363.000000,46250.000000,23017.000000
20970.000000,43364.000000,46221.000000,22994.000000
20972.000000,43331.000000,46240.000000,23014.000000
20965.000000,43312.000000,46217.000000,23036.000000
20920.000000,43326.000000,46229.000000,22996.000000
20951.000000,43296.000000,46195.000000,22966.000000
20895.000000,43268.000000,46202.000000,22978.000000
20918.000000,43247.000000,46185.000000,23000.000000
20871.000000,43288.000000,46163.000000,22971.000000
20866.000000,43244.000000,46175.000000,22969.000000
20849.000000,43254.000000,46163.000000,22969.000000
20844.000000,43217.000000,46169.000000,22981.000000
20826.000000,43205.000000,46159.000000,22950.000000
20788.000000,43206.000000,46130.000000,22938.000000
20848.000000,43140.000000,46116.000000,22981.000000
20809.000000,43193.000000,46123.000000,22971.000000
20796.000000,43124.000000,46105.000000,22951.000000
20759.000000,43148.000000,46123.000000,22943.000000
20750.000000,43093.000000,46128.000000,22943.000000
20771.000000,43134.000000,46093.000000,22939.000000
20768.000000,43099.000000,46099.000000,22927.000000
20723.000000,43079.000000,46103.000000,22918.000000
20752.000000,43090.000000,46087.000000,22955.000000
20727.000000,43053.000000,46082.000000,22941.000000
20721.000000,43070.000000,46061.000000,22934.000000
20737.000000,43112.000000,46074.000000,22906.000000
20732.000000,43052.000000,46072.000000,22956.000000
20698.000000,43091.000000,46055.000000,22926.000000
20707.000000,43065.000000,46068.000000,22913.000000
20717.000000,43051.000000,46071.000000,22921.000000
20676.000000,43019.000000,46055.000000,22929.000000
20670.000000,43027.000000,46054.000000,22901.000000
20665.000000,43016.000000,46061.000000,22908.000000
20692.000000,42999.000000,46066.000000,22902.000000
20649.000000,43035.000000,46035.000000,22912.000000
20635.000000,42965.000000,46030.000000,22881.000000
20670.000000,42963.000000,46046.000000,22909.000000
20628.000000,42974.000000,46031.000000,22914.000000
20626.000000,42948.000000,45992.000000,22892.000000
20594.000000,42950.000000,46002.000000,22899.000000
20623.000000,42927.000000,45978.000000,22917.000000
20594.000000,42935.000000,46005.000000,22878.000000
20575.000000,42895.000000,45964.000000,22891.000000
20558.000000,42914.000000,45956.000000,22898.000000
20534.000000,42872.000000,45964.000000,22864.000000
20568.000000,42883.000000,45953.000000,22865.000000
20524.000000,42864.000000,45950.000000,22896.000000
20516.000000,42859.000000,45950.000000,22851.000000
20527.000000,42839.000000,45965.000000,22881.000000
20534.000000,42802.000000,45975.000000,22884.000000
20511.000000,42820.000000,45948.000000,22864.000000
20538.000000,42830.000000,45957.000000,22868.000000
20530.000000,42856.000000,45942.000000,22866.000000
20529.000000,42858.000000,45937.000000,22888.000000
20508.000000,42848.000000,45952.000000,22852.000000
20506.000000,42861.000000,45958.000000,22885.000000
20542.000000,42866.000000,45952.000000,22882.000000
20558.000000,42867.000000,45986.000000,22864.000000
20572.000000,42854.000000,45956.000000,22870.000000
20585.000000,42909.000000,45989.000000,22882.000000
20587.000000,42915.000000,45968.000000,22877.000000
20582.000000,42935.000000,45999.000000,22878.000000
20631.000000,42888.000000,45987.000000,22878.000000
20637.000000,42939.000000,46007.000000,22895.000000
20627.000000,42952.000000,46015.000000,22905.000000
20646.000000,42958.000000,46014.000000,22905.000000
20650.000000,43005.000000,46006.000000,22899.000000
20662.000000,42999.000000,46039.000000,22883.000000
20697.000000,43020.000000,46037.000000,22890.000000
20734.000000,43028.000000,46068.000000,22927.000000
20757.000000,43057.000000,46084.000000,22902.000000
20752.000000,43101.000000,46077.000000,22920.000000
20774.000000,43103.000000,46098.000000,22934.000000
20809.000000,43147.000000,46095.000000,22935.000000
20826.000000,43171.000000,46144.000000,22942.000000
20867.000000,43197.000000,46169.000000,22961.000000
20874.000000,43256.000000,46177.000000,22965.000000
20949.000000,43267.000000,46191.000000,22991.000000
20955.000000,43333.000000,46197.000000,22965.000000
20991.000000,43324.000000,46247.000000,22981.000000
21057.000000,43391.000000,46269.000000,23002.000000
21082.000000,43480.000000,46310.000000,23008.000000
21179.000000,43527.000000,46324.000000,23031.000000
21195.000000,43572.000000,46379.000000,23043.000000
21281.000000,43622.000000,46384.000000,23059.000000
21323.000000,43690.000000,46453.000000,23064.000000
21373.000000,43775.000000,46476.000000,23082.000000
21399.000000,43823.000000,46510.000000,23119.000000
21468.000000,43903.000000,46559.000000,23100.000000
21489.000000,43927.000000,46589.000000,23151.000000
21549.000000,43990.000000,46587.000000,23142.000000
21539.000000,43988.000000,46610.000000,23141.000000
21542.000000,43990.000000,46608.000000,23168.000000
21541.000000,43974.000000,46604.000000,23162.000000
21519.000000,43968.000000,46599.000000,23171.000000
21529.000000,43969.000000,46599.000000,23123.000000
21510.000000,43954.000000,46598.000000,23144.000000
21525.000000,43934.000000,46568.000000,23144.000000
21506.000000,43916.000000,46583.000000,23120.000000
21501.000000,43911.000000,46555.000000,23152.000000
21447.000000,43895.000000,46550.000000,23120.000000
21440.000000,43847.000000,46562.000000,23136.000000
21445.000000,43874.000000,46516.000000,23117.000000
21438.000000,43798.000000,46552.000000,23155.000000
21436.000000,43825.000000,46507.000000,23121.000000
21390.000000,43820.000000,46504.000000,23123.000000
21388.000000,43781.000000,46494.000000,23111.000000
21391.000000,43798.000000,46482.000000,23097.000000
21354.000000,43735.000000,46477.000000,23099.000000
21369.000000,43745.000000,46463.000000,23102.000000
21316.000000,43729.000000,46459.000000,23110.000000
21333.000000,43709.000000,46422.000000,23082.000000
21295.000000,43673.000000,46453.000000,23081.000000
21296.000000,43681.000000,46414.000000,23082.000000
21279.000000,43681.000000,46410.000000,23090.000000
21264.000000,43653.000000,46433.000000,23069.000000
21244.000000,43639.000000,46423.000000,23080.000000
21257.000000,43640.000000,46399.000000,23061.000000
21230.000000,43612.000000,46389.000000,23041.000000
21221.000000,43625.000000,46353.000000,23066.000000
21214.000000,43597.000000,46391.000000,23084.000000
21195.000000,43586.000000,46372.000000,23046.000000
21198.000000,43581.000000,46343.000000,23044.000000
21179.000000,43556.000000,46354.000000,23015.000000
21161.000000,43553.000000,46341.000000,23065.000000
21172.000000,43543.000000,46336.000000,23027.000000
21155.000000,43513.000000,46323.000000,23047.000000
21135.000000,43499.000000,46339.000000,23028.000000
21131.000000,43512.000000,46311.000000,23021.000000
21109.000000,43496.000000,46331.000000,23057.000000
21117.000000,43473.000000,46299.000000,23039.000000
21089.000000,43448.000000,46301.000000,23038.000000
21088.000000,43435.000000,46276.000000,23045.000000
21060.000000,43426.000000,46282.000000,23014.000000
21060.000000,43385.000000,46283.000000,23022.000000
21039.000000,43396.000000,46271.000000,23029.000000
21011.000000,43351.000000,46257.000000,23029.000000
21018.000000,43353.000000,46255.000000,22970.000000
20979.000000,43345.000000,46233.000000,23000.000000
20986.000000,43309.000000,46238.000000,23005.000000
20979.000000,43321.000000,46226.000000,23007.000000
20951.000000,43251.000000,46230.000000,23002.000000
20957.000000,43277.000000,46213.000000,22962.000000
20937.000000,43290.000000,46200.000000,22987.000000
20929.000000,43237.000000,46210.000000,23002.000000
20907.000000,43260.000000,46171.000000,22966.000000
20878.000000,43234.000000,46191.000000,22973.000000
20901.000000,43182.000000,46162.000000,22960.000000
20852.000000,43220.000000,46175.000000,22971.000000
20859.000000,43189.000000,46138.000000,22969.000000
20835.000000,43185.000000,46162.000000,22929.000000
20815.000000,43168.000000,46126.000000,22965.000000
20823.000000,43186.000000,46137.000000,22952.000000
20815.000000,43133.000000,46148.000000,22952.000000
20775.000000,43107.000000,46111.000000,22941.000000
20775.000000,43116.000000,46123.000000,22941.000000
20786.000000,43116.000000,46107.000000,22910.000000
20767.000000,43112.000000,46085.000000,22943.000000
20724.000000,43059.000000,46114.000000,22948.000000
20736.000000,43072.000000,46073.000000,22946.000000
20715.000000,43047.000000,46082.000000,22924.000000
20742.000000,43063.000000,46078.000000,22924.000000
20703.000000,43052.000000,46065.000000,22932.000000
20709.000000,43050.000000,46050.000000,22898.000000
20717.000000,43041.000000,46072.000000,22927.000000
20716.000000,43000.000000,46040.000000,22931.000000
20726.000000,43012.000000,46064.000000,22932.000000
20703.000000,43011.000000,46066.000000,22898.000000
20719.000000,42960.000000,46045.000000,22909.000000
20664.000000,43006.000000,46031.000000,22906.000000
20689.000000,43007.000000,46051.000000,22920.000000
20669.000000,43007.000000,46042.000000,22895.000000
20683.000000,42988.000000,46031.000000,22898.000000
20702.000000,42965.000000,46040.000000,22891.000000
20660.000000,43004.000000,46074.000000,22910.000000
20688.000000,42955.000000,46024.000000,22914.000000
20694.000000,42991.000000,46021.000000,22908.000000
20657.000000,42948.000000,46029.000000,22925.000000
20658.000000,42950.000000,46024.000000,22879.000000
20645.000000,42931.000000,46050.000000,22904.000000
20687.000000,42941.000000,46011.000000,22892.000000
20682.000000,42948.000000,45995.000000,22882.000000
20640.000000,42937.000000,46022.000000,22883.000000
20652.000000,42926.000000,46008.000000,22883.000000
20607.000000,42918.000000,46011.000000,22885.000000
20637.000000,42896.000000,45983.000000,22896.000000
20610.000000,42892.000000,45989.000000,22869.000000
20594.000000,42862.000000,45994.000000,22886.000000
20603.000000,42897.000000,46000.000000,22884.000000
20580.000000,42865.000000,46011.000000,22874.000000
20581.000000,42857.000000,45970.000000,22849.000000
20542.000000,42848.000000,45939.000000,22844.000000
20583.000000,42844.000000,45990.000000,22888.000000
20580.000000,42844.000000,45978.000000,22851.000000
20553.000000,42852.000000,45981.000000,22857.000000
20553.000000,42857.000000,45944.000000,22851.000000
20567.000000,42847.000000,45995.000000,22843.000000
20577.000000,42860.000000,45972.000000,22868.000000
20583.000000,42859.000000,45973.000000,22853.000000
20578.000000,42861.000000,46004.000000,22848.000000
20610.000000,42875.000000,45984.000000,22844.000000
20607.000000,42874.000000,46014.000000,22848.000000
20636.000000,42911.000000,46018.000000,22860.000000
20635.000000,42915.000000,46000.000000,22879.000000
20642.000000,42918.000000,46042.000000,22882.000000
20681.000000,42922.000000,46031.000000,22875.000000
20682.000000,42987.000000,46040.000000,22884.000000
20689.000000,42985.000000,46032.000000,22890.000000
20744.000000,42990.000000,46063.000000,22884.000000
20723.000000,42985.000000,46076.000000,22868.000000
20773.000000,43073.000000,46067.000000,22876.000000
20748.000000,43041.000000,46082.000000,22891.000000
20802.000000,43050.000000,46086.000000,22894.000000
20828.000000,43087.000000,46116.000000,22917.000000
20822.000000,43094.000000,46144.000000,22889.000000
20849.000000,43106.000000,46106.000000,22907.000000
20873.000000,43117.000000,46160.000000,22933.000000
20907.000000,43183.000000,46151.000000,22926.000000
20910.000000,43211.000000,46164.000000,22923.000000
20937.000000,43203.000000,46183.000000,22966.000000
20967.000000,43262.000000,46216.000000,22949.000000
21001.000000,43278.000000,46248.000000,22949.000000
21045.000000,43319.000000,46239.000000,22997.000000
21063.000000,43418.000000,46259.000000,23004.000000
21117.000000,43428.000000,46298.000000,23012.000000
21155.000000,43465.000000,46312.000000,23001.000000
21206.000000,43507.000000,46369.000000,23014.000000
21274.000000,43580.000000,46401.000000,23031.000000
21318.000000,43619.000000,46432.000000,23056.000000
21366.000000,43676.000000,46451.000000,23072.000000
21404.000000,43759.000000,46496.000000,23065.000000
21431.000000,43790.000000,46554.000000,23053.000000
21513.000000,43864.000000,46548.000000,23105.000000
21564.000000,43959.000000,46590.000000,23100.000000
21611.000000,43949.000000,46628.000000,23130.000000
21630.000000,44020.000000,46624.000000,23142.000000
21625.000000,44033.000000,46671.000000,23133.000000
21628.000000,43997.000000,46645.000000,23132.000000
21618.000000,43991.000000,46668.000000,23133.000000
21630.000000,44042.000000,46664.000000,23157.000000
21645.000000,44013.000000,46656.000000,23148.000000
21581.000000,43983.000000,46643.000000,23124.000000
21605.000000,43990.000000,46643.000000,23154.000000
21573.000000,44000.000000,46631.000000,23121.000000
21568.000000,43953.000000,46619.000000,23136.000000
21577.000000,43920.000000,46587.000000,23119.000000
21553.000000,43935.000000,46650.000000,23140.000000
21547.000000,43883.000000,46590.000000,23117.000000
21515.000000,43935.000000,46585.000000,23105.000000
21499.000000,43875.000000,46581.000000,23118.000000
21492.000000,43870.000000,46565.000000,23089.000000
21443.000000,43871.000000,46547.000000,23096.000000
21457.000000,43834.000000,46555.000000,23119.000000
21468.000000,43834.000000,46544.000000,23103.000000
21432.000000,43798.000000,46509.000000,23077.000000
21428.000000,43792.000000,46513.000000,23102.000000
21415.000000,43797.000000,46513.000000,23072.000000
21405.000000,43734.000000,46501.000000,23089.000000
21403.000000,43755.000000,46493.000000,23073.000000
21349.000000,43710.000000,46476.000000,23075.000000
21375.000000,43715.000000,46444.000000,23068.000000
21339.000000,43709.000000,46482.000000,23076.000000
21330.000000,43676.000000,46445.000000,23064.000000
21341.000000,43683.000000,46436.000000,23063.000000
21302.000000,43656.000000,46478.000000,23049.000000
21322.000000,43649.000000,46446.000000,23050.000000
21292.000000,43648.000000,46451.000000,23046.000000
21298.000000,43586.000000,46456.000000,23053.000000
21290.000000,43646.000000,46417.000000,23085.000000
21244.000000,43565.000000,46424.000000,23056.000000
21277.000000,43595.000000,46401.000000,23047.000000
21239.000000,43552.000000,46413.000000,23014.000000
21238.000000,43573.000000,46369.000000,23026.000000
21192.000000,43566.000000,46374.000000,23028.000000
21206.000000,43505.000000,46390.000000,23026.000000
21244.000000,43518.000000,46362.000000,23023.000000
21204.000000,43511.000000,46361.000000,23038.000000
21172.000000,43484.000000,46350.000000,23017.000000
21146.000000,43498.000000,46341.000000,22999.000000
21157.000000,43428.000000,46308.000000,23024.000000
21141.000000,43442.000000,46324.000000,23013.000000
21115.000000,43447.000000,46326.000000,23004.000000
21122.000000,43411.000000,46264.000000,23007.000000
21075.000000,43401.000000,46289.000000,23022.000000
21081.000000,43359.000000,46300.000000,22984.000000
21049.000000,43368.000000,46294.000000,22981.000000
21040.000000,43375.000000,46291.000000,22991.000000
21030.000000,43324.000000,46265.000000,22977.000000
20968.000000,43297.000000,46244.000000,22990.000000
21011.000000,43290.000000,46247.000000,22969.000000
20975.000000,43314.000000,46225.000000,22973.000000
21000.000000,43298.000000,46202.000000,22974.000000
20943.000000,43272.000000,46208.000000,22970.000000
20943.000000,43244.000000,46209.000000,22945.000000
20960.000000,43247.000000,46193.000000,22956.000000
20902.000000,43250.000000,46234.000000,22932.000000
20881.000000,43210.000000,46171.000000,22985.000000
20881.000000,43218.000000,46171.000000,22943.000000
20881.000000,43142.000000,46165.000000,22937.000000
20883.000000,43185.000000,46174.000000,22925.000000
20858.000000,43153.000000,46145.000000,22951.000000
20846.000000,43138.000000,46152.000000,22912.000000
20822.000000,43115.000000,46143.000000,22927.000000
20812.000000,43078.000000,46118.000000,22953.000000
20792.000000,43110.000000,46090.000000,22918.000000
20792.000000,43074.000000,46098.000000,22915.000000
20799.000000,43077.000000,46081.000000,22911.000000
20736.000000,43097.000000,46109.000000,22896.000000
20749.000000,43065.000000,46083.000000,22902.000000
20727.000000,43037.000000,46073.000000,22898.000000
20736.000000,42977.000000,46062.000000,22895.000000
20742.000000,43078.000000,46043.000000,22881.000000
20684.000000,42996.000000,46074.000000,22903.000000
20733.000000,43025.000000,46046.000000,22910.000000
20700.000000,43000.000000,46062.000000,22907.000000
20686.000000,42972.000000,46028.000000,22899.000000
20667.000000,42998.000000,46039.000000,22890.000000
20677.000000,42992.000000,46050.000000,22911.000000
20654.000000,42966.000000,46018.000000,22894.000000
20661.000000,42978.000000,46021.000000,22899.000000
20637.000000,42945.000000,46022.000000,22862.000000
20653.000000,42981.000000,46023.000000,22885.000000
20656.000000,42954.000000,46011.000000,22874.000000
20625.000000,42937.000000,46034.000000,22872.000000
20614.000000,42922.000000,45982.000000,22911.000000
20624.000000,42932.000000,46006.000000,22880.000000
20579.000000,42890.000000,45983.000000,22871.000000
20583.000000,42906.000000,45970.000000,22860.000000
20602.000000,42881.000000,45944.000000,22863.000000
20579.000000,42901.000000,45963.000000,22871.000000
20573.000000,42859.000000,45955.000000,22860.000000
20534.000000,42841.000000,45950.000000,22852.000000
20564.000000,42821.000000,45959.000000,22864.000000
20561.000000,42834.000000,45944.000000,22831.000000
20548.000000,42824.000000,45967.000000,22848.000000
20552.000000,42776.000000,45937.000000,22849.000000
20517.000000,42807.000000,45929.000000,22855.000000
20520.000000,42832.000000,45963.000000,22814.000000
20538.000000,42801.000000,45942.000000,22841.000000
20512.000000,42805.000000,45953.000000,22850.000000
20551.000000,42781.000000,45918.000000,22840.000000
20543.000000,42843.000000,45953.000000,22842.000000
20582.000000,42811.000000,45961.000000,22831.000000
20596.000000,42880.000000,45982.000000,22844.000000
20582.000000,42854.000000,46011.000000,22841.000000
20610.000000,42888.000000,45970.000000,22843.000000
20604.000000,42928.000000,45995.000000,22863.000000
20650.000000,42904.000000,45998.000000,22876.000000
20660.000000,42943.000000,45995.000000,22864.000000
20638.000000,42919.000000,45983.000000,22870.000000
20680.000000,42974.000000,46014.000000,22865.000000
20691.000000,42984.000000,46049.000000,22869.000000
20715.000000,42994.000000,46052.000000,22864.000000
20734.000000,43027.000000,46089.000000,22876.000000
20737.000000,43013.000000,46053.000000,22901.000000
20755.000000,43023.000000,46109.000000,22867.000000
20801.000000,43065.000000,46077.000000,22901.000000
20837.000000,43112.000000,46125.000000,22899.000000
20845.000000,43131.000000,46118.000000,22883.000000
20869.000000,43139.000000,46133.000000,22888.000000
20902.000000,43189.000000,46152.000000,22907.000000
20920.000000,43197.000000,46188.000000,22923.000000
20934.000000,43222.000000,46202.000000,22930.000000
21016.000000,43269.000000,46212.000000,22926.000000
21048.000000,43317.000000,46232.000000,22933.000000
21105.000000,43360.000000,46258.000000,22956.000000
21109.000000,43397.000000,46299.000000,22962.000000
21163.000000,43429.000000,46323.000000,22973.000000
21217.000000,43494.000000,46356.000000,22981.000000
21231.000000,43530.000000,46398.000000,22994.000000
21306.000000,43616.000000,46404.000000,23001.000000
21335.000000,43663.000000,46446.000000,23024.000000
21412.000000,43702.000000,46463.000000,23034.000000
21464.000000,43809.000000,46526.000000,23059.000000
21500.000000,43837.000000,46565.000000,23054.000000
21560.000000,43886.000000,46585.000000,23089.000000
21580.000000,43913.000000,46612.000000,23129.000000
21633.000000,43924.000000,46632.000000,23085.000000
21653.000000,43991.000000,46653.000000,23119.000000
21668.000000,44020.000000,46659.000000,23137.000000
21676.000000,44014.000000,46657.000000,23138.000000
21649.000000,44035.000000,46656.000000,23123.000000
21663.000000,43991.000000,46667.000000,23127.000000
21676.000000,44019.000000,46672.000000,23135.000000
21669.000000,43993.000000,46647.000000,23134.000000
21623.000000,44033.000000,46673.000000,23117.000000
21667.000000,43972.000000,46643.000000,23145.000000
21657.000000,43978.000000,46649.000000,23132.000000
21626.000000,43939.000000,46628.000000,23105.000000
21658.000000,43937.000000,46612.000000,23115.000000
21626.000000,43977.000000,46635.000000,23098.000000
21620.000000,43911.000000,46628.000000,23098.000000
21601.000000,43924.000000,46614.000000,23110.000000
21570.000000,43899.000000,46612.000000,23096.000000
21567.000000,43855.000000,46587.000000,23075.000000
21515.000000,43861.000000,46619.000000,23084.000000
21526.000000,43856.000000,46577.000000,23091.000000
21547.000000,43822.000000,46570.000000,23096.000000
21476.000000,43814.000000,46585.000000,23099.000000
21518.000000,43782.000000,46544.000000,23073.000000
21471.000000,43802.000000,46521.000000,23073.000000
21469.000000,43775.000000,46555.000000,23081.000000
21440.000000,43761.000000,46524.000000,23036.000000
21407.000000,43761.000000,46532.000000,23061.000000
21448.000000,43744.000000,46516.000000,23070.000000
21433.000000,43729.000000,46503.000000,23058.000000
21414.000000,43693.000000,46501.000000,23066.000000
21433.000000,43701.000000,46488.000000,23064.000000
21395.000000,43711.000000,46465.000000,23037.000000
21363.000000,43663.000000,46468.000000,23032.000000
21378.000000,43680.000000,46460.000000,23048.000000
21377.000000,43675.000000,46488.000000,23027.000000
21343.000000,43624.000000,46450.000000,23055.000000
21371.000000,43683.000000,46447.000000,23049.000000
21333.000000,43645.000000,46449.000000,23005.000000
21340.000000,43624.000000,46435.000000,23026.000000
21308.000000,43589.000000,46437.000000,23023.000000
21294.000000,43578.000000,46444.000000,23012.000000
21305.000000,43561.000000,46406.000000,23015.000000
21261.000000,43565.000000,46423.000000,23001.000000
21297.000000,43591.000000,46427.000000,23051.000000
21257.000000,43553.000000,46396.000000,22998.000000
21222.000000,43545.000000,46372.000000,23004.000000
21250.000000,43514.000000,46368.000000,23019.000000
21220.000000,43520.000000,46383.000000,23001.000000
21223.000000,43495.000000,46365.000000,23005.000000
21237.000000,43475.000000,46366.000000,22979.000000
21207.000000,43463.000000,46382.000000,22975.000000
21171.000000,43444.000000,46339.000000,22994.000000
21154.000000,43465.000000,46339.000000,22987.000000
21140.000000,43437.000000,46304.000000,22967.000000
21145.000000,43413.000000,46317.000000,22975.000000
21137.000000,43400.000000,46316.000000,22961.000000
21106.000000,43398.000000,46322.000000,22974.000000
21081.000000,43366.000000,46319.000000,22965.000000
21075.000000,43334.000000,46301.000000,22972.000000
21087.000000,43347.000000,46265.000000,22956.000000
21100.000000,43325.000000,46254.000000,22938.000000
21041.000000,43274.000000,46275.000000,22962.000000
21078.000000,43303.000000,46279.000000,22958.000000
21038.000000,43338.000000,46258.000000,22927.000000
21053.000000,43284.000000,46246.000000,22944.000000
21059.000000,43255.000000,46268.000000,22921.000000
20999.000000,43271.000000,46252.000000,22945.000000
21013.000000,43288.000000,46235.000000,22940.000000
21001.000000,43248.000000,46261.000000,22911.000000
21008.000000,43264.000000,46209.000000,22918.000000
20980.000000,43228.000000,46218.000000,22906.000000
20986.000000,43214.000000,46239.000000,22940.000000
20989.000000,43219.000000,46195.000000,22932.000000
20940.000000,43226.000000,46231.000000,22916.000000
20952.000000,43223.000000,46231.000000,22931.000000
20932.000000,43230.000000,46221.000000,22902.000000
20966.000000,43217.000000,46215.000000,22931.000000
20957.000000,43203.000000,46206.000000,22911.000000
20945.000000,43204.000000,46208.000000,22910.000000
20968.000000,43203.000000,46171.000000,22911.000000
20968.000000,43195.000000,46193.000000,22890.000000
20949.000000,43209.000000,46205.000000,22941.000000
20932.000000,43194.000000,46200.000000,22903.000000
20918.000000,43199.000000,46207.000000,22930.000000
20936.000000,43196.000000,46197.000000,22915.000000
20935.000000,43185.000000,46195.000000,22926.000000
20915.000000,43152.000000,46224.000000,22912.000000
20928.000000,43150.000000,46183.000000,22929.000000
20922.000000,43163.000000,46176.000000,22883.000000
20885.000000,43159.000000,46156.000000,22903.000000
20901.000000,43166.000000,46169.000000,22904.000000
20891.000000,43115.000000,46183.000000,22865.000000
20897.000000,43118.000000,46160.000000,22880.000000
20900.000000,43144.000000,46149.000000,22880.000000
20874.000000,43076.000000,46152.000000,22915.000000
20874.000000,43081.000000,46123.000000,22859.000000
20867.000000,43080.000000,46164.000000,22884.000000
20864.000000,43077.000000,46133.000000,22852.000000
20826.000000,43126.000000,46125.000000,22875.000000
20812.000000,43060.000000,46132.000000,22882.000000
20837.000000,43057.000000,46139.000000,22870.000000
20848.000000,43056.000000,46140.000000,22857.000000
20854.000000,43041.000000,46122.000000,22861.000000
20825.000000,43075.000000,46124.000000,22862.000000
20880.000000,43067.000000,46122.000000,22856.000000
20879.000000,43074.000000,46137.000000,22858.000000
20898.000000,43085.000000,46173.000000,22851.000000
20933.000000,43117.000000,46125.000000,22847.000000
20885.000000,43114.000000,46158.000000,22857.000000
20931.000000,43123.000000,46179.000000,22879.000000
20944.000000,43167.000000,46182.000000,22862.000000
20949.000000,43120.000000,46181.000000,22872.000000
20967.000000,43172.000000,46193.000000,22856.000000
20969.000000,43177.000000,46180.000000,22913.000000
20972.000000,43203.000000,46184.000000,22871.000000
20991.000000,43235.000000,46208.000000,22874.000000
21009.000000,43206.000000,46213.000000,22887.000000
21003.000000,43266.000000,46268.000000,22891.000000
21029.000000,43254.000000,46231.000000,22909.000000
21088.000000,43284.000000,46231.000000,22910.000000
21092.000000,43306.000000,46281.000000,22900.000000
21127.000000,43284.000000,46270.000000,22909.000000
21116.000000,43360.000000,46315.000000,22915.000000
21168.000000,43360.000000,46311.000000,22924.000000
21202.000000,43431.000000,46321.000000,22922.000000
21221.000000,43441.000000,46345.000000,22947.000000
21264.000000,43444.000000,46358.000000,22921.000000
21259.000000,43538.000000,46404.000000,22948.000000
21294.000000,43542.000000,46403.000000,22985.000000
21350.000000,43582.000000,46454.000000,22973.000000
21405.000000,43620.000000,46458.000000,22977.000000
21447.000000,43651.000000,46479.000000,23008.000000
21440.000000,43723.000000,46545.000000,23025.000000
21535.000000,43784.000000,46554.000000,23023.000000
21579.000000,43877.000000,46582.000000,23032.000000
21651.000000,43890.000000,46630.000000,23062.000000
21710.000000,43977.000000,46695.000000,23090.000000
21757.000000,44040.000000,46697.000000,23107.000000
21836.000000,44064.000000,46747.000000,23138.000000
21840.000000,44164.000000,46758.000000,23130.000000
21898.000000,44167.000000,46789.000000,23155.000000
21915.000000,44209.000000,46799.000000,23141.000000
21916.000000,44224.000000,46807.000000,23120.000000
21927.000000,44237.000000,46841.000000,23143.000000
21900.000000,44202.000000,46792.000000,23175.000000
21902.000000,44175.000000,46828.000000,23135.000000
21906.000000,44188.000000,46792.000000,23133.000000
21889.000000,44213.000000,46783.000000,23130.000000
21877.000000,44152.000000,46777.000000,23126.000000
21857.000000,44211.000000,46786.000000,23142.000000
21859.000000,44179.000000,46771.000000,23155.000000
21823.000000,44125.000000,46772.000000,23105.000000
21836.000000,44170.000000,46760.000000,23109.000000
21810.000000,44116.000000,46741.000000,23120.000000
21807.000000,44089.000000,46758.000000,23110.000000
21823.000000,44073.000000,46750.000000,23128.000000
21784.000000,44077.000000,46713.000000,23117.000000
21739.000000,44044.000000,46715.000000,23101.000000
21744.000000,44033.000000,46709.000000,23101.000000
21727.000000,44021.000000,46711.000000,23088.000000
21770.000000,43998.000000,46693.000000,23078.000000
21708.000000,43994.000000,46707.000000,23083.000000
21716.000000,43972.000000,46661.000000,23077.000000
21694.000000,43959.000000,46668.000000,23102.000000
21704.000000,43974.000000,46670.000000,23091.000000
21701.000000,43951.000000,46655.000000,23059.000000
21689.000000,43938.000000,46651.000000,23061.000000
21675.000000,43923.000000,46640.000000,23085.000000
21657.000000,43918.000000,46648.000000,23074.000000
21659.000000,43887.000000,46614.000000,23062.000000
21626.000000,43921.000000,46620.000000,23068.000000
21600.000000,43878.000000,46621.000000,23046.000000
21621.000000,43875.000000,46644.000000,23051.000000
21585.000000,43854.000000,46618.000000,23049.000000
21587.000000,43843.000000,46575.000000,23070.000000
21595.000000,43844.000000,46592.000000,23063.000000
21568.000000,43817.000000,46577.000000,23046.000000
21549.000000,43802.000000,46569.000000,23031.000000
21538.000000,43773.000000,46569.000000,23025.000000
21536.000000,43777.000000,46573.000000,23044.000000
21509.000000,43734.000000,46562.000000,23060.000000
21514.000000,43746.000000,46536.000000,23045.000000
21448.000000,43707.000000,46549.000000,23023.000000
21487.000000,43711.000000,46523.000000,23017.000000
21449.000000,43695.000000,46482.000000,23015.000000
21463.000000,43651.000000,46500.000000,23027.000000
21434.000000,43654.000000,46496.000000,23019.000000
21416.000000,43624.000000,46497.000000,22998.000000
21427.000000,43606.000000,46476.000000,23004.000000
21402.000000,43634.000000,46435.000000,23002.000000
21385.000000,43593.000000,46460.000000,22987.000000
21382.000000,43601.000000,46440.000000,22983.000000
21368.000000,43575.000000,46444.000000,23000.000000
21355.000000,43564.000000,46410.000000,22967.000000
21336.000000,43523.000000,46418.000000,22984.000000
21351.000000,43534.000000,46421.000000,22966.000000
21323.000000,43515.000000,46428.000000,22979.000000
21315.000000,43465.000000,46393.000000,22978.000000
21291.000000,43502.000000,46407.000000,22979.000000
21288.000000,43465.000000,46396.000000,22974.000000
21265.000000,43468.000000,46358.000000,22984.000000
21224.000000,43441.000000,46343.000000,22959.000000
21242.000000,43423.000000,46342.000000,22947.000000
21223.000000,43392.000000,46364.000000,22939.000000
21266.000000,43364.000000,46328.000000,22938.000000
21201.000000,43410.000000,46349.000000,22953.000000
21207.000000,43367.000000,46336.000000,22946.000000
21160.000000,43387.000000,46306.000000,22954.000000
21189.000000,43337.000000,46334.000000,22952.000000
21198.000000,43371.000000,46319.000000,22953.000000
21156.000000,43326.000000,46322.000000,22928.000000
21170.000000,43312.000000,46304.000000,22903.000000
21140.000000,43356.000000,46323.000000,22930.000000
21147.000000,43318.000000,46277.000000,22941.000000
21103.000000,43308.000000,46287.000000,22922.000000
21118.000000,43301.000000,46286.000000,22928.000000
21132.000000,43301.000000,46275.000000,22912.000000
21135.000000,43307.000000,46304.000000,22918.000000
21113.000000,43279.000000,46271.000000,22936.000000
21100.000000,43305.000000,46283.000000,22884.000000
21107.000000,43273.000000,46264.000000,22929.000000
21105.000000,43300.000000,46272.000000,22908.000000
21124.000000,43261.000000,46271.000000,22929.000000
21092.000000,43253.000000,46283.000000,22904.000000
21089.000000,43272.000000,46262.000000,22919.000000
21086.000000,43211.000000,46247.000000,22889.000000
21064.000000,43242.000000,46234.000000,22893.000000
21080.000000,43192.000000,46234.000000,22900.000000
21058.000000,43180.000000,46254.000000,22876.000000
21019.000000,43204.000000,46225.000000,22935.000000
21022.000000,43178.000000,46224.000000,22886.000000
21027.000000,43205.000000,46217.000000,22879.000000
20984.000000,43152.000000,46238.000000,22897.000000
21020.000000,43133.000000,46182.000000,22867.000000
20965.000000,43127.000000,46219.000000,22896.000000
20986.000000,43125.000000,46181.000000,22872.000000
20979.000000,43119.000000,46145.000000,22873.000000
20964.000000,43096.000000,46169.000000,22874.000000
20980.000000,43098.000000,46156.000000,22869.000000
20974.000000,43103.000000,46176.000000,22867.000000
20953.000000,43073.000000,46169.000000,22872.000000
20956.000000,43080.000000,46155.000000,22883.000000
20987.000000,43081.000000,46172.000000,22865.000000
20986.000000,43115.000000,46168.000000,22852.000000
20934.000000,43096.000000,46192.000000,22866.000000
21010.000000,43135.000000,46166.000000,22855.000000
20972.000000,43112.000000,46154.000000,22871.000000
20999.000000,43124.000000,46189.000000,22855.000000
21006.000000,43126.000000,46200.000000,22877.000000
21026.000000,43159.000000,46215.000000,22872.000000
21017.000000,43128.000000,46218.000000,22869.000000
21027.000000,43153.000000,46246.000000,22857.000000
21075.000000,43172.000000,46221.000000,22891.000000
21042.000000,43202.000000,46239.000000,22898.000000
21086.000000,43207.000000,46244.000000,22880.000000
21106.000000,43245.000000,46257.000000,22887.000000
21096.000000,43221.000000,46250.000000,22874.000000
21131.000000,43248.000000,46296.000000,22897.000000
21135.000000,43312.000000,46295.000000,22916.000000
21197.000000,43300.000000,46297.000000,22913.000000
21193.000000,43357.000000,46307.000000,22911.000000
21239.000000,43324.000000,46321.000000,22955.000000
21255.000000,43372.000000,46338.000000,22928.000000
21259.000000,43401.000000,46370.000000,22915.000000
21324.000000,43405.000000,46331.000000,22949.000000
21297.000000,43465.000000,46369.000000,22977.000000
21347.000000,43492.000000,46396.000000,22973.000000
21365.000000,43532.000000,46431.000000,22955.000000
21376.000000,43579.000000,46465.000000,22975.000000
21456.000000,43551.000000,46436.000000,22999.000000
21470.000000,43632.000000,46478.000000,23014.000000
21517.000000,43681.000000,46520.000000,22993.000000
21584.000000,43748.000000,46541.000000,23016.000000
21593.000000,43781.000000,46577.000000,23050.000000
21667.000000,43802.000000,46607.000000,23035.000000
21709.000000,43912.000000,46645.000000,23074.000000
21763.000000,43951.000000,46670.000000,23060.000000
21824.000000,44015.000000,46703.000000,23086.000000
21867.000000,44091.000000,46762.000000,23111.000000
21916.000000,44119.000000,46763.000000,23116.000000
21915.000000,44205.000000,46792.000000,23131.000000
21932.000000,44198.000000,46801.000000,23132.000000
21998.000000,44219.000000,46828.000000,23127.000000
21999.000000,44217.000000,46860.000000,23145.000000
22022.000000,44228.000000,46832.000000,23131.000000
22015.000000,44256.000000,46835.000000,23162.000000
21982.000000,44220.000000,46847.000000,23149.000000
21987.000000,44193.000000,46841.000000,23164.000000
21968.000000,44198.000000,46844.000000,23166.000000
21963.000000,44176.000000,46818.000000,23134.000000
21948.000000,44175.000000,46831.000000,23124.000000
21916.000000,44138.000000,46783.000000,23106.000000
21936.000000,44145.000000,46785.000000,23132.000000
21913.000000,44154.000000,46791.000000,23149.000000
21909.000000,44115.000000,46781.000000,23126.000000
21878.000000,44098.000000,46801.000000,23122.000000
21901.000000,44079.000000,46754.000000,23124.000000
21855.000000,44088.000000,46767.000000,23095.000000
21848.000000,44047.000000,46769.000000,23119.000000
21866.000000,44044.000000,46745.000000,23115.000000
21820.000000,44059.000000,46742.000000,23105.000000
21847.000000,44044.000000,46705.000000,23092.000000
21789.000000,44014.000000,46727.000000,23104.000000
21780.000000,43956.000000,46710.000000,23091.000000
21756.000000,43987.000000,46698.000000,23093.000000
21777.000000,43956.000000,46671.000000,23108.000000
21778.000000,43919.000000,46671.000000,23056.000000
21737.000000,43900.000000,46673.000000,23097.000000
21725.000000,43929.000000,46681.000000,23080.000000
21711.000000,43929.000000,46670.000000,23073.000000
21722.000000,43897.000000,46647.000000,23079.000000
21686.000000,43883.000000,46650.000000,23062.000000
21698.000000,43880.000000,46636.000000,23058.000000
21716.000000,43899.000000,46650.000000,23049.000000
21695.000000,43837.000000,46638.000000,23071.000000
21657.000000,43844.000000,46657.000000,23059.000000
21651.000000,43816.000000,46630.000000,23064.000000
21613.000000,43818.000000,46601.000000,23047.000000
21620.000000,43810.000000,46591.000000,23055.000000
21617.000000,43774.000000,46592.000000,23049.000000
21598.000000,43768.000000,46578.000000,23041.000000
21615.000000,43758.000000,46560.000000,23036.000000
21569.000000,43754.000000,46592.000000,23018.000000
21552.000000,43719.000000,46593.000000,23027.000000
21555.000000,43729.000000,46569.000000,23040.000000
21553.000000,43677.000000,46569.000000,23035.000000
21552.000000,43695.000000,46551.000000,23040.000000
21502.000000,43663.000000,46519.000000,23018.000000
21539.000000,43653.000000,46499.000000,23037.000000
21505.000000,43635.000000,46503.000000,23000.000000
21485.000000,43610.000000,46544.000000,23036.000000
21464.000000,43618.000000,46484.000000,23017.000000
21426.000000,43600.000000,46484.000000,22993.000000
21466.000000,43574.000000,46480.000000,23000.000000
21431.000000,43551.000000,46484.000000,23022.000000
21432.000000,43555.000000,46462.000000,22999.000000
21384.000000,43558.000000,46486.000000,22984.000000
21392.000000,43561.000000,46451.000000,22967.000000
21386.000000,43518.000000,46446.000000,22978.000000
21369.000000,43506.000000,46447.000000,22996.000000
21391.000000,43491.000000,46412.000000,22966.000000
21345.000000,43499.000000,46405.000000,22956.000000
21363.000000,43443.000000,46393.000000,22968.000000
21332.000000,43475.000000,46380.000000,22966.000000
21344.000000,43441.000000,46385.000000,22963.000000
21297.000000,43427.000000,46389.000000,22947.000000
21292.000000,43381.000000,46378.000000,22963.000000
21273.000000,43407.000000,46375.000000,22961.000000
21262.000000,43397.000000,46381.000000,22939.000000
21263.000000,43385.000000,46344.000000,22949.000000
21271.000000,43353.000000,46356.000000,22936.000000
21261.000000,43364.000000,46343.000000,22939.000000
21236.000000,43362.000000,46338.000000,22943.000000
21239.000000,43321.000000,46369.000000,22942.000000
21258.000000,43310.000000,46346.000000,22956.000000
21220.000000,43331.000000,46328.000000,22927.000000
21214.000000,43319.000000,46332.000000,22914.000000
21232.000000,43341.000000,46342.000000,22929.000000
21193.000000,43297.000000,46352.000000,22928.000000
21226.000000,43314.000000,46321.000000,22942.000000
21208.000000,43305.000000,46306.000000,22921.000000
21208.000000,43298.000000,46319.000000,22932.000000
21229.000000,43315.000000,46326.000000,22907.000000
21216.000000,43302.000000,46324.000000,22924.000000
21211.000000,43332.000000,46310.000000,22927.000000
21195.000000,43295.000000,46323.000000,22921.000000
21201.000000,43284.000000,46315.000000,22913.000000
21198.000000,43305.000000,46325.000000,22910.000000
21189.000000,43279.000000,46315.000000,22922.000000
21184.000000,43299.000000,46288.000000,22925.000000
21189.000000,43269.000000,46298.000000,22924.000000
21182.000000,43262.000000,46295.000000,22903.000000
21151.000000,43238.000000,46271.000000,22936.000000
21164.000000,43211.000000,46257.000000,22897.000000
21128.000000,43218.000000,46274.000000,22905.000000
21107.000000,43200.000000,46257.000000,22909.000000
21086.000000,43212.000000,46265.000000,22855.000000
21093.000000,43203.000000,46249.000000,22899.000000
21107.000000,43180.000000,46257.000000,22880.000000
21063.000000,43159.000000,46253.000000,22867.000000
21133.000000,43190.000000,46255.000000,22883.000000
21092.000000,43175.000000,46233.000000,22891.000000
21102.000000,43184.000000,46253.000000,22895.000000
21071.000000,43166.000000,46236.000000,22846.000000
21097.000000,43151.000000,46243.000000,22899.000000
21121.000000,43199.000000,46265.000000,22890.000000
21111.000000,43197.000000,46280.000000,22880.000000
21151.000000,43200.000000,46241.000000,22866.000000
21151.000000,43236.000000,46289.000000,22877.000000
21177.000000,43231.000000,46270.000000,22901.000000
21194.000000,43243.000000,46279.000000,22886.000000
21180.000000,43244.000000,46301.000000,22894.000000
21199.000000,43278.000000,46301.000000,22885.000000
21234.000000,43286.000000,46318.000000,22894.000000
21250.000000,43277.000000,46320.000000,22918.000000
21259.000000,43333.000000,46329.000000,22912.000000
21287.000000,43310.000000,46355.000000,22929.000000
21303.000000,43349.000000,46341.000000,22915.000000
21312.000000,43384.000000,46367.000000,22946.000000
21328.000000,43393.000000,46392.000000,22917.000000
21337.000000,43438.000000,46391.000000,22949.000000
21394.000000,43455.000000,46359.000000,22930.000000
21397.000000,43494.000000,46422.000000,22929.000000
21425.000000,43510.000000,46444.000000,22971.000000
21439.000000,43556.000000,46450.000000,22984.000000
21485.000000,43565.000000,46466.000000,22959.000000
21545.000000,43621.000000,46497.000000,22988.000000
21525.000000,43631.000000,46545.000000,22989.000000
21600.000000,43681.000000,46523.000000,22974.000000
21597.000000,43710.000000,46573.000000,22992.000000
21657.000000,43749.000000,46591.000000,23014.000000
21729.000000,43841.000000,46603.000000,23018.000000
21744.000000,43903.000000,46686.000000,23046.000000
21781.000000,43948.000000,46684.000000,23032.000000
21825.000000,43973.000000,46719.000000,23072.000000
21934.000000,44040.000000,46730.000000,23075.000000
21964.000000,44098.000000,46756.000000,23104.000000
22023.000000,44176.000000,46836.000000,23123.000000
22102.000000,44234.000000,46841.000000,23126.000000
22146.000000,44318.000000,46918.000000,23171.000000
22200.000000,44377.000000,46939.000000,23179.000000
22236.000000,44432.000000,46993.000000,23187.000000
22247.000000,44488.000000,47003.000000,23191.000000
22295.000000,44481.000000,47014.000000,23189.000000
22309.000000,44498.000000,47020.000000,23203.000000
22316.000000,44538.000000,47039.000000,23199.000000
22296.000000,44508.000000,47027.000000,23232.000000
22332.000000,44479.000000,47025.000000,23231.000000
22294.000000,44502.000000,47044.000000,23232.000000
22303.000000,44512.000000,47031.000000,23195.000000
22245.000000,44466.000000,47021.000000,23239.000000
22258.000000,44471.000000,47005.000000,23214.000000
22262.000000,44500.000000,46983.000000,23170.000000
22215.000000,44440.000000,47005.000000,23188.000000
22228.000000,44449.000000,46976.000000,23161.000000
22202.000000,44402.000000,46997.000000,23187.000000
22198.000000,44395.000000,46947.000000,23171.000000
22175.000000,44385.000000,46964.000000,23179.000000
22163.000000,44378.000000,46930.000000,23155.000000
22147.000000,44378.000000,46961.000000,23169.000000
22132.000000,44320.000000,46950.000000,23179.000000
22158.000000,44298.000000,46917.000000,23150.000000
22108.000000,44298.000000,46907.000000,23146.000000
22101.000000,44274.000000,46879.000000,23146.000000
22107.000000,44259.000000,46890.000000,23138.000000
22083.000000,44260.000000,46894.000000,23145.000000
22088.000000,44235.000000,46867.000000,23127.000000
22108.000000,44254.000000,46885.000000,23156.000000
22037.000000,44210.000000,46871.000000,23131.000000
22037.000000,44200.000000,46859.000000,23151.000000
22041.000000,44179.000000,46857.000000,23144.000000
22035.000000,44161.000000,46853.000000,23153.000000
21996.000000,44185.000000,46838.000000,23129.000000
22020.000000,44145.000000,46842.000000,23131.000000
21967.000000,44145.000000,46842.000000,23128.000000
21958.000000,44137.000000,46788.000000,23120.000000
21957.000000,44101.000000,46770.000000,23101.000000
21955.000000,44106.000000,46801.000000,23100.000000
21938.000000,44064.000000,46759.000000,23104.000000
21932.000000,44113.000000,46787.000000,23089.000000
21907.000000,44059.000000,46769.000000,23094.000000
21911.000000,44046.000000,46755.000000,23078.000000
21883.000000,44050.000000,46747.000000,23103.000000
21870.000000,44013.000000,46750.000000,23093.000000
21868.000000,43989.000000,46745.000000,23088.000000
21827.000000,43988.000000,46741.000000,23065.000000
21846.000000,43972.000000,46707.000000,23066.000000
21830.000000,43982.000000,46696.000000,23069.000000
21805.000000,43934.000000,46705.000000,23072.000000
21810.000000,43934.000000,46694.000000,23057.000000
21771.000000,43948.000000,46700.000000,23076.000000
21768.000000,43905.000000,46672.000000,23075.000000
21779.000000,43905.000000,46656.000000,23067.000000
21768.000000,43865.000000,46677.000000,23075.000000
21710.000000,43831.000000,46647.000000,23034.000000
21675.000000,43830.000000,46645.000000,23039.000000
21715.000000,43808.000000,46644.000000,23038.000000
21694.000000,43802.000000,46622.000000,23008.000000
21703.000000,43744.000000,46599.000000,23045.000000
21679.000000,43773.000000,46579.000000,23019.000000
21646.000000,43762.000000,46599.000000,23033.000000
21645.000000,43700.000000,46578.000000,23021.000000
21590.000000,43739.000000,46557.000000,23035.000000
21594.000000,43694.000000,46556.000000,23015.000000
21603.000000,43681.000000,46548.000000,22987.000000
21555.000000,43682.000000,46549.000000,23000.000000
21574.000000,43638.000000,46538.000000,23016.000000
21565.000000,43691.000000,46529.000000,23032.000000
21578.000000,43619.000000,46507.000000,22989.000000
21560.000000,43652.000000,46540.000000,22976.000000
21527.000000,43613.000000,46530.000000,22982.000000
21541.000000,43615.000000,46496.000000,23000.000000
21518.000000,43613.000000,46506.000000,22998.000000
21505.000000,43591.000000,46463.000000,22986.000000
21486.000000,43574.000000,46500.000000,22967.000000
21504.000000,43558.000000,46517.000000,22970.000000
21510.000000,43572.000000,46493.000000,22973.000000
21485.000000,43572.000000,46511.000000,22962.000000
21495.000000,43556.000000,46474.000000,22946.000000
21490.000000,43568.000000,46465.000000,22976.000000
21464.000000,43556.000000,46486.000000,22975.000000
21457.000000,43551.000000,46463.000000,22943.000000
21440.000000,43568.000000,46458.000000,22948.000000
21478.000000,43530.000000,46471.000000,22973.000000
21430.000000,43548.000000,46463.000000,22951.000000
21435.000000,43534.000000,46455.000000,22964.000000
21464.000000,43511.000000,46421.000000,22954.000000
21430.000000,43486.000000,46454.000000,22955.000000
21462.000000,43476.000000,46420.000000,22963.000000
21414.000000,43478.000000,46447.000000,22968.000000
21411.000000,43481.000000,46407.000000,22953.000000
21404.000000,43484.000000,46404.000000,22929.000000
21379.000000,43423.000000,46393.000000,22950.000000
21376.000000,43468.000000,46373.000000,22937.000000
21367.000000,43442.000000,46382.000000,22927.000000
21363.000000,43429.000000,46387.000000,22912.000000
21326.000000,43426.000000,46391.000000,22948.000000
21340.000000,43388.000000,46378.000000,22945.000000
21324.000000,43387.000000,46370.000000,22934.000000
21294.000000,43354.000000,46330.000000,22909.000000
21281.000000,43350.000000,46342.000000,22920.000000
21259.000000,43350.000000,46379.000000,22898.000000
21256.000000,43330.000000,46337.000000,22907.000000
21237.000000,43285.000000,46326.000000,22928.000000
21285.000000,43290.000000,46288.000000,22888.000000
21271.000000,43336.000000,46330.000000,22912.000000
21292.000000,43316.000000,46340.000000,22922.000000
21251.000000,43315.000000,46342.000000,22910.000000
21292.000000,43330.000000,46325.000000,22922.000000
21285.000000,43347.000000,46319.000000,22907.000000
21314.000000,43345.000000,46329.000000,22919.000000
21307.000000,43359.000000,46364.000000,22908.000000
21257.000000,43393.000000,46361.000000,22923.000000
21315.000000,43351.000000,46326.000000,22907.000000
21310.000000,43397.000000,46347.000000,22910.000000
21308.000000,43391.000000,46351.000000,22932.000000
21325.000000,43397.000000,46368.000000,22910.000000
21331.000000,43393.000000,46368.000000,22908.000000
21341.000000,43412.000000,46344.000000,22941.000000
21334.000000,43444.000000,46376.000000,22929.000000
21399.000000,43446.000000,46412.000000,22931.000000
21408.000000,43511.000000,46408.000000,22971.000000
21416.000000,43541.000000,46459.000000,22972.000000
21431.000000,43501.000000,46411.000000,22963.000000
21453.000000,43542.000000,46453.000000,22954.000000
21478.000000,43541.000000,46420.000000,22965.000000
21475.000000,43594.000000,46463.000000,22964.000000
21497.000000,43590.000000,46506.000000,22991.000000
21530.000000,43664.000000,46490.000000,23000.000000
21534.000000,43687.000000,46497.000000,23012.000000
21589.000000,43675.000000,46519.000000,23014.000000
21589.000000,43763.000000,46522.000000,23003.000000
21646.000000,43791.000000,46586.000000,23040.000000
21660.000000,43825.000000,46571.000000,23043.000000
21703.000000,43875.000000,46625.000000,23064.000000
21761.000000,43932.000000,46648.000000,23061.000000
21771.000000,44002.000000,46709.000000,23080.000000
21852.000000,44030.000000,46712.000000,23105.000000
21895.000000,44115.000000,46758.000000,23126.000000
21939.000000,44183.000000,46757.000000,23121.000000
21986.000000,44202.000000,46830.000000,23148.000000
22054.000000,44282.000000,46825.000000,23174.000000
22109.000000,44360.000000,46867.000000,23179.000000
22106.000000,44372.000000,46886.000000,23183.000000
22105.000000,44406.000000,46915.000000,23198.000000
22140.000000,44423.000000,46893.000000,23209.000000
22159.000000,44423.000000,46924.000000,23217.000000
22124.000000,44427.000000,46921.000000,23191.000000
22131.000000,44390.000000,46901.000000,23202.000000
22098.000000,44403.000000,46888.000000,23182.000000
22080.000000,44384.000000,46893.000000,23210.000000
22089.000000,44399.000000,46872.000000,23185.000000
22087.000000,44370.000000,46875.000000,23199.000000
22052.000000,44358.000000,46878.000000,23175.000000
22037.000000,44344.000000,46868.000000,23178.000000
22003.000000,44317.000000,46866.000000,23179.000000
21993.000000,44291.000000,46835.000000,23190.000000
21999.000000,44285.000000,46841.000000,23191.000000
21978.000000,44291.000000,46852.000000,23172.000000
21980.000000,44236.000000,46820.000000,23161.000000
21925.000000,44258.000000,46801.000000,23157.000000
21946.000000,44186.000000,46780.000000,23151.000000
21932.000000,44198.000000,46796.000000,23162.000000
21928.000000,44215.000000,46768.000000,23169.000000
21891.000000,44201.000000,46774.000000,23137.000000
21890.000000,44142.000000,46768.000000,23160.000000
21899.000000,44155.000000,46768.000000,23132.000000
21859.000000,44121.000000,46759.000000,23153.000000
21864.000000,44120.000000,46737.000000,23112.000000
21861.000000,44121.000000,46747.000000,23132.000000
21841.000000,44099.000000,46724.000000,23147.000000
21831.000000,44114.000000,46738.000000,23142.000000
21818.000000,44085.000000,46721.000000,23103.000000
21820.000000,44076.000000,46682.000000,23114.000000
21816.000000,44044.000000,46690.000000,23127.000000
21817.000000,44073.000000,46715.000000,23118.000000
21822.000000,44030.000000,46706.000000,23128.000000
21786.000000,44044.000000,46703.000000,23113.000000
21768.000000,44024.000000,46705.000000,23118.000000
21772.000000,44024.000000,46664.000000,23102.000000
21757.000000,43989.000000,46678.000000,23103.000000
21776.000000,43980.000000,46668.000000,23111.000000
21718.000000,44011.000000,46652.000000,23072.000000
21758.000000,43952.000000,46664.000000,23092.000000
21703.000000,43975.000000,46647.000000,23079.000000
21704.000000,43954.000000,46640.000000,23077.000000
21727.000000,43945.000000,46639.000000,23093.000000
21709.000000,43913.000000,46624.000000,23066.000000
21693.000000,43920.000000,46632.000000,23086.000000
21676.000000,43890.000000,46623.000000,23061.000000
21643.000000,43857.000000,46604.000000,23087.000000
21645.000000,43874.000000,46587.000000,23060.000000
21639.000000,43849.000000,46581.000000,23067.000000
21620.000000,43870.000000,46580.000000,23055.000000
21619.000000,43822.000000,46581.000000,23044.000000
21616.000000,43810.000000,46590.000000,23056.000000
21591.000000,43792.000000,46595.000000,23048.000000
21603.000000,43768.000000,46541.000000,23043.000000
21574.000000,43790.000000,46538.000000,23041.000000
21604.000000,43726.000000,46537.000000,23037.000000
21560.000000,43772.000000,46515.000000,23041.000000
21550.000000,43743.000000,46512.000000,23023.000000
21562.000000,43726.000000,46535.000000,23020.000000
21521.000000,43684.000000,46536.000000,23048.000000
21544.000000,43696.000000,46505.000000,22997.000000
21531.000000,43671.000000,46523.000000,23010.000000
21486.000000,43721.000000,46487.000000,23023.000000
21473.000000,43655.000000,46487.000000,23003.000000
21524.000000,43667.000000,46470.000000,22990.000000
21462.000000,43664.000000,46484.000000,23008.000000
21514.000000,43642.000000,46465.000000,23015.000000
21474.000000,43624.000000,46500.000000,23005.000000
21496.000000,43588.000000,46467.000000,22991.000000
21471.000000,43639.000000,46467.000000,23011.000000
21445.000000,43585.000000,46465.000000,22986.000000
21431.000000,43640.000000,46436.000000,22981.000000
21444.000000,43555.000000,46452.000000,22975.000000
21420.000000,43603.000000,46449.000000,22977.000000
21435.000000,43589.000000,46439.000000,23007.000000
21431.000000,43591.000000,46446.000000,22970.000000
21447.000000,43575.000000,46447.000000,23000.000000
21425.000000,43593.000000,46440.000000,22969.000000
21411.000000,43531.000000,46459.000000,22979.000000
21429.000000,43560.000000,46437.000000,22985.000000
21424.000000,43568.000000,46456.000000,22979.000000
21409.000000,43566.000000,46420.000000,22998.000000
21405.000000,43577.000000,46448.000000,22971.000000
21409.000000,43524.000000,46405.000000,22956.000000
21406.000000,43569.000000,46405.000000,22980.000000
21389.000000,43549.000000,46400.000000,22952.000000
21360.000000,43548.000000,46403.000000,22958.000000
21380.000000,43541.000000,46396.000000,22958.000000
21363.000000,43509.000000,46402.000000,22960.000000
21312.000000,43512.000000,46408.000000,22970.000000
21360.000000,43491.000000,46397.000000,22958.000000
21327.000000,43456.000000,46385.000000,22961.000000
21308.000000,43437.000000,46366.000000,22957.000000
21291.000000,43460.000000,46356.000000,22941.000000
21296.000000,43396.000000,46331.000000,22945.000000
21274.000000,43412.000000,46351.000000,22925.000000
21283.000000,43398.000000,46321.000000,22951.000000
21247.000000,43390.000000,46323.000000,22933.000000
21246.000000,43359.000000,46305.000000,22934.000000
21243.000000,43390.000000,46282.000000,22930.000000
21240.000000,43368.000000,46314.000000,22923.000000
21234.000000,43333.000000,46337.000000,22923.000000
21216.000000,43369.000000,46320.000000,22915.000000
21233.000000,43324.000000,46300.000000,22918.000000
21179.000000,43352.000000,46310.000000,22919.000000
21253.000000,43325.000000,46300.000000,22897.000000
21179.000000,43376.000000,46263.000000,22915.000000
21223.000000,43367.000000,46290.000000,22937.000000
21232.000000,43382.000000,46290.000000,22916.000000
21216.000000,43387.000000,46299.000000,22931.000000
21249.000000,43413.000000,46296.000000,22913.000000
21201.000000,43414.000000,46314.000000,22913.000000
21233.000000,43408.000000,46309.000000,22944.000000
21235.000000,43447.000000,46330.000000,22952.000000
21267.000000,43427.000000,46324.000000,22948.000000
21280.000000,43470.000000,46318.000000,22955.000000
21286.000000,43455.000000,46329.000000,22949.000000
21272.000000,43482.000000,46337.000000,22928.000000
21284.000000,43490.000000,46339.000000,22975.000000
21317.000000,43478.000000,46360.000000,22961.000000
21331.000000,43502.000000,46371.000000,22951.000000
21323.000000,43510.000000,46339.000000,22977.000000
21379.000000,43559.000000,46385.000000,22969.000000
21368.000000,43585.000000,46398.000000,22979.000000
21377.000000,43611.000000,46416.000000,22984.000000
21407.000000,43656.000000,46429.000000,23000.000000
21455.000000,43693.000000,46455.000000,22997.000000
21482.000000,43726.000000,46465.000000,23022.000000
21525.000000,43777.000000,46480.000000,23062.000000
21607.000000,43840.000000,46546.000000,23064.000000
21673.000000,43902.000000,46580.000000,23073.000000
21677.000000,43991.000000,46625.000000,23076.000000
21794.000000,44059.000000,46662.000000,23141.000000
21794.000000,44160.000000,46703.000000,23139.000000
21868.000000,44204.000000,46729.000000,23146.000000
21933.000000,44299.000000,46758.000000,23151.000000
21987.000000,44322.000000,46798.000000,23175.000000
22012.000000,44364.000000,46830.000000,23202.000000
22024.000000,44376.000000,46864.000000,23192.000000
22054.000000,44414.000000,46852.000000,23183.000000
22072.000000,44420.000000,46849.000000,23225.000000
22055.000000,44442.000000,46850.000000,23209.000000
22034.000000,44430.000000,46879.000000,23213.000000
22028.000000,44412.000000,46844.000000,23225.000000
22035.000000,44423.000000,46829.000000,23211.000000
22024.000000,44369.000000,46830.000000,23231.000000
21980.000000,44376.000000,46822.000000,23199.000000
21952.000000,44358.000000,46817.000000,23191.000000
21957.000000,44331.000000,46788.000000,23227.000000
21944.000000,44322.000000,46782.000000,23179.000000
21928.000000,44287.000000,46786.000000,23200.000000
21896.000000,44268.000000,46736.000000,23174.000000
21876.000000,44266.000000,46751.000000,23177.000000
21867.000000,44214.000000,46732.000000,23188.000000
21864.000000,44243.000000,46703.000000,23165.000000
21832.000000,44184.000000,46712.000000,23168.000000
21827.000000,44166.000000,46695.000000,23167.000000
21796.000000,44163.000000,46688.000000,23146.000000
21773.000000,44140.000000,46687.000000,23158.000000
21745.000000,44127.000000,46638.000000,23131.000000
21703.000000,44061.000000,46626.000000,23148.000000
21701.000000,44059.000000,46647.000000,23105.000000
21697.000000,44055.000000,46652.000000,23166.000000
21640.000000,44051.000000,46634.000000,23143.000000
21616.000000,44043.000000,46593.000000,23110.000000
21635.000000,43954.000000,46605.000000,23104.000000
21599.000000,43965.000000,46576.000000,23088.000000
21612.000000,43968.000000,46577.000000,23125.000000
21592.000000,43979.000000,46535.000000,23095.000000
21529.000000,43884.000000,46530.000000,23113.000000
21514.000000,43901.000000,46535.000000,23102.000000
21473.000000,43878.000000,46518.000000,23091.000000
21524.000000,43854.000000,46496.000000,23079.000000
21462.000000,43866.000000,46452.000000,23077.000000
21467.000000,43826.000000,46500.000000,23090.000000
21448.000000,43788.000000,46459.000000,23088.000000
21404.000000,43778.000000,46463.000000,23061.000000
21418.000000,43752.000000,46449.000000,23047.000000
21356.000000,43716.000000,46418.000000,23063.000000
21343.000000,43700.000000,46389.000000,23060.000000
21338.000000,43686.000000,46404.000000,23052.000000
21308.000000,43659.000000,46373.000000,23041.000000
21317.000000,43642.000000,46357.000000,23039.000000
21271.000000,43619.000000,46349.000000,23012.000000
21242.000000,43609.000000,46349.000000,23040.000000
21228.000000,43586.000000,46323.000000,23023.000000
21233.000000,43531.000000,46310.000000,23010.000000
21171.000000,43554.000000,46274.000000,23010.000000
21135.000000,43514.000000,46291.000000,23014.000000
21138.000000,43527.000000,46276.000000,23016.000000
21112.000000,43456.000000,46265.000000,23012.000000
21072.000000,43444.000000,46238.000000,22995.000000
21071.000000,43434.000000,46241.000000,22976.000000
21055.000000,43388.000000,46218.000000,22981.000000
21018.000000,43385.000000,46168.000000,22977.000000
21018.000000,43350.000000,46165.000000,22969.000000
21003.000000,43327.000000,46179.000000,22964.000000
20976.000000,43293.000000,46171.000000,22968.000000
20931.000000,43265.000000,46160.000000,22973.000000
20942.000000,43313.000000,46116.000000,22956.000000
20911.000000,43252.000000,46124.000000,22949.000000
20902.000000,43260.000000,46084.000000,22962.000000
20881.000000,43222.000000,46123.000000,22946.000000
20864.000000,43213.000000,46106.000000,22930.000000
20866.000000,43222.000000,46091.000000,22929.000000
20831.000000,43169.000000,46076.000000,22944.000000
20805.000000,43167.000000,46069.000000,22939.000000
20815.000000,43133.000000,46050.000000,22918.000000
20809.000000,43140.000000,46034.000000,22936.000000
20793.000000,43121.000000,46052.000000,22927.000000
20751.000000,43108.000000,46046.000000,22923.000000
20709.000000,43103.000000,46020.000000,22913.000000
20733.000000,43070.000000,46019.000000,22926.000000
20724.000000,43090.000000,46024.000000,22901.000000
20715.000000,43060.000000,46023.000000,22908.000000
20736.000000,43032.000000,46020.000000,22918.000000
20713.000000,43087.000000,45989.000000,22906.000000
20715.000000,43043.000000,46017.000000,22924.000000
20700.000000,43054.000000,45986.000000,22914.000000
20708.000000,43033.000000,46006.000000,22899.000000
20719.000000,43025.000000,45994.000000,22876.000000
20676.000000,43028.000000,45961.000000,22899.000000
20711.000000,43029.000000,45993.000000,22891.000000
20694.000000,42983.000000,46006.000000,22908.000000
20697.000000,43029.000000,46020.000000,22891.000000
20704.000000,43029.000000,45992.000000,22893.000000
20682.000000,43029.000000,45984.000000,22903.000000
20682.000000,43006.000000,45978.000000,22913.000000
20676.000000,43012.000000,45973.000000,22895.000000
20668.000000,43018.000000,46009.000000,22897.000000
20700.000000,42980.000000,45982.000000,22876.000000
20672.000000,42979.000000,46009.000000,22899.000000
20732.000000,42966.000000,45991.000000,22886.000000
20657.000000,42993.000000,45958.000000,22903.000000
20663.000000,42977.000000,45976.000000,22892.000000
20678.000000,42953.000000,45995.000000,22880.000000
20662.000000,42960.000000,45980.000000,22867.000000
20661.000000,42947.000000,45959.000000,22874.000000
20659.000000,42938.000000,45976.000000,22853.000000
20661.000000,42904.000000,45970.000000,22892.000000
20663.000000,42957.000000,45945.000000,22878.000000
20642.000000,42915.000000,45962.000000,22891.000000
20671.000000,42942.000000,45988.000000,22865.000000
20649.000000,42970.000000,45973.000000,22880.000000
20711.000000,42956.000000,46016.000000,22871.000000
20694.000000,42999.000000,45991.000000,22871.000000
20725.000000,42964.000000,46011.000000,22894.000000
20764.000000,43018.000000,46031.000000,22882.000000
20755.000000,43045.000000,46013.000000,22873.000000
20792.000000,43040.000000,46035.000000,22913.000000
20810.000000,43061.000000,46039.000000,22883.000000
20824.000000,43086.000000,46074.000000,22901.000000
20855.000000,43095.000000,46055.000000,22907.000000
20879.000000,43087.000000,46104.000000,22891.000000
20902.000000,43149.000000,46101.000000,22921.000000
20939.000000,43170.000000,46086.000000,22912.000000
20907.000000,43165.000000,46113.000000,22921.000000
20959.000000,43187.000000,46143.000000,22950.000000
20947.000000,43216.000000,46160.000000,22931.000000
20998.000000,43249.000000,46148.000000,22945.000000
21001.000000,43281.000000,46156.000000,22946.000000
21016.000000,43272.000000,46193.000000,22964.000000
21048.000000,43295.000000,46210.000000,22952.000000
21073.000000,43343.000000,46245.000000,22952.000000
21109.000000,43360.000000,46248.000000,22956.000000
21160.000000,43406.000000,46240.000000,22963.000000
21181.000000,43435.000000,46311.000000,22983.000000
21231.000000,43505.000000,46298.000000,22981.000000
21278.000000,43531.000000,46359.000000,23011.000000
21279.000000,43584.000000,46339.000000,23025.000000
21365.000000,43642.000000,46372.000000,23069.000000
21432.000000,43694.000000,46412.000000,23053.000000
21441.000000,43769.000000,46494.000000,23052.000000
21541.000000,43843.000000,46503.000000,23109.000000
21595.000000,43918.000000,46560.000000,23117.000000
21667.000000,43999.000000,46600.000000,23131.000000
21764.000000,44062.000000,46639.000000,23123.000000
21820.000000,44163.000000,46717.000000,23161.000000
21893.000000,44206.000000,46744.000000,23194.000000
21957.000000,44288.000000,46762.000000,23194.000000
21971.000000,44326.000000,46813.000000,23226.000000
22017.000000,44378.000000,46840.000000,23223.000000
21997.000000,44378.000000,46847.000000,23245.000000
22068.000000,44372.000000,46882.000000,23242.000000
22036.000000,44427.000000,46850.000000,23266.000000
22077.000000,44419.000000,46862.000000,23259.000000
22029.000000,44412.000000,46843.000000,23251.000000
22060.000000,44370.000000,46877.000000,23256.000000
22035.000000,44414.000000,46827.000000,23229.000000
21996.000000,44375.000000,46861.000000,23224.000000
22022.000000,44379.000000,46820.000000,23234.000000
21983.000000,44367.000000,46822.000000,23232.000000
22025.000000,44348.000000,46812.000000,23209.000000
21939.000000,44313.000000,46803.000000,23214.000000
21937.000000,44331.000000,46799.000000,23199.000000
21949.000000,44316.000000,46786.000000,23236.000000
21923.000000,44286.000000,46776.000000,23202.000000
21924.000000,44245.000000,46778.000000,23202.000000
21861.000000,44258.000000,46761.000000,23214.000000
21882.000000,44235.000000,46748.000000,23208.000000
21874.000000,44244.000000,46732.000000,23196.000000
21871.000000,44202.000000,46740.000000,23207.000000
21856.000000,44198.000000,46751.000000,23205.000000
21816.000000,44225.000000,46711.000000,23174.000000
21812.000000,44161.000000,46728.000000,23201.000000
21803.000000,44144.000000,46689.000000,23165.000000
21802.000000,44151.000000,46725.000000,23204.000000
21808.000000,44128.000000,46708.000000,23160.000000
21767.000000,44137.000000,46697.000000,23164.000000
21786.000000,44120.000000,46675.000000,23153.000000
21728.000000,44142.000000,46683.000000,23168.000000
21763.000000,44086.000000,46683.000000,23140.000000
21746.000000,44061.000000,46676.000000,23162.000000
21711.000000,44070.000000,46673.000000,23138.000000
21756.000000,44078.000000,46658.000000,23154.000000
21727.000000,44089.000000,46658.000000,23182.000000
21718.000000,44025.000000,46675.000000,23120.000000
21760.000000,44040.000000,46653.000000,23153.000000
21748.000000,44019.000000,46665.000000,23139.000000
21729.000000,43998.000000,46641.000000,23135.000000
21738.000000,44015.000000,46675.000000,23117.000000
21738.000000,43987.000000,46655.000000,23146.000000
21752.000000,44041.000000,46650.000000,23110.000000
21730.000000,44039.000000,46678.000000,23148.000000
21730.000000,43979.000000,46646.000000,23127.000000
21721.000000,44010.000000,46654.000000,23128.000000
21753.000000,43978.000000,46664.000000,23137.000000
21757.000000,43981.000000,46675.000000,23095.000000
21742.000000,43963.000000,46676.000000,23097.000000
21758.000000,43938.000000,46640.000000,23115.000000
21728.000000,43983.000000,46644.000000,23099.000000
21772.000000,43940.000000,46636.000000,23119.000000
21772.000000,43933.000000,46630.000000,23083.000000
21740.000000,43935.000000,46647.000000,23101.000000
21767.000000,43905.000000,46632.000000,23089.000000
21729.000000,43900.000000,46639.000000,23096.000000
21739.000000,43913.000000,46623.000000,23076.000000
21727.000000,43913.000000,46631.000000,23077.000000
21708.000000,43875.000000,46614.000000,23088.000000
21701.000000,43878.000000,46588.000000,23079.000000
21705.000000,43829.000000,46607.000000,23078.000000
21704.000000,43808.000000,46583.000000,23069.000000
21663.000000,43800.000000,46578.000000,23066.000000
21640.000000,43778.000000,46590.000000,23075.000000
21626.000000,43799.000000,46597.000000,23036.000000
21636.000000,43780.000000,46550.000000,23048.000000
21632.000000,43786.000000,46547.000000,23054.000000
21593.000000,43739.000000,46537.000000,23017.000000
21587.000000,43720.000000,46526.000000,23017.000000
21565.000000,43740.000000,46549.000000,23055.000000
21559.000000,43685.000000,46501.000000,23067.000000
21548.000000,43695.000000,46503.000000,23038.000000
21507.000000,43680.000000,46510.000000,23030.000000
21517.000000,43661.000000,46466.000000,23013.000000
21512.000000,43664.000000,46491.000000,23023.000000
21477.000000,43617.000000,46477.000000,23021.000000
21492.000000,43642.000000,46465.000000,23023.000000
21475.000000,43620.000000,46475.000000,23004.000000
21516.000000,43598.000000,46448.000000,23019.000000
21459.000000,43606.000000,46453.000000,23006.000000
21451.000000,43592.000000,46449.000000,23013.000000
21484.000000,43578.000000,46447.000000,22978.000000
21447.000000,43572.000000,46461.000000,22989.000000
21448.000000,43575.000000,46407.000000,22988.000000
21443.000000,43557.000000,46441.000000,23015.000000
21448.000000,43534.000000,46403.000000,22992.000000
21433.000000,43565.000000,46440.000000,23016.000000
21398.000000,43541.000000,46453.000000,22995.000000
21423.000000,43543.000000,46413.000000,23002.000000
21403.000000,43550.000000,46409.000000,22996.000000
21400.000000,43525.000000,46395.000000,23015.000000
21432.000000,43499.000000,46402.000000,22994.000000
21364.000000,43505.000000,46435.000000,22999.000000
21380.000000,43481.000000,46378.000000,22994.000000
21372.000000,43503.000000,46379.000000,22964.000000
21360.000000,43462.000000,46376.000000,22996.000000
21354.000000,43455.000000,46378.000000,22981.000000
21302.000000,43450.000000,46367.000000,22962.000000
21323.000000,43403.000000,46347.000000,22946.000000
21260.000000,43425.000000,46343.000000,22946.000000
21291.000000,43401.000000,46319.000000,22971.000000
21267.000000,43374.000000,46344.000000,22935.000000
21281.000000,43355.000000,46337.000000,22961.000000
21266.000000,43372.000000,46305.000000,22960.000000
21238.000000,43373.000000,46303.000000,22958.000000
21247.000000,43356.000000,46303.000000,22954.000000
21227.000000,43357.000000,46310.000000,22953.000000
21215.000000,43310.000000,46300.000000,22928.000000
21231.000000,43324.000000,46296.000000,22946.000000
21193.000000,43318.000000,46305.000000,22934.000000
21231.000000,43309.000000,46298.000000,22928.000000
21205.000000,43369.000000,46295.000000,22940.000000
21234.000000,43343.000000,46284.000000,22961.000000
21209.000000,43367.000000,46289.000000,22941.000000
21210.000000,43359.000000,46309.000000,22938.000000
21271.000000,43378.000000,46307.000000,22960.000000
21212.000000,43379.000000,46293.000000,22954.000000
21242.000000,43337.000000,46287.000000,22963.000000
21259.000000,43419.000000,46321.000000,22944.000000
21239.000000,43380.000000,46327.000000,22964.000000
21296.000000,43412.000000,46323.000000,22966.000000
21312.000000,43451.000000,46339.000000,22967.000000
21302.000000,43423.000000,46326.000000,22989.000000
21336.000000,43469.000000,46378.000000,22981.000000
21332.000000,43464.000000,46381.000000,22991.000000
21383.000000,43482.000000,46378.000000,22972.000000
21360.000000,43526.000000,46410.000000,22978.000000
21380.000000,43519.000000,46413.000000,23003.000000
21422.000000,43589.000000,46415.000000,22981.000000
21435.000000,43595.000000,46436.000000,23019.000000
21455.000000,43646.000000,46447.000000,22999.000000
21478.000000,43664.000000,46455.000000,23022.000000
21517.000000,43706.000000,46479.000000,23025.000000
21549.000000,43766.000000,46513.000000,23064.000000
21609.000000,43793.000000,46531.000000,23036.000000
21623.000000,43846.000000,46591.000000,23053.000000
21688.000000,43885.000000,46601.000000,23076.000000
21723.000000,43922.000000,46616.000000,23082.000000
21779.000000,43982.000000,46646.000000,23096.000000
21833.000000,44073.000000,46692.000000,23141.000000
21895.000000,44157.000000,46763.000000,23131.000000
22002.000000,44206.000000,46775.000000,23140.000000
22046.000000,44328.000000,46830.000000,23181.000000
22122.000000,44387.000000,46878.000000,23226.000000
22190.000000,44467.000000,46930.000000,23205.000000
22211.000000,44504.000000,46932.000000,23241.000000
22257.000000,44542.000000,46984.000000,23248.000000
22266.000000,44592.000000,47005.000000,23253.000000
22306.000000,44571.000000,46993.000000,23248.000000
22258.000000,44597.000000,46997.000000,23258.000000
22295.000000,44601.000000,46995.000000,23295.000000
22301.000000,44634.000000,47002.000000,23254.000000
22256.000000,44621.000000,47011.000000,23285.000000
22275.000000,44555.000000,46990.000000,23269.000000
22236.000000,44589.000000,46982.000000,23267.000000
22236.000000,44560.000000,46988.000000,23249.000000
22210.000000,44547.000000,46968.000000,23239.000000
22180.000000,44535.000000,46967.000000,23253.000000
22187.000000,44508.000000,46944.000000,23246.000000
22165.000000,44461.000000,46958.000000,23257.000000
22167.000000,44452.000000,46922.000000,23252.000000
22143.000000,44442.000000,46941.000000,23242.000000
22121.000000,44417.000000,46904.000000,23239.000000
22097.000000,44385.000000,46883.000000,23243.000000
22077.000000,44378.000000,46888.000000,23225.000000
22057.000000,44390.000000,46885.000000,23209.000000
22048.000000,44330.000000,46883.000000,23209.000000
22033.000000,44328.000000,46855.000000,23216.000000
22025.000000,44330.000000,46833.000000,23235.000000
22034.000000,44311.000000,46837.000000,23203.000000
22017.000000,44302.000000,46846.000000,23193.000000
21978.000000,44301.000000,46861.000000,23186.000000
21961.000000,44248.000000,46818.000000,23213.000000
21974.000000,44274.000000,46813.000000,23184.000000
21942.000000,44221.000000,46785.000000,23218.000000
21921.000000,44220.000000,46776.000000,23193.000000
21912.000000,44221.000000,46798.000000,23177.000000
21912.000000,44171.000000,46788.000000,23186.000000
21862.000000,44196.000000,46740.000000,23179.000000
21863.000000,44138.000000,46726.000000,23161.000000
21842.000000,44152.000000,46746.000000,23165.000000
21856.000000,44121.000000,46753.000000,23169.000000
21834.000000,44089.000000,46729.000000,23159.000000
21801.000000,44129.000000,46701.000000,23158.000000
21815.000000,44053.000000,46697.000000,23139.000000
21812.000000,44104.000000,46671.000000,23160.000000
21775.000000,44043.000000,46718.000000,23125.000000
21770.000000,44030.000000,46688.000000,23117.000000
21742.000000,44004.000000,46660.000000,23130.000000
21742.000000,44035.000000,46679.000000,23140.000000
21720.000000,44017.000000,46662.000000,23119.000000
21737.000000,43973.000000,46659.000000,23141.000000
21675.000000,43968.000000,46617.000000,23107.000000
21658.000000,43942.000000,46625.000000,23132.000000
21659.000000,43951.000000,46614.000000,23099.000000
21637.000000,43895.000000,46597.000000,23118.000000
21642.000000,43893.000000,46579.000000,23103.000000
21618.000000,43882.000000,46586.000000,23066.000000
21565.000000,43847.000000,46581.000000,23110.000000
21568.000000,43839.000000,46561.000000,23074.000000
21542.000000,43794.000000,46555.000000,23088.000000
21571.000000,43772.000000,46555.000000,23068.000000
21507.000000,43732.000000,46529.000000,23070.000000
21507.000000,43738.000000,46520.000000,23075.000000
21513.000000,43748.000000,46487.000000,23055.000000
21439.000000,43716.000000,46522.000000,23052.000000
21468.000000,43694.000000,46476.000000,23079.000000
21429.000000,43697.000000,46456.000000,23060.000000
21430.000000,43665.000000,46460.000000,23067.000000
21423.000000,43635.000000,46475.000000,23035.000000
21388.000000,43621.000000,46436.000000,23054.000000
21350.000000,43614.000000,46443.000000,23027.000000
21351.000000,43594.000000,46449.000000,23035.000000
21394.000000,43544.000000,46420.000000,23027.000000
21324.000000,43584.000000,46423.000000,23010.000000
21306.000000,43558.000000,46402.000000,23023.000000
21339.000000,43570.000000,46375.000000,23028.000000
21295.000000,43525.000000,46395.000000,23021.000000
21292.000000,43490.000000,46379.000000,23007.000000
21261.000000,43495.000000,46396.000000,23024.000000
21283.000000,43480.000000,46354.000000,23008.000000
21235.000000,43455.000000,46335.000000,23003.000000
21236.000000,43487.000000,46350.000000,23015.000000
21246.000000,43520.000000,46341.000000,23002.000000
21229.000000,43449.000000,46326.000000,23003.000000
21213.000000,43460.000000,46306.000000,22984.000000
21194.000000,43418.000000,46328.000000,22998.000000
21204.000000,43417.000000,46313.000000,22994.000000
21173.000000,43441.000000,46302.000000,22982.000000
21192.000000,43419.000000,46304.000000,22992.000000
21174.000000,43437.000000,46302.000000,22994.000000
21171.000000,43386.000000,46303.000000,22976.000000
21177.000000,43388.000000,46291.000000,22975.000000
21136.000000,43359.000000,46302.000000,22984.000000
21155.000000,43379.000000,46285.000000,23008.000000
21119.000000,43377.000000,46297.000000,22998.000000
21132.000000,43369.000000,46278.000000,22975.000000
21107.000000,43351.000000,46303.000000,22945.000000
21111.000000,43350.000000,46265.000000,22993.000000
21111.000000,43345.000000,46272.000000,22954.000000
21125.000000,43317.000000,46287.000000,22976.000000
21093.000000,43319.000000,46272.000000,22964.000000
21070.000000,43310.000000,46271.000000,22956.000000
21076.000000,43262.000000,46227.000000,22960.000000
21064.000000,43272.000000,46244.000000,22933.000000
21053.000000,43260.000000,46213.000000,22938.000000
21026.000000,43258.000000,46214.000000,22941.000000
21033.000000,43234.000000,46198.000000,22934.000000
20999.000000,43244.000000,46203.000000,22938.000000
20983.000000,43215.000000,46215.000000,22929.000000
21013.000000,43225.000000,46220.000000,22944.000000
21021.000000,43209.000000,46195.000000,22942.000000
21028.000000,43202.000000,46199.000000,22924.000000
20982.000000,43179.000000,46206.000000,22913.000000
21003.000000,43198.000000,46174.000000,22941.000000
21002.000000,43206.000000,46209.000000,22924.000000
21012.000000,43208.000000,46206.000000,22932.000000
21012.000000,43258.000000,46201.000000,22942.000000
21018.000000,43248.000000,46202.000000,22938.000000
21035.000000,43256.000000,46236.000000,22949.000000
21079.000000,43229.000000,46212.000000,22948.000000
21096.000000,43288.000000,46211.000000,22946.000000
21079.000000,43279.000000,46251.000000,22944.000000
21110.000000,43321.000000,46269.000000,22961.000000
21111.000000,43359.000000,46261.000000,22966.000000
21111.000000,43351.000000,46254.000000,22964.000000
21127.000000,43376.000000,46271.000000,22949.000000
21164.000000,43385.000000,46304.000000,22954.000000
21191.000000,43427.000000,46287.000000,22971.000000
21203.000000,43442.000000,46337.000000,22989.000000
21231.000000,43441.000000,46336.000000,22979.000000
21268.000000,43479.000000,46336.000000,22961.000000
21283.000000,43490.000000,46327.000000,22996.000000
21275.000000,43528.000000,46343.000000,22981.000000
21343.000000,43567.000000,46396.000000,23010.000000
21344.000000,43571.000000,46383.000000,23002.000000
21363.000000,43599.000000,46433.000000,23023.000000
21402.000000,43630.000000,46458.000000,23023.000000
21467.000000,43694.000000,46458.000000,23016.000000
21489.000000,43746.000000,46508.000000,23047.000000
21538.000000,43774.000000,46523.000000,23070.000000
21570.000000,43802.000000,46550.000000,23066.000000
21651.000000,43925.000000,46595.000000,23088.000000
21670.000000,43956.000000,46637.000000,23096.000000
21765.000000,44014.000000,46679.000000,23085.000000
21813.000000,44128.000000,46720.000000,23141.000000
21891.000000,44168.000000,46785.000000,23162.000000
21964.000000,44274.000000,46822.000000,23200.000000
22033.000000,44350.000000,46856.000000,23219.000000
22127.000000,44398.000000,46906.000000,23228.000000
22136.000000,44476.000000,46968.000000,23235.000000
22205.000000,44514.000000,46953.000000,23277.000000
22210.000000,44549.000000,46990.000000,23263.000000
22194.000000,44582.000000,46974.000000,23273.000000
22233.000000,44596.000000,47015.000000,23277.000000
22228.000000,44613.000000,47003.000000,23286.000000
22247.000000,44620.000000,47029.000000,23281.000000
22206.000000,44579.000000,47008.000000,23263.000000
22235.000000,44568.000000,47016.000000,23264.000000
22173.000000,44559.000000,46990.000000,23235.000000
22209.000000,44528.000000,46985.000000,23272.000000
22172.000000,44546.000000,46964.000000,23271.000000
22192.000000,44554.000000,46959.000000,23244.000000
22161.000000,44511.000000,46938.000000,23260.000000
22184.000000,44478.000000,46960.000000,23257.000000
22152.000000,44475.000000,46958.000000,23282.000000
22092.000000,44466.000000,46968.000000,23246.000000
22143.000000,44457.000000,46895.000000,23238.000000
22068.000000,44439.000000,46915.000000,23249.000000
22099.000000,44380.000000,46903.000000,23232.000000
22073.000000,44397.000000,46880.000000,23231.000000
22054.000000,44398.000000,46878.000000,23214.000000
22053.000000,44379.000000,46896.000000,23224.000000
22036.000000,44363.000000,46872.000000,23228.000000
22059.000000,44342.000000,46874.000000,23193.000000
21992.000000,44351.000000,46857.000000,23218.000000
22009.000000,44312.000000,46817.000000,23187.000000
21986.000000,44320.000000,46840.000000,23224.000000
21964.000000,44257.000000,46842.000000,23219.000000
21987.000000,44298.000000,46821.000000,23193.000000
21949.000000,44295.000000,46817.000000,23190.000000
21980.000000,44255.000000,46831.000000,23194.000000
21941.000000,44242.000000,46811.000000,23192.000000
21936.000000,44248.000000,46795.000000,23196.000000
21887.000000,44234.000000,46801.000000,23181.000000
21931.000000,44188.000000,46785.000000,23160.000000
21897.000000,44234.000000,46795.000000,23170.000000
21913.000000,44181.000000,46815.000000,23181.000000
21874.000000,44176.000000,46762.000000,23184.000000
21887.000000,44187.000000,46775.000000,23171.000000
21885.000000,44179.000000,46738.000000,23149.000000
21826.000000,44131.000000,46758.000000,23183.000000
21869.000000,44117.000000,46734.000000,23141.000000
21821.000000,44089.000000,46752.000000,23144.000000
21812.000000,44093.000000,46722.000000,23156.000000
21796.000000,44117.000000,46724.000000,23142.000000
21780.000000,44033.000000,46718.000000,23143.000000
21780.000000,44034.000000,46679.000000,23131.000000
21721.000000,44033.000000,46709.000000,23139.000000
21751.000000,43999.000000,46660.000000,23132.000000
21734.000000,43996.000000,46652.000000,23112.000000
21722.000000,43952.000000,46669.000000,23118.000000
21707.000000,43977.000000,46647.000000,23089.000000
21690.000000,43971.000000,46638.000000,23113.000000
21698.000000,43942.000000,46636.000000,23077.000000
21648.000000,43934.000000,46623.000000,23075.000000
21648.000000,43888.000000,46589.000000,23086.000000
21609.000000,43879.000000,46627.000000,23100.000000
21627.000000,43858.000000,46566.000000,23094.000000
21608.000000,43862.000000,46590.000000,23057.000000
21577.000000,43810.000000,46587.000000,23071.000000
21585.000000,43802.000000,46537.000000,23049.000000
21556.000000,43794.000000,46590.000000,23072.000000
21550.000000,43783.000000,46538.000000,23036.000000
21490.000000,43798.000000,46546.000000,23054.000000
21550.000000,43756.000000,46536.000000,23056.000000
21519.000000,43770.000000,46548.000000,23050.000000
21510.000000,43744.000000,46519.000000,23051.000000
21513.000000,43746.000000,46493.000000,23048.000000
21460.000000,43707.000000,46487.000000,23044.000000
21495.000000,43706.000000,46498.000000,23046.000000
21461.000000,43686.000000,46494.000000,23041.000000
21459.000000,43655.000000,46504.000000,23036.000000
21440.000000,43629.000000,46513.000000,23019.000000
21434.000000,43668.000000,46487.000000,23034.000000
21416.000000,43635.000000,46484.000000,23013.000000
21408.000000,43617.000000,46474.000000,23031.000000
21434.000000,43655.000000,46457.000000,23029.000000
21396.000000,43608.000000,46471.000000,23026.000000
21411.000000,43608.000000,46446.000000,23003.000000
21351.000000,43569.000000,46442.000000,22996.000000
21415.000000,43597.000000,46444.000000,23022.000000
21370.000000,43610.000000,46468.000000,23014.000000
21377.000000,43553.000000,46439.000000,23004.000000
21327.000000,43594.000000,46448.000000,23016.000000
21353.000000,43545.000000,46398.000000,23010.000000
21327.000000,43596.000000,46426.000000,22997.000000
21313.000000,43524.000000,46415.000000,22998.000000
21314.000000,43558.000000,46408.000000,22986.000000
21332.000000,43536.000000,46409.000000,22995.000000
21325.000000,43512.000000,46396.000000,23000.000000
21304.000000,43508.000000,46426.000000,23011.000000
21307.000000,43512.000000,46385.000000,22979.000000
21282.000000,43503.000000,46371.000000,23004.000000
21308.000000,43459.000000,46383.000000,22998.000000
21253.000000,43498.000000,46362.000000,22986.000000
21284.000000,43457.000000,46369.000000,22983.000000
21281.000000,43456.000000,46347.000000,22972.000000
21255.000000,43424.000000,46357.000000,22975.000000
21231.000000,43452.000000,46348.000000,22973.000000
21219.000000,43418.000000,46325.000000,22979.000000
21214.000000,43429.000000,46299.000000,22952.000000
21177.000000,43373.000000,46315.000000,22967.000000
21173.000000,43375.000000,46297.000000,22962.000000
21174.000000,43375.000000,46319.000000,22944.000000
21176.000000,43347.000000,46324.000000,22958.000000
21152.000000,43370.000000,46310.000000,22954.000000
21182.000000,43337.000000,46288.000000,22967.000000
21149.000000,43332.000000,46309.000000,22946.000000
21166.000000,43349.000000,46300.000000,22955.000000
21169.000000,43362.000000,46296.000000,22976.000000
21159.000000,43350.000000,46316.000000,22973.000000
21191.000000,43369.000000,46319.000000,22985.000000
21178.000000,43387.000000,46335.000000,22972.000000
21203.000000,43381.000000,46306.000000,22960.000000
21204.000000,43425.000000,46359.000000,22968.000000
21235.000000,43385.000000,46325.000000,22951.000000
21222.000000,43436.000000,46342.000000,22950.000000
21259.000000,43424.000000,46344.000000,22974.000000
21273.000000,43478.000000,46361.000000,22976.000000
21282.000000,43458.000000,46364.000000,22978.000000
21304.000000,43504.000000,46349.000000,23010.000000
21313.000000,43509.000000,46407.000000,22981.000000
21345.000000,43554.000000,46388.000000,22995.000000
21348.000000,43523.000000,46449.000000,22982.000000
21392.000000,43572.000000,46419.000000,23028.000000
21397.000000,43584.000000,46479.000000,22990.000000
21438.000000,43613.000000,46451.000000,22997.000000
21464.000000,43658.000000,46465.000000,23005.000000
21469.000000,43686.000000,46509.000000,23042.000000
21524.000000,43744.000000,46503.000000,23028.000000
21529.000000,43773.000000,46568.000000,23044.000000
21590.000000,43785.000000,46556.000000,23045.000000
21629.000000,43864.000000,46629.000000,23059.000000
21697.000000,43902.000000,46647.000000,23085.000000
21727.000000,43997.000000,46698.000000,23066.000000
21774.000000,44040.000000,46689.000000,23140.000000
21878.000000,44133.000000,46729.000000,23129.000000
21898.000000,44178.000000,46786.000000,23139.000000
22000.000000,44271.000000,46816.000000,23177.000000
22093.000000,44366.000000,46890.000000,23195.000000
22138.000000,44407.000000,46935.000000,23213.000000
22227.000000,44519.000000,46994.000000,23223.000000
22274.000000,44571.000000,47033.000000,23276.000000
22295.000000,44629.000000,47040.000000,23258.000000
22363.000000,44663.000000,47056.000000,23304.000000
22323.000000,44706.000000,47079.000000,23305.000000
22374.000000,44739.000000,47104.000000,23289.000000
22387.000000,44717.000000,47088.000000,23277.000000
22377.000000,44719.000000,47057.000000,23284.000000
22376.000000,44705.000000,47134.000000,23288.000000
22333.000000,44695.000000,47110.000000,23294.000000
22372.000000,44673.000000,47080.000000,23284.000000
22345.000000,44665.000000,47091.000000,23297.000000
22360.000000,44688.000000,47091.000000,23270.000000
22321.000000,44633.000000,47105.000000,23301.000000
22336.000000,44647.000000,47051.000000,23273.000000
22313.000000,44666.000000,47065.000000,23287.000000
22309.000000,44621.000000,47060.000000,23275.000000
22284.000000,44616.000000,47047.000000,23250.000000
22304.000000,44590.000000,47017.000000,23271.000000
22291.000000,44557.000000,47027.000000,23252.000000
22264.000000,44600.000000,47010.000000,23250.000000
22261.000000,44553.000000,47002.000000,23255.000000
22213.000000,44562.000000,47005.000000,23235.000000
22228.000000,44546.000000,46991.000000,23225.000000
22235.000000,44512.000000,47010.000000,23248.000000
22219.000000,44533.000000,46994.000000,23252.000000
22201.000000,44494.000000,46993.000000,23227.000000
22145.000000,44470.000000,46951.000000,23209.000000
22174.000000,44497.000000,46967.000000,23198.000000
22184.000000,44454.000000,46983.000000,23226.000000
22177.000000,44459.000000,46973.000000,23220.000000
22143.000000,44434.000000,46941.000000,23225.000000
22188.000000,44419.000000,46933.000000,23247.000000
22155.000000,44387.000000,46962.000000,23207.000000
22137.000000,44405.000000,46919.000000,23206.000000
22110.000000,44394.000000,46970.000000,23180.000000
22157.000000,44402.000000,46941.000000,23201.000000
22132.000000,44375.000000,46931.000000,23221.000000
22135.000000,44353.000000,46922.000000,23194.000000
22132.000000,44378.000000,46892.000000,23187.000000
22105.000000,44332.000000,46899.000000,23211.000000
22111.000000,44353.000000,46892.000000,23195.000000
22101.000000,44334.000000,46919.000000,23196.000000
22104.000000,44325.000000,46901.000000,23197.000000
22080.000000,44328.000000,46926.000000,23198.000000
22097.000000,44296.000000,46901.000000,23190.000000
22050.000000,44280.000000,46886.000000,23156.000000
22064.000000,44289.000000,46856.000000,23173.000000
22057.000000,44263.000000,46879.000000,23158.000000
22080.000000,44279.000000,46888.000000,23169.000000
22049.000000,44204.000000,46863.000000,23135.000000
21982.000000,44230.000000,46825.000000,23144.000000
22049.000000,44203.000000,46827.000000,23152.000000
21982.000000,44180.000000,46855.000000,23165.000000
21995.000000,44167.000000,46839.000000,23152.000000
21962.000000,44180.000000,46813.000000,23155.000000
21936.000000,44149.000000,46807.000000,23137.000000
21940.000000,44133.000000,46788.000000,23125.000000
21932.000000,44095.000000,46806.000000,23126.000000
21931.000000,44085.000000,46755.000000,23119.000000
21903.000000,44063.000000,46810.000000,23137.000000
21895.000000,44065.000000,46777.000000,23074.000000
21828.000000,44057.000000,46767.000000,23127.000000
21851.000000,44010.000000,46707.000000,23118.000000
21807.000000,44005.000000,46765.000000,23097.000000
21843.000000,43992.000000,46722.000000,23100.000000
21793.000000,44011.000000,46693.000000,23083.000000
21807.000000,43983.000000,46692.000000,23110.000000
21791.000000,43996.000000,46709.000000,23090.000000
21785.000000,43926.000000,46685.000000,23085.000000
21797.000000,43955.000000,46690.000000,23073.000000
21758.000000,43938.000000,46685.000000,23081.000000
21758.000000,43917.000000,46680.000000,23053.000000
21734.000000,43882.000000,46680.000000,23051.000000
21725.000000,43878.000000,46647.000000,23072.000000
21704.000000,43877.000000,46675.000000,23047.000000
21711.000000,43844.000000,46641.000000,23068.000000
21670.000000,43855.000000,46639.000000,23056.000000
21680.000000,43827.000000,46621.000000,23059.000000
21672.000000,43829.000000,46637.000000,23034.000000
21710.000000,43834.000000,46617.000000,23056.000000
21661.000000,43840.000000,46610.000000,23050.000000
21699.000000,43815.000000,46609.000000,23046.000000
21667.000000,43823.000000,46647.000000,23026.000000
21647.000000,43782.000000,46613.000000,23030.000000
21692.000000,43813.000000,46600.000000,23035.000000
21653.000000,43778.000000,46605.000000,23042.000000
21670.000000,43787.000000,46588.000000,23048.000000
21634.000000,43803.000000,46598.000000,23029.000000
21645.000000,43761.000000,46558.000000,23041.000000
21645.000000,43792.000000,46590.000000,23021.000000
21624.000000,43746.000000,46540.000000,23043.000000
21630.000000,43750.000000,46569.000000,23038.000000
21608.000000,43709.000000,46552.000000,23043.000000
21553.000000,43721.000000,46539.000000,23031.000000
21544.000000,43655.000000,46561.000000,23015.000000
21601.000000,43681.000000,46550.000000,23014.000000
21509.000000,43700.000000,46536.000000,23015.000000
21533.000000,43637.000000,46550.000000,23011.000000
21524.000000,43671.000000,46531.000000,23013.000000
21531.000000,43629.000000,46519.000000,23002.000000
21502.000000,43652.000000,46496.000000,23023.000000
21491.000000,43608.000000,46511.000000,23004.000000
21518.000000,43604.000000,46518.000000,23002.000000
21462.000000,43593.000000,46490.000000,22984.000000
21487.000000,43589.000000,46482.000000,23015.000000
21448.000000,43582.000000,46488.000000,22991.000000
21468.000000,43566.000000,46511.000000,23001.000000
21467.000000,43573.000000,46494.000000,22952.000000
21480.000000,43577.000000,46488.000000,22993.000000
21466.000000,43572.000000,46473.000000,22992.000000
21483.000000,43585.000000,46482.000000,22965.000000
21494.000000,43606.000000,46490.000000,22994.000000
21496.000000,43588.000000,46488.000000,23010.000000
21492.000000,43614.000000,46485.000000,22989.000000
21490.000000,43640.000000,46528.000000,23001.000000
21537.000000,43604.000000,46509.000000,23022.000000
21518.000000,43640.000000,46517.000000,22999.000000
21546.000000,43645.000000,46552.000000,23006.000000
21553.000000,43686.000000,46528.000000,23019.000000
21583.000000,43660.000000,46515.000000,23030.000000
21569.000000,43708.000000,46538.000000,23015.000000
21600.000000,43713.000000,46562.000000,23038.000000
21597.000000,43717.000000,46560.000000,23007.000000
21642.000000,43747.000000,46617.000000,23022.000000
21649.000000,43756.000000,46578.000000,23038.000000
21651.000000,43789.000000,46601.000000,23044.000000
21716.000000,43813.000000,46622.000000,23068.000000
21712.000000,43873.000000,46621.000000,23043.000000
21741.000000,43863.000000,46663.000000,23069.000000
21783.000000,43926.000000,46650.000000,23054.000000
21812.000000,43941.000000,46688.000000,23080.000000
21852.000000,43997.000000,46733.000000,23103.000000
21869.000000,44019.000000,46730.000000,23112.000000
21917.000000,44054.000000,46768.000000,23123.000000
21969.000000,44110.000000,46816.000000,23113.000000
22030.000000,44216.000000,46842.000000,23177.000000
22109.000000,44245.000000,46846.000000,23137.000000
22152.000000,44341.000000,46922.000000,23187.000000
22249.000000,44427.000000,46985.000000,23209.000000
22308.000000,44497.000000,47030.000000,23227.000000
22389.000000,44583.000000,47041.000000,23239.000000
22438.000000,44652.000000,47130.000000,23258.000000
22496.000000,44731.000000,47153.000000,23258.000000
22532.000000,44752.000000,47176.000000,23307.000000
22571.000000,44834.000000,47195.000000,23295.000000
22581.000000,44867.000000,47228.000000,23310.000000
22628.000000,44852.000000,47226.000000,23335.000000
22597.000000,44893.000000,47225.000000,23329.000000
22620.000000,44850.000000,47225.000000,23361.000000
22636.000000,44899.000000,47212.000000,23336.000000
22608.000000,44851.000000,47213.000000,23342.000000
22579.000000,44879.000000,47232.000000,23299.000000
22570.000000,44817.000000,47206.000000,23311.000000
22593.000000,44809.000000,47209.000000,23338.000000
22574.000000,44823.000000,47212.000000,23316.000000
22562.000000,44784.000000,47171.000000,23321.000000
22520.000000,44782.000000,47184.000000,23318.000000
22512.000000,44760.000000,47150.000000,23303.000000
22494.000000,44736.000000,47161.000000,23286.000000
22497.000000,44716.000000,47144.000000,23292.000000
22475.000000,44700.000000,47126.000000,23304.000000
22490.000000,44688.000000,47134.000000,23308.000000
22452.000000,44686.000000,47122.000000,23276.000000
22427.000000,44633.000000,47122.000000,23278.000000
22434.000000,44646.000000,47099.000000,23288.000000
22448.000000,44617.000000,47116.000000,23294.000000
22416.000000,44610.000000,47097.000000,23266.000000
22371.000000,44572.000000,47075.000000,23262.000000
22361.000000,44556.000000,47066.000000,23255.000000
22374.000000,44571.000000,47048.000000,23244.000000
22357.000000,44538.000000,47046.000000,23253.000000
22352.000000,44530.000000,47031.000000,23246.000000
22320.000000,44525.000000,47039.000000,23251.000000
22295.000000,44477.000000,47031.000000,23230.000000
22295.000000,44475.000000,47035.000000,23232.000000
22300.000000,44469.000000,47032.000000,23237.000000
22276.000000,44456.000000,47005.000000,23246.000000
22271.000000,44439.000000,46991.000000,23241.000000
22268.000000,44449.000000,47009.000000,23232.000000
22263.000000,44418.000000,46968.000000,23218.000000
22190.000000,44406.000000,46969.000000,23223.000000
22188.000000,44409.000000,46956.000000,23211.000000
22205.000000,44393.000000,46937.000000,23231.000000
22162.000000,44347.000000,46932.000000,23222.000000
22193.000000,44357.000000,46929.000000,23188.000000
22134.000000,44290.000000,46945.000000,23211.000000
22150.000000,44325.000000,46916.000000,23185.000000
22132.000000,44273.000000,46919.000000,23205.000000
22120.000000,44268.000000,46907.000000,23189.000000
22098.000000,44256.000000,46885.000000,23165.000000
22079.000000,44233.000000,46902.000000,23185.000000
22031.000000,44217.000000,46878.000000,23173.000000
22033.000000,44152.000000,46827.000000,23150.000000
22042.000000,44192.000000,46843.000000,23156.000000
22019.000000,44198.000000,46836.000000,23161.000000
22020.000000,44154.000000,46807.000000,23174.000000
21936.000000,44100.000000,46796.000000,23159.000000
21974.000000,44111.000000,46809.000000,23137.000000
21949.000000,44062.000000,46776.000000,23134.000000
21925.000000,44039.000000,46775.000000,23144.000000
21926.000000,44023.000000,46778.000000,23130.000000
21907.000000,43999.000000,46740.000000,23115.000000
21868.000000,43996.000000,46782.000000,23130.000000
21867.000000,44004.000000,46741.000000,23100.000000
21827.000000,43954.000000,46732.000000,23126.000000
21853.000000,43963.000000,46687.000000,23113.000000
21815.000000,43945.000000,46719.000000,23106.000000
21796.000000,43919.000000,46682.000000,23098.000000
21768.000000,43896.000000,46638.000000,23070.000000
21755.000000,43899.000000,46664.000000,23069.000000
21755.000000,43846.000000,46643.000000,23071.000000
21745.000000,43854.000000,46641.000000,23077.000000
21731.000000,43808.000000,46635.000000,23071.000000
21725.000000,43818.000000,46608.000000,23074.000000
21722.000000,43819.000000,46626.000000,23076.000000
21676.000000,43784.000000,46622.000000,23054.000000
21666.000000,43760.000000,46589.000000,23066.000000
21671.000000,43796.000000,46604.000000,23044.000000
21661.000000,43737.000000,46586.000000,23078.000000
21613.000000,43761.000000,46609.000000,23048.000000
21621.000000,43703.000000,46564.000000,23045.000000
21613.000000,43734.000000,46571.000000,23036.000000
21629.000000,43722.000000,46584.000000,23044.000000
21592.000000,43677.000000,46582.000000,23046.000000
21591.000000,43677.000000,46537.000000,23037.000000
21582.000000,43680.000000,46545.000000,23039.000000
21567.000000,43667.000000,46550.000000,23057.000000
21606.000000,43629.000000,46554.000000,23030.000000
21561.000000,43641.000000,46532.000000,23030.000000
21540.000000,43638.000000,46535.000000,23042.000000
21566.000000,43652.000000,46523.000000,23051.000000
21533.000000,43637.000000,46545.000000,23038.000000
21595.000000,43630.000000,46541.000000,23033.000000
21554.000000,43653.000000,46528.000000,23023.000000
21530.000000,43634.000000,46522.000000,23046.000000
21552.000000,43614.000000,46505.000000,23019.000000
21532.000000,43607.000000,46485.000000,23010.000000
21524.000000,43599.000000,46493.000000,23027.000000
21522.000000,43564.000000,46477.000000,23014.000000
21505.000000,43594.000000,46466.000000,23006.000000
21513.000000,43546.000000,46477.000000,23010.000000
21491.000000,43522.000000,46485.000000,23021.000000
21481.000000,43501.000000,46424.000000,23021.000000
21476.000000,43514.000000,46449.000000,23010.000000
21460.000000,43487.000000,46449.000000,22997.000000
21468.000000,43491.000000,46456.000000,22997.000000
21463.000000,43478.000000,46431.000000,23001.000000
21407.000000,43473.000000,46434.000000,22987.000000
21449.000000,43462.000000,46414.000000,22957.000000
21420.000000,43424.000000,46415.000000,22977.000000
21406.000000,43450.000000,46402.000000,22977.000000
21395.000000,43428.000000,46417.000000,22991.000000
21422.000000,43455.000000,46419.000000,22989.000000
21419.000000,43443.000000,46444.000000,22973.000000
21425.000000,43473.000000,46396.000000,22993.000000
21434.000000,43434.000000,46450.000000,22996.000000
21448.000000,43477.000000,46445.000000,22973.000000
21452.000000,43467.000000,46466.000000,22987.000000
21467.000000,43493.000000,46447.000000,22996.000000
21476.000000,43520.000000,46466.000000,22990.000000
21520.000000,43538.000000,46454.000000,23006.000000
21505.000000,43553.000000,46487.000000,22974.000000
21498.000000,43552.000000,46486.000000,23034.000000
21535.000000,43565.000000,46477.000000,23014.000000
21552.000000,43564.000000,46506.000000,22997.000000
21549.000000,43596.000000,46496.000000,23007.000000
21589.000000,43585.000000,46492.000000,23001.000000
21576.000000,43657.000000,46537.000000,23006.000000
21608.000000,43644.000000,46547.000000,23026.000000
21643.000000,43680.000000,46539.000000,23012.000000
21670.000000,43703.000000,46592.000000,23024.000000
21698.000000,43701.000000,46580.000000,23049.000000
21698.000000,43743.000000,46628.000000,23030.000000
21714.000000,43758.000000,46617.000000,23054.000000
21775.000000,43860.000000,46651.000000,23071.000000
21789.000000,43863.000000,46649.000000,23087.000000
21827.000000,43903.000000,46654.000000,23064.000000
21878.000000,43915.000000,46684.000000,23086.000000
21885.000000,43966.000000,46715.000000,23092.000000
21948.000000,44001.000000,46769.000000,23101.000000
22011.000000,44072.000000,46769.000000,23117.000000
22020.000000,44113.000000,46839.000000,23157.000000
22093.000000,44158.000000,46849.000000,23151.000000
22158.000000,44239.000000,46903.000000,23142.000000
22219.000000,44322.000000,46931.000000,23208.000000
22271.000000,44429.000000,46984.000000,23212.000000
22388.000000,44504.000000,47006.000000,23222.000000
22440.000000,44576.000000,47072.000000,23247.000000
22479.000000,44627.000000,47117.000000,23276.000000
22548.000000,44703.000000,47137.000000,23284.000000
22529.000000,44726.000000,47160.000000,23295.000000
22629.000000,44779.000000,47178.000000,23305.000000
22617.000000,44773.000000,47223.000000,23307.000000
22634.000000,44813.000000,47216.000000,23332.000000
22617.000000,44805.000000,47210.000000,23344.000000
22631.000000,44806.000000,47203.000000,23342.000000
22593.000000,44796.000000,47200.000000,23311.000000
22582.000000,44762.000000,47163.000000,23302.000000
22571.000000,44763.000000,47183.000000,23310.000000
22576.000000,44707.000000,47205.000000,23318.000000
22551.000000,44702.000000,47156.000000,23308.000000
22522.000000,44734.000000,47163.000000,23291.000000
22520.000000,44691.000000,47154.000000,23306.000000
22483.000000,44695.000000,47162.000000,23307.000000
22485.000000,44649.000000,47142.000000,23266.000000
22478.000000,44668.000000,47098.000000,23295.000000
22454.000000,44598.000000,47086.000000,23289.000000
22435.000000,44608.000000,47071.000000,23270.000000
22429.000000,44586.000000,47104.000000,23258.000000
22417.000000,44573.000000,47091.000000,23291.000000
22422.000000,44556.000000,47095.000000,23260.000000
22425.000000,44543.000000,47085.000000,23266.000000
22385.000000,44536.000000,47038.000000,23236.000000
22374.000000,44494.000000,47045.000000,23253.000000
22361.000000,44497.000000,47054.000000,23278.000000
22339.000000,44479.000000,47044.000000,23256.000000
22322.000000,44464.000000,47021.000000,23238.000000
22305.000000,44460.000000,47024.000000,23243.000000
22334.000000,44447.000000,47021.000000,23236.000000
22272.000000,44464.000000,46998.000000,23241.000000
22283.000000,44422.000000,46993.000000,23229.000000
22252.000000,44432.000000,46978.000000,23225.000000
22261.000000,44398.000000,46965.000000,23217.000000
22253.000000,44433.000000,46983.000000,23223.000000
22228.000000,44350.000000,46953.000000,23229.000000
22231.000000,44363.000000,46949.000000,23235.000000
22176.000000,44327.000000,46941.000000,23204.000000
22205.000000,44305.000000,46957.000000,23188.000000
22175.000000,44272.000000,46949.000000,23192.000000
22166.000000,44275.000000,46903.000000,23217.000000
22096.000000,44265.000000,46873.000000,23184.000000
22107.000000,44221.000000,46877.000000,23175.000000
22127.000000,44246.000000,46888.000000,23177.000000
22112.000000,44203.000000,46882.000000,23175.000000
22069.000000,44197.000000,46862.000000,23160.000000
22077.000000,44177.000000,46872.000000,23153.000000
22079.000000,44190.000000,46864.000000,23178.000000
22023.000000,44153.000000,46852.000000,23152.000000
22047.000000,44152.000000,46825.000000,23166.000000
22006.000000,44123.000000,46821.000000,23175.000000
21990.000000,44068.000000,46782.000000,23148.000000
21970.000000,44065.000000,46796.000000,23141.000000
21976.000000,44060.000000,46773.000000,23145.000000
21932.000000,44037.000000,46771.000000,23110.000000
21926.000000,44001.000000,46746.000000,23146.000000
21893.000000,44028.000000,46737.000000,23120.000000
21914.000000,43991.000000,46752.000000,23143.000000
21933.000000,43984.000000,46727.000000,23113.000000
21870.000000,43948.000000,46736.000000,23112.000000
21884.000000,43946.000000,46699.000000,23107.000000
21841.000000,43919.000000,46709.000000,23083.000000
21819.000000,43887.000000,46708.000000,23093.000000
21827.000000,43871.000000,46726.000000,23089.000000
21819.000000,43872.000000,46672.000000,23107.000000
21772.000000,43861.000000,46677.000000,23075.000000
21796.000000,43840.000000,46664.000000,23089.000000
21739.000000,43843.000000,46659.000000,23084.000000
21732.000000,43817.000000,46638.000000,23078.000000
21723.000000,43813.000000,46625.000000,23063.000000
21683.000000,43763.000000,46620.000000,23082.000000
21701.000000,43778.000000,46630.000000,23060.000000
21683.000000,43762.000000,46616.000000,23060.000000
21720.000000,43753.000000,46603.000000,23059.000000
21653.000000,43745.000000,46606.000000,23059.000000
21688.000000,43716.000000,46595.000000,23065.000000
21659.000000,43731.000000,46593.000000,23040.000000
21657.000000,43707.000000,46562.000000,23048.000000
21675.000000,43718.000000,46563.000000,23039.000000
21596.000000,43679.000000,46575.000000,23072.000000
21671.000000,43712.000000,46569.000000,23035.000000
21614.000000,43659.000000,46566.000000,23042.000000
21601.000000,43655.000000,46550.000000,23041.000000
21585.000000,43666.000000,46529.000000,23053.000000
21627.000000,43643.000000,46560.000000,23060.000000
21590.000000,43674.000000,46542.000000,23043.000000
21597.000000,43635.000000,46561.000000,23021.000000
21602.000000,43641.000000,46529.000000,23017.000000
21553.000000,43627.000000,46536.000000,23049.000000
21581.000000,43627.000000,46531.000000,23041.000000
21545.000000,43617.000000,46543.000000,23021.000000
21598.000000,43580.000000,46521.000000,22990.000000
21532.000000,43629.000000,46504.000000,23052.000000
21553.000000,43592.000000,46505.000000,23019.000000
21513.000000,43592.000000,46512.000000,23020.000000
21534.000000,43564.000000,46479.000000,23022.000000
21533.000000,43563.000000,46495.000000,22982.000000
21475.000000,43562.000000,46486.000000,23014.000000
21519.000000,43529.000000,46501.000000,22999.000000
21474.000000,43512.000000,46461.000000,22988.000000
21479.000000,43526.000000,46450.000000,23014.000000
21469.000000,43501.000000,46476.000000,22983.000000
21453.000000,43497.000000,46448.000000,22987.000000
21438.000000,43522.000000,46418.000000,22988.000000
21437.000000,43472.000000,46448.000000,23003.000000
21470.000000,43516.000000,46431.000000,22981.000000
21437.000000,43474.000000,46449.000000,23009.000000
21443.000000,43446.000000,46426.000000,22977.000000
21448.000000,43449.000000,46436.000000,22991.000000
21434.000000,43477.000000,46424.000000,22987.000000
21446.000000,43462.000000,46426.000000,22972.000000
21429.000000,43483.000000,46452.000000,22998.000000
21435.000000,43499.000000,46449.000000,22979.000000
21462.000000,43489.000000,46445.000000,22990.000000
21471.000000,43522.000000,46451.000000,22991.000000
21476.000000,43522.000000,46505.000000,22992.000000
21514.000000,43521.000000,46465.000000,23009.000000
21504.000000,43578.000000,46482.000000,22995.000000
21493.000000,43565.000000,46483.000000,23010.000000
21518.000000,43574.000000,46492.000000,22993.000000
21542.000000,43612.000000,46517.000000,23035.000000
21572.000000,43615.000000,46512.000000,23012.000000
21547.000000,43675.000000,46554.000000,23015.000000
21605.000000,43668.000000,46541.000000,23024.000000
21620.000000,43689.000000,46559.000000,23028.000000
21652.000000,43721.000000,46570.000000,23024.000000
21666.000000,43712.000000,46578.000000,23039.000000
21661.000000,43752.000000,46583.000000,23042.000000
21745.000000,43756.000000,46588.000000,23033.000000
21733.000000,43825.000000,46612.000000,23073.000000
21767.000000,43834.000000,46650.000000,23080.000000
21781.000000,43877.000000,46655.000000,23073.000000
21786.000000,43903.000000,46682.000000,23081.000000
21856.000000,43930.000000,46706.000000,23101.000000
21878.000000,44012.000000,46748.000000,23113.000000
21942.000000,44029.000000,46740.000000,23123.000000
21977.000000,44079.000000,46810.000000,23144.000000
22022.000000,44141.000000,46817.000000,23139.000000
22089.000000,44221.000000,46862.000000,23163.000000
22139.000000,44306.000000,46895.000000,23193.000000
22233.000000,44338.000000,46942.000000,23200.000000
22285.000000,44439.000000,47001.000000,23233.000000
22333.000000,44495.000000,47012.000000,23232.000000
22416.000000,44565.000000,47071.000000,23276.000000
22468.000000,44597.000000,47116.000000,23269.000000
22524.000000,44656.000000,47114.000000,23281.000000
22533.000000,44697.000000,47145.000000,23287.000000
22569.000000,44745.000000,47172.000000,23313.000000
22563.000000,44762.000000,47176.000000,23309.000000
22531.000000,44764.000000,47176.000000,23305.000000
22578.000000,44793.000000,47161.000000,23323.000000
22538.000000,44759.000000,47186.000000,23292.000000
22574.000000,44720.000000,47146.000000,23287.000000
22523.000000,44757.000000,47152.000000,23299.000000
22507.000000,44722.000000,47151.000000,23286.000000
22513.000000,44712.000000,47124.000000,23288.000000
22488.000000,44673.000000,47134.000000,23292.000000
22519.000000,44675.000000,47145.000000,23306.000000
22466.000000,44648.000000,47106.000000,23298.000000
22467.000000,44629.000000,47105.000000,23279.000000
22442.000000,44634.000000,47111.000000,23280.000000
22446.000000,44586.000000,47091.000000,23261.000000
22438.000000,44562.000000,47072.000000,23281.000000
22405.000000,44555.000000,47065.000000,23270.000000
22400.000000,44547.000000,47040.000000,23271.000000
22347.000000,44519.000000,47074.000000,23254.000000
22392.000000,44527.000000,47034.000000,23265.000000
22326.000000,44513.000000,47035.000000,23254.000000
22338.000000,44495.000000,47026.000000,23242.000000
22335.000000,44489.000000,47001.000000,23247.000000
22295.000000,44497.000000,47012.000000,23228.000000
22307.000000,44429.000000,46999.000000,23233.000000
22289.000000,44454.000000,47001.000000,23233.000000
22251.000000,44431.000000,46992.000000,23218.000000
22282.000000,44439.000000,46953.000000,23251.000000
22276.000000,44423.000000,46974.000000,23248.000000
22230.000000,44399.000000,46989.000000,23219.000000
22205.000000,44385.000000,46945.000000,23240.000000
22228.000000,44368.000000,46957.000000,23189.000000
22196.000000,44329.000000,46932.000000,23203.000000
22197.000000,44327.000000,46919.000000,23188.000000
22188.000000,44319.000000,46939.000000,23212.000000
22185.000000,44293.000000,46895.000000,23195.000000
22152.000000,44314.000000,46896.000000,23220.000000
22137.000000,44256.000000,46901.000000,23211.000000
22143.000000,44278.000000,46896.000000,23203.000000
22099.000000,44241.000000,46919.000000,23181.000000
22131.000000,44238.000000,46883.000000,23179.000000
22084.000000,44214.000000,46852.000000,23181.000000
22084.000000,44221.000000,46863.000000,23163.000000
22068.000000,44169.000000,46843.000000,23170.000000
22069.000000,44150.000000,46813.000000,23168.000000
22029.000000,44149.000000,46824.000000,23150.000000
22048.000000,44133.000000,46806.000000,23175.000000
22022.000000,44140.000000,46799.000000,23154.000000
21991.000000,44103.000000,46788.000000,23136.000000
21988.000000,44107.000000,46782.000000,23143.000000
21981.000000,44045.000000,46766.000000,23158.000000
21948.000000,44043.000000,46788.000000,23147.000000
21921.000000,44067.000000,46785.000000,23134.000000
21923.000000,44032.000000,46762.000000,23132.000000
21878.000000,44010.000000,46760.000000,23121.000000
21903.000000,44001.000000,46724.000000,23130.000000
21857.000000,43977.000000,46741.000000,23130.000000
21886.000000,43938.000000,46715.000000,23124.000000
21831.000000,43960.000000,46715.000000,23119.000000
21866.000000,43948.000000,46675.000000,23117.000000
21810.000000,43925.000000,46694.000000,23095.000000
21819.000000,43909.000000,46699.000000,23106.000000
21831.000000,43917.000000,46681.000000,23099.000000
21786.000000,43890.000000,46673.000000,23102.000000
21787.000000,43877.000000,46669.000000,23103.000000
21785.000000,43889.000000,46679.000000,23093.000000
21788.000000,43840.000000,46645.000000,23089.000000
21747.000000,43838.000000,46668.000000,23079.000000
21764.000000,43816.000000,46635.000000,23084.000000
21737.000000,43789.000000,46638.000000,23063.000000
21730.000000,43822.000000,46623.000000,23078.000000
21705.000000,43793.000000,46645.000000,23061.000000
21725.000000,43804.000000,46612.000000,23058.000000
21709.000000,43802.000000,46591.000000,23041.000000
21695.000000,43762.000000,46594.000000,23063.000000
21702.000000,43745.000000,46612.000000,23046.000000
21686.000000,43743.000000,46610.000000,23069.000000
21695.000000,43772.000000,46613.000000,23049.000000
21701.000000,43749.000000,46591.000000,23052.000000
21694.000000,43727.000000,46583.000000,23060.000000
21670.000000,43710.000000,46593.000000,23046.000000
21692.000000,43732.000000,46574.000000,23048.000000
21653.000000,43742.000000,46597.000000,23028.000000
21652.000000,43718.000000,46564.000000,23070.000000
21648.000000,43710.000000,46579.000000,23036.000000
21642.000000,43677.000000,46551.000000,23045.000000
21647.000000,43669.000000,46565.000000,23047.000000
21630.000000,43672.000000,46551.000000,23032.000000
21623.000000,43673.000000,46550.000000,23023.000000
21611.000000,43672.000000,46551.000000,23044.000000
21621.000000,43662.000000,46540.000000,23003.000000
21573.000000,43624.000000,46537.000000,23031.000000
21553.000000,43625.000000,46551.000000,23029.000000
21568.000000,43597.000000,46566.000000,23030.000000
21579.000000,43583.000000,46505.000000,23034.000000
21518.000000,43594.000000,46485.000000,23013.000000
21536.000000,43584.000000,46494.000000,23009.000000
21526.000000,43568.000000,46505.000000,22986.000000
21492.000000,43567.000000,46493.000000,22999.000000
21480.000000,43519.000000,46474.000000,23004.000000
21470.000000,43511.000000,46466.000000,22990.000000
21541.000000,43525.000000,46469.000000,23014.000000
21487.000000,43559.000000,46470.000000,23002.000000
21492.000000,43561.000000,46448.000000,22986.000000
21517.000000,43527.000000,46484.000000,22980.000000
21505.000000,43544.000000,46498.000000,23014.000000
21527.000000,43556.000000,46489.000000,22991.000000
21526.000000,43573.000000,46502.000000,22986.000000
21534.000000,43584.000000,46497.000000,23007.000000
21530.000000,43637.000000,46509.000000,22988.000000
21531.000000,43571.000000,46519.000000,23017.000000
21592.000000,43586.000000,46515.000000,22974.000000
21568.000000,43605.000000,46506.000000,22993.000000
21599.000000,43610.000000,46532.000000,23009.000000
21600.000000,43645.000000,46540.000000,23019.000000
21602.000000,43672.000000,46550.000000,23014.000000
21629.000000,43699.000000,46540.000000,23013.000000
21625.000000,43677.000000,46562.000000,23036.000000
21687.000000,43706.000000,46567.000000,23034.000000
21662.000000,43730.000000,46570.000000,23033.000000
21672.000000,43732.000000,46571.000000,23043.000000
21702.000000,43779.000000,46581.000000,23018.000000
21732.000000,43763.000000,46593.000000,23059.000000
21749.000000,43796.000000,46611.000000,23049.000000
21766.000000,43851.000000,46646.000000,23028.000000
21809.000000,43853.000000,46629.000000,23063.000000
21807.000000,43905.000000,46676.000000,23060.000000
21851.000000,43888.000000,46690.000000,23086.000000
21869.000000,43942.000000,46737.000000,23123.000000
21905.000000,44029.000000,46733.000000,23107.000000
21962.000000,44053.000000,46755.000000,23117.000000
21977.000000,44084.000000,46761.000000,23117.000000
22070.000000,44164.000000,46819.000000,23146.000000
22101.000000,44219.000000,46871.000000,23159.000000
22168.000000,44289.000000,46905.000000,23158.000000
22208.000000,44347.000000,46918.000000,23187.000000
22298.000000,44440.000000,46996.000000,23213.000000
22357.000000,44481.000000,47034.000000,23204.000000
22429.000000,44589.000000,47045.000000,23259.000000
22448.000000,44625.000000,47094.000000,23259.000000
22499.000000,44662.000000,47128.000000,23285.000000
22478.000000,44708.000000,47133.000000,23294.000000
22485.000000,44690.000000,47139.000000,23307.000000
22546.000000,44749.000000,47130.000000,23287.000000
22540.000000,44715.000000,47171.000000,23302.000000
22551.000000,44724.000000,47130.000000,23277.000000
22547.000000,44716.000000,47140.000000,23303.000000
22500.000000,44666.000000,47154.000000,23300.000000
22483.000000,44686.000000,47115.000000,23306.000000
22452.000000,44701.000000,47124.000000,23281.000000
22459.000000,44630.000000,47102.000000,23288.000000
22447.000000,44657.000000,47095.000000,23298.000000
22422.000000,44604.000000,47078.000000,23285.000000
22416.000000,44621.000000,47071.000000,23297.000000
22389.000000,44594.000000,47068.000000,23284.000000
22354.000000,44623.000000,47049.000000,23265.000000
22332.000000,44521.000000,47054.000000,23260.000000
22344.000000,44519.000000,47035.000000,23262.000000
22310.000000,44479.000000,47050.000000,23229.000000
22290.000000,44482.000000,47005.000000,23247.000000
22265.000000,44486.000000,46999.000000,23233.000000
22241.000000,44467.000000,46980.000000,23246.000000
22242.000000,44449.000000,46984.000000,23232.000000
22201.000000,44404.000000,46965.000000,23226.000000
22222.000000,44404.000000,46942.000000,23248.000000
22182.000000,44387.000000,46932.000000,23209.000000
22171.000000,44358.000000,46949.000000,23234.000000
22135.000000,44388.000000,46928.000000,23224.000000
22144.000000,44337.000000,46912.000000,23201.000000
22137.000000,44346.000000,46917.000000,23225.000000
22105.000000,44313.000000,46890.000000,23214.000000
22109.000000,44301.000000,46896.000000,23184.000000
22076.000000,44275.000000,46881.000000,23200.000000
22086.000000,44261.000000,46859.000000,23196.000000
22052.000000,44264.000000,46878.000000,23206.000000
22045.000000,44248.000000,46853.000000,23204.000000
22026.000000,44230.000000,46859.000000,23183.000000
22037.000000,44216.000000,46866.000000,23204.000000
22008.000000,44237.000000,46861.000000,23199.000000
21999.000000,44177.000000,46795.000000,23193.000000
22029.000000,44166.000000,46809.000000,23174.000000
21970.000000,44131.000000,46803.000000,23170.000000
21958.000000,44135.000000,46791.000000,23154.000000
21941.000000,44129.000000,46778.000000,23153.000000
21910.000000,44124.000000,46765.000000,23137.000000
21909.000000,44138.000000,46772.000000,23136.000000
21901.000000,44074.000000,46771.000000,23120.000000
21884.000000,44084.000000,46730.000000,23139.000000
21858.000000,44032.000000,46750.000000,23130.000000
21852.000000,44054.000000,46759.000000,23136.000000
21865.000000,44008.000000,46750.000000,23147.000000
21823.000000,44030.000000,46717.000000,23131.000000
21792.000000,44011.000000,46735.000000,23104.000000
21813.000000,43978.000000,46689.000000,23135.000000
21789.000000,43995.000000,46677.000000,23100.000000
21764.000000,43943.000000,46700.000000,23129.000000
21749.000000,43942.000000,46687.000000,23098.000000
21731.000000,43907.000000,46655.000000,23083.000000
21752.000000,43912.000000,46678.000000,23088.000000
21738.000000,43875.000000,46678.000000,23100.000000
21731.000000,43868.000000,46660.000000,23110.000000
21656.000000,43880.000000,46640.000000,23070.000000
21697.000000,43847.000000,46611.000000,23097.000000
21700.000000,43854.000000,46643.000000,23070.000000
21699.000000,43832.000000,46624.000000,23073.000000
21669.000000,43801.000000,46595.000000,23062.000000
