660nm,730nm,850nm,940nm
26479.000000,47054.000000,48601.000000,20466.000000
26476.000000,47033.000000,48554.000000,20464.000000
26446.000000,47082.000000,48560.000000,20440.000000
26479.000000,47038.000000,48561.000000,20453.000000
26461.000000,47058.000000,48565.000000,20464.000000
26462.000000,47016.000000,48563.000000,20458.000000
26439.000000,47032.000000,48562.000000,20443.000000
26433.000000,47002.000000,48560.000000,20456.000000
26414.000000,47025.000000,48541.000000,20433.000000
26409.000000,46977.000000,48580.000000,20433.000000
26399.000000,46958.000000,48557.000000,20447.000000
26397.000000,47011.000000,48531.000000,20425.000000
26402.000000,46992.000000,48535.000000,20441.000000
26427.000000,46991.000000,48552.000000,20441.000000
26396.000000,46940.000000,48543.000000,20430.000000
26387.000000,46951.000000,48553.000000,20404.000000
26365.000000,46955.000000,48518.000000,20414.000000
26348.000000,46940.000000,48509.000000,20426.000000
26360.000000,46985.000000,48522.000000,20399.000000
26325.000000,46926.000000,48508.000000,20398.000000
26359.000000,46953.000000,48498.000000,20422.000000
26322.000000,46924.000000,48521.000000,20426.000000
26332.000000,46899.000000,48474.000000,20444.000000
26308.000000,46884.000000,48500.000000,20410.000000
26326.000000,46889.000000,48487.000000,20413.000000
26269.000000,46899.000000,48498.000000,20410.000000
26295.000000,46863.000000,48454.000000,20403.000000
26255.000000,46833.000000,48502.000000,20405.000000
26268.000000,46815.000000,48462.000000,20402.000000
26271.000000,46821.000000,48455.000000,20414.000000
26242.000000,46824.000000,48478.000000,20376.000000
26255.000000,46837.000000,48460.000000,20419.000000
26241.000000,46774.000000,48456.000000,20387.000000
26238.000000,46794.000000,48446.000000,20380.000000
26235.000000,46756.000000,48474.000000,20377.000000
26239.000000,46774.000000,48422.000000,20409.000000
26206.000000,46745.000000,48431.000000,20377.000000
26205.000000,46767.000000,48418.000000,20361.000000
26171.000000,46743.000000,48436.000000,20378.000000
26221.000000,46755.000000,48408.000000,20385.000000
26200.000000,46773.000000,48389.000000,20389.000000
26146.000000,46736.000000,48396.000000,20382.000000
26168.000000,46726.000000,48414.000000,20353.000000
26172.000000,46725.000000,48389.000000,20396.000000
26158.000000,46719.000000,48412.000000,20359.000000
26105.000000,46667.000000,48404.000000,20383.000000
26177.000000,46702.000000,48380.000000,20386.000000
26108.000000,46694.000000,48419.000000,20369.000000
26147.000000,46667.000000,48374.000000,20361.000000
26104.000000,46684.000000,48388.000000,20367.000000
26152.000000,46649.000000,48380.000000,20389.000000
26115.000000,46676.000000,48369.000000,20356.000000
26107.000000,46631.000000,48373.000000,20357.000000
26103.000000,46667.000000,48368.000000,20359.000000
26119.000000,46625.000000,48372.000000,20391.000000
26112.000000,46630.000000,48354.000000,20375.000000
26104.000000,46586.000000,48365.000000,20388.000000
26161.000000,46612.000000,48355.000000,20381.000000
26095.000000,46596.000000,48346.000000,20379.000000
26121.000000,46590.000000,48336.000000,20382.000000
26055.000000,46558.000000,48345.000000,20371.000000
26076.000000,46557.000000,48309.000000,20368.000000
26100.000000,46571.000000,48328.000000,20358.000000
26064.000000,46514.000000,48304.000000,20387.000000
26059.000000,46572.000000,48313.000000,20359.000000
26061.000000,46518.000000,48341.000000,20363.000000
26043.000000,46559.000000,48316.000000,20357.000000
26045.000000,46515.000000,48294.000000,20376.000000
26027.000000,46517.000000,48280.000000,20365.000000
25984.000000,46472.000000,48283.000000,20340.000000
26013.000000,46489.000000,48305.000000,20328.000000
25987.000000,46427.000000,48289.000000,20344.000000
25986.000000,46467.000000,48242.000000,20337.000000
25974.000000,46405.000000,48266.000000,20333.000000
25988.000000,46416.000000,48242.000000,20322.000000
25920.000000,46366.000000,48256.000000,20321.000000
25944.000000,46419.000000,48247.000000,20348.000000
25932.000000,46365.000000,48255.000000,20305.000000
25919.000000,46376.000000,48211.000000,20350.000000
25901.000000,46368.000000,48207.000000,20309.000000
25907.000000,46316.000000,48223.000000,20343.000000
25900.000000,46355.000000,48214.000000,20325.000000
25856.000000,46315.000000,48189.000000,20341.000000
25863.000000,46314.000000,48160.000000,20316.000000
25865.000000,46247.000000,48202.000000,20317.000000
25870.000000,46296.000000,48165.000000,20310.000000
25859.000000,46283.000000,48182.000000,20295.000000
25874.000000,46261.000000,48161.000000,20316.000000
25821.000000,46273.000000,48178.000000,20298.000000
25812.000000,46237.000000,48169.000000,20338.000000
25814.000000,46242.000000,48188.000000,20335.000000
25810.000000,46217.000000,48160.000000,20318.000000
25819.000000,46234.000000,48126.000000,20313.000000
25800.000000,46219.000000,48152.000000,20320.000000
25821.000000,46238.000000,48138.000000,20293.000000
25810.000000,46251.000000,48155.000000,20316.000000
25796.000000,46211.000000,48146.000000,20299.000000
25775.000000,46216.000000,48156.000000,20304.000000
25800.000000,46193.000000,48144.000000,20280.000000
25787.000000,46205.000000,48145.000000,20285.000000
25789.000000,46169.000000,48118.000000,20300.000000
25781.000000,46180.000000,48152.000000,20279.000000
25811.000000,46185.000000,48140.000000,20292.000000
25802.000000,46188.000000,48152.000000,20297.000000
25808.000000,46255.000000,48163.000000,20315.000000
25792.000000,46231.000000,48128.000000,20299.000000
25820.000000,46230.000000,48154.000000,20310.000000
25812.000000,46252.000000,48145.000000,20306.000000
25826.000000,46256.000000,48154.000000,20316.000000
25832.000000,46267.000000,48144.000000,20314.000000
25874.000000,46260.000000,48170.000000,20327.000000
25863.000000,46290.000000,48186.000000,20302.000000
25875.000000,46324.000000,48206.000000,20312.000000
25896.000000,46329.000000,48209.000000,20295.000000
25898.000000,46332.000000,48216.000000,20323.000000
25938.000000,46397.000000,48213.000000,20313.000000
25985.000000,46405.000000,48238.000000,20337.000000
26014.000000,46440.000000,48243.000000,20322.000000
25993.000000,46453.000000,48314.000000,20350.000000
26096.000000,46520.000000,48301.000000,20337.000000
26092.000000,46541.000000,48326.000000,20330.000000
26101.000000,46586.000000,48343.000000,20347.000000
26135.000000,46620.000000,48368.000000,20357.000000
26203.000000,46638.000000,48387.000000,20376.000000
26187.000000,46689.000000,48401.000000,20359.000000
26242.000000,46728.000000,48405.000000,20370.000000
26289.000000,46751.000000,48440.000000,20370.000000
26328.000000,46769.000000,48474.000000,20389.000000
26357.000000,46834.000000,48486.000000,20383.000000
26364.000000,46859.000000,48506.000000,20392.000000
26435.000000,46885.000000,48523.000000,20402.000000
26417.000000,46937.000000,48558.000000,20417.000000
26487.000000,46962.000000,48554.000000,20411.000000
26541.000000,47041.000000,48589.000000,20405.000000
26546.000000,47025.000000,48602.000000,20414.000000
26590.000000,47098.000000,48643.000000,20450.000000
26618.000000,47121.000000,48677.000000,20452.000000
26683.000000,47158.000000,48665.000000,20440.000000
26667.000000,47190.000000,48726.000000,20453.000000
26713.000000,47203.000000,48716.000000,20454.000000
26740.000000,47258.000000,48760.000000,20445.000000
26790.000000,47290.000000,48767.000000,20479.000000
26789.000000,47382.000000,48796.000000,20462.000000
26840.000000,47394.000000,48811.000000,20484.000000
26918.000000,47436.000000,48823.000000,20468.000000
26947.000000,47494.000000,48880.000000,20490.000000
26992.000000,47554.000000,48889.000000,20495.000000
27010.000000,47595.000000,48953.000000,20476.000000
27091.000000,47663.000000,48961.000000,20492.000000
27107.000000,47738.000000,49011.000000,20526.000000
27200.000000,47774.000000,49038.000000,20535.000000
27221.000000,47835.000000,49059.000000,20561.000000
27251.000000,47857.000000,49081.000000,20542.000000
27310.000000,47924.000000,49118.000000,20528.000000
27372.000000,47954.000000,49157.000000,20572.000000
27407.000000,48008.000000,49176.000000,20565.000000
27420.000000,48035.000000,49180.000000,20564.000000
27436.000000,48035.000000,49218.000000,20586.000000
27429.000000,48096.000000,49236.000000,20556.000000
27481.000000,48101.000000,49219.000000,20564.000000
27453.000000,48110.000000,49247.000000,20546.000000
27501.000000,48093.000000,49241.000000,20574.000000
27457.000000,48131.000000,49208.000000,20561.000000
27469.000000,48100.000000,49224.000000,20579.000000
27461.000000,48112.000000,49233.000000,20564.000000
27471.000000,48134.000000,49252.000000,20566.000000
27457.000000,48108.000000,49237.000000,20562.000000
27441.000000,48124.000000,49259.000000,20558.000000
27445.000000,48109.000000,49244.000000,20547.000000
27420.000000,48093.000000,49236.000000,20584.000000
27468.000000,48094.000000,49218.000000,20550.000000
27452.000000,48097.000000,49260.000000,20561.000000
27457.000000,48094.000000,49226.000000,20550.000000
27424.000000,48126.000000,49214.000000,20535.000000
27454.000000,48096.000000,49243.000000,20560.000000
27416.000000,48108.000000,49224.000000,20555.000000
27414.000000,48082.000000,49219.000000,20552.000000
27421.000000,48087.000000,49221.000000,20561.000000
27446.000000,48078.000000,49224.000000,20562.000000
27418.000000,48099.000000,49228.000000,20563.000000
27428.000000,48040.000000,49221.000000,20548.000000
27414.000000,48071.000000,49228.000000,20574.000000
27403.000000,48062.000000,49228.000000,20544.000000
27414.000000,48064.000000,49195.000000,20569.000000
27380.000000,48075.000000,49232.000000,20543.000000
27393.000000,48012.000000,49214.000000,20559.000000
27391.000000,48089.000000,49192.000000,20544.000000
27419.000000,48020.000000,49189.000000,20548.000000
27351.000000,48051.000000,49209.000000,20552.000000
27336.000000,48041.000000,49220.000000,20559.000000
27348.000000,48057.000000,49195.000000,20553.000000
27340.000000,48010.000000,49210.000000,20537.000000
27341.000000,48051.000000,49186.000000,20537.000000
27329.000000,48027.000000,49170.000000,20526.000000
27359.000000,48029.000000,49194.000000,20530.000000
27335.000000,48054.000000,49195.000000,20538.000000
27331.000000,48017.000000,49205.000000,20532.000000
27289.000000,48036.000000,49170.000000,20557.000000
27322.000000,47994.000000,49173.000000,20530.000000
27308.000000,48020.000000,49162.000000,20522.000000
27311.000000,47991.000000,49140.000000,20531.000000
27307.000000,48004.000000,49182.000000,20514.000000
27295.000000,47959.000000,49206.000000,20508.000000
27315.000000,47973.000000,49155.000000,20508.000000
27269.000000,47960.000000,49164.000000,20522.000000
27265.000000,47945.000000,49133.000000,20501.000000
27250.000000,47967.000000,49141.000000,20524.000000
27251.000000,47916.000000,49132.000000,20491.000000
27212.000000,47959.000000,49135.000000,20506.000000
27245.000000,47922.000000,49145.000000,20497.000000
27242.000000,47926.000000,49118.000000,20490.000000
27212.000000,47908.000000,49140.000000,20511.000000
27219.000000,47914.000000,49127.000000,20483.000000
27167.000000,47906.000000,49119.000000,20500.000000
27187.000000,47875.000000,49084.000000,20501.000000
27168.000000,47919.000000,49090.000000,20478.000000
27186.000000,47867.000000,49105.000000,20501.000000
27151.000000,47886.000000,49089.000000,20526.000000
27150.000000,47851.000000,49089.000000,20490.000000
27167.000000,47868.000000,49059.000000,20486.000000
27135.000000,47828.000000,49062.000000,20475.000000
27140.000000,47819.000000,49064.000000,20466.000000
27136.000000,47811.000000,49097.000000,20493.000000
27132.000000,47810.000000,49057.000000,20477.000000
27123.000000,47812.000000,49056.000000,20469.000000
27109.000000,47803.000000,49058.000000,20472.000000
27097.000000,47787.000000,49046.000000,20484.000000
27095.000000,47776.000000,49042.000000,20469.000000
27073.000000,47784.000000,49031.000000,20467.000000
27069.000000,47771.000000,49048.000000,20463.000000
27066.000000,47746.000000,49018.000000,20448.000000
27023.000000,47753.000000,49028.000000,20468.000000
27052.000000,47748.000000,49008.000000,20460.000000
27029.000000,47724.000000,49013.000000,20472.000000
27040.000000,47722.000000,49028.000000,20451.000000
27037.000000,47741.000000,49014.000000,20452.000000
27047.000000,47705.000000,49015.000000,20447.000000
27013.000000,47691.000000,49009.000000,20462.000000
26976.000000,47662.000000,48980.000000,20451.000000
26984.000000,47694.000000,48991.000000,20423.000000
26975.000000,47668.000000,49002.000000,20431.000000
27001.000000,47678.000000,49003.000000,20433.000000
26960.000000,47654.000000,49008.000000,20426.000000
26952.000000,47623.000000,48962.000000,20418.000000
26948.000000,47665.000000,48963.000000,20403.000000
26946.000000,47623.000000,48965.000000,20429.000000
26951.000000,47612.000000,48954.000000,20436.000000
26895.000000,47622.000000,48964.000000,20425.000000
26919.000000,47630.000000,48938.000000,20396.000000
26914.000000,47556.000000,48956.000000,20427.000000
26912.000000,47561.000000,48930.000000,20451.000000
26881.000000,47545.000000,48946.000000,20424.000000
26892.000000,47524.000000,48923.000000,20418.000000
26845.000000,47551.000000,48893.000000,20396.000000
26871.000000,47511.000000,48901.000000,20433.000000
26808.000000,47497.000000,48909.000000,20384.000000
26843.000000,47460.000000,48885.000000,20404.000000
26815.000000,47476.000000,48888.000000,20405.000000
26808.000000,47456.000000,48842.000000,20418.000000
26786.000000,47457.000000,48854.000000,20394.000000
26766.000000,47416.000000,48861.000000,20367.000000
26764.000000,47401.000000,48828.000000,20376.000000
26744.000000,47383.000000,48827.000000,20398.000000
26731.000000,47376.000000,48810.000000,20367.000000
26689.000000,47326.000000,48791.000000,20362.000000
26688.000000,47320.000000,48790.000000,20376.000000
26661.000000,47337.000000,48791.000000,20370.000000
26631.000000,47307.000000,48771.000000,20383.000000
26643.000000,47279.000000,48751.000000,20360.000000
26623.000000,47262.000000,48759.000000,20393.000000
26625.000000,47224.000000,48717.000000,20340.000000
26599.000000,47201.000000,48757.000000,20343.000000
26596.000000,47204.000000,48699.000000,20347.000000
26572.000000,47195.000000,48727.000000,20350.000000
26568.000000,47158.000000,48719.000000,20333.000000
26541.000000,47169.000000,48676.000000,20334.000000
26552.000000,47157.000000,48695.000000,20341.000000
26525.000000,47166.000000,48678.000000,20330.000000
26557.000000,47166.000000,48671.000000,20337.000000
26525.000000,47136.000000,48679.000000,20307.000000
26501.000000,47116.000000,48664.000000,20344.000000
26533.000000,47123.000000,48677.000000,20323.000000
26478.000000,47144.000000,48679.000000,20322.000000
26486.000000,47086.000000,48652.000000,20307.000000
26481.000000,47140.000000,48645.000000,20303.000000
26477.000000,47098.000000,48647.000000,20322.000000
26474.000000,47099.000000,48630.000000,20307.000000
26476.000000,47049.000000,48671.000000,20318.000000
26506.000000,47100.000000,48639.000000,20309.000000
26468.000000,47077.000000,48663.000000,20319.000000
26455.000000,47068.000000,48646.000000,20293.000000
26449.000000,47055.000000,48665.000000,20290.000000
26461.000000,47065.000000,48640.000000,20333.000000
26441.000000,47068.000000,48622.000000,20325.000000
26427.000000,47039.000000,48624.000000,20291.000000
26470.000000,47066.000000,48629.000000,20307.000000
26414.000000,47084.000000,48645.000000,20301.000000
26431.000000,47031.000000,48624.000000,20305.000000
26407.000000,47030.000000,48629.000000,20285.000000
26411.000000,47026.000000,48621.000000,20294.000000
26428.000000,47019.000000,48610.000000,20303.000000
26441.000000,47007.000000,48595.000000,20315.000000
26402.000000,47015.000000,48617.000000,20311.000000
26391.000000,46977.000000,48617.000000,20298.000000
26354.000000,46979.000000,48589.000000,20309.000000
26380.000000,46976.000000,48572.000000,20317.000000
26365.000000,46970.000000,48573.000000,20291.000000
26335.000000,46952.000000,48591.000000,20302.000000
26371.000000,46914.000000,48586.000000,20293.000000
26327.000000,46921.000000,48567.000000,20296.000000
26329.000000,46916.000000,48531.000000,20299.000000
26350.000000,46949.000000,48550.000000,20301.000000
26348.000000,46864.000000,48556.000000,20288.000000
26373.000000,46929.000000,48554.000000,20289.000000
26357.000000,46900.000000,48558.000000,20299.000000
26324.000000,46950.000000,48582.000000,20316.000000
26342.000000,46908.000000,48573.000000,20283.000000
26403.000000,46893.000000,48591.000000,20308.000000
26403.000000,46963.000000,48594.000000,20314.000000
26414.000000,46986.000000,48592.000000,20307.000000
26415.000000,47025.000000,48631.000000,20334.000000
26463.000000,46995.000000,48614.000000,20334.000000
26459.000000,47092.000000,48621.000000,20322.000000
26508.000000,47039.000000,48641.000000,20336.000000
26514.000000,47097.000000,48673.000000,20327.000000
26513.000000,47116.000000,48704.000000,20331.000000
26581.000000,47114.000000,48690.000000,20314.000000
26589.000000,47159.000000,48705.000000,20337.000000
26609.000000,47176.000000,48705.000000,20326.000000
26637.000000,47203.000000,48732.000000,20348.000000
26666.000000,47212.000000,48742.000000,20375.000000
26661.000000,47246.000000,48746.000000,20355.000000
26690.000000,47257.000000,48758.000000,20351.000000
26718.000000,47301.000000,48775.000000,20383.000000
26720.000000,47301.000000,48795.000000,20394.000000
26758.000000,47302.000000,48784.000000,20373.000000
26772.000000,47336.000000,48801.000000,20369.000000
26789.000000,47335.000000,48818.000000,20381.000000
26805.000000,47381.000000,48840.000000,20397.000000
26824.000000,47398.000000,48838.000000,20418.000000
26848.000000,47409.000000,48871.000000,20388.000000
26871.000000,47440.000000,48853.000000,20392.000000
26890.000000,47489.000000,48879.000000,20398.000000
26944.000000,47485.000000,48905.000000,20406.000000
26926.000000,47509.000000,48942.000000,20408.000000
26969.000000,47569.000000,48963.000000,20398.000000
27016.000000,47586.000000,48968.000000,20429.000000
27000.000000,47613.000000,48998.000000,20444.000000
27089.000000,47660.000000,48995.000000,20444.000000
27093.000000,47747.000000,49020.000000,20455.000000
27181.000000,47796.000000,49077.000000,20475.000000
27186.000000,47815.000000,49091.000000,20481.000000
27286.000000,47917.000000,49155.000000,20504.000000
27342.000000,48033.000000,49201.000000,20525.000000
27397.000000,48042.000000,49240.000000,20504.000000
27469.000000,48137.000000,49236.000000,20553.000000
27523.000000,48214.000000,49308.000000,20544.000000
27577.000000,48247.000000,49328.000000,20573.000000
27567.000000,48303.000000,49349.000000,20564.000000
27637.000000,48303.000000,49389.000000,20581.000000
27616.000000,48325.000000,49361.000000,20551.000000
27587.000000,48331.000000,49391.000000,20553.000000
27618.000000,48323.000000,49354.000000,20578.000000
27587.000000,48339.000000,49384.000000,20548.000000
27582.000000,48277.000000,49373.000000,20566.000000
27578.000000,48275.000000,49378.000000,20555.000000
27582.000000,48255.000000,49357.000000,20565.000000
27536.000000,48270.000000,49317.000000,20552.000000
27547.000000,48243.000000,49328.000000,20555.000000
27537.000000,48245.000000,49287.000000,20513.000000
27528.000000,48205.000000,49285.000000,20572.000000
27472.000000,48174.000000,49297.000000,20556.000000
27454.000000,48189.000000,49297.000000,20539.000000
27451.000000,48138.000000,49274.000000,20538.000000
27455.000000,48146.000000,49279.000000,20539.000000
27419.000000,48130.000000,49261.000000,20552.000000
27424.000000,48093.000000,49237.000000,20525.000000
27400.000000,48080.000000,49253.000000,20521.000000
27382.000000,48086.000000,49233.000000,20514.000000
27344.000000,48046.000000,49211.000000,20539.000000
27355.000000,48031.000000,49184.000000,20527.000000
27310.000000,48023.000000,49184.000000,20524.000000
27326.000000,48004.000000,49175.000000,20528.000000
27328.000000,47982.000000,49174.000000,20541.000000
27292.000000,47938.000000,49153.000000,20514.000000
27243.000000,47944.000000,49126.000000,20494.000000
27245.000000,47906.000000,49140.000000,20513.000000
27235.000000,47915.000000,49117.000000,20508.000000
27212.000000,47883.000000,49112.000000,20514.000000
27182.000000,47843.000000,49086.000000,20505.000000
27159.000000,47808.000000,49101.000000,20482.000000
27162.000000,47824.000000,49084.000000,20474.000000
27142.000000,47803.000000,49064.000000,20490.000000
27135.000000,47781.000000,49042.000000,20486.000000
27089.000000,47798.000000,49023.000000,20467.000000
27089.000000,47766.000000,49024.000000,20478.000000
27057.000000,47759.000000,49038.000000,20450.000000
27032.000000,47737.000000,49004.000000,20484.000000
27026.000000,47689.000000,48999.000000,20455.000000
26986.000000,47659.000000,48985.000000,20465.000000
27030.000000,47686.000000,48978.000000,20466.000000
26988.000000,47654.000000,48963.000000,20442.000000
26977.000000,47596.000000,48949.000000,20437.000000
26920.000000,47603.000000,48943.000000,20467.000000
26918.000000,47579.000000,48942.000000,20455.000000
26941.000000,47542.000000,48928.000000,20448.000000
26887.000000,47570.000000,48912.000000,20450.000000
26845.000000,47496.000000,48886.000000,20433.000000
26824.000000,47508.000000,48870.000000,20443.000000
26842.000000,47466.000000,48851.000000,20429.000000
26804.000000,47481.000000,48835.000000,20446.000000
26764.000000,47440.000000,48858.000000,20401.000000
26757.000000,47433.000000,48822.000000,20391.000000
26686.000000,47353.000000,48751.000000,20383.000000
26681.000000,47304.000000,48727.000000,20379.000000
26636.000000,47292.000000,48732.000000,20400.000000
26616.000000,47231.000000,48721.000000,20358.000000
26615.000000,47251.000000,48689.000000,20361.000000
26583.000000,47166.000000,48696.000000,20373.000000
26556.000000,47156.000000,48668.000000,20348.000000
26517.000000,47132.000000,48669.000000,20347.000000
26490.000000,47096.000000,48626.000000,20345.000000
26468.000000,47106.000000,48627.000000,20369.000000
26441.000000,47029.000000,48601.000000,20330.000000
26387.000000,47013.000000,48579.000000,20342.000000
26365.000000,46963.000000,48562.000000,20314.000000
26362.000000,46962.000000,48551.000000,20291.000000
26332.000000,46938.000000,48576.000000,20320.000000
26303.000000,46921.000000,48496.000000,20322.000000
26261.000000,46902.000000,48487.000000,20299.000000
26263.000000,46836.000000,48470.000000,20312.000000
26228.000000,46818.000000,48442.000000,20293.000000
26185.000000,46784.000000,48446.000000,20285.000000
26189.000000,46730.000000,48438.000000,20283.000000
26131.000000,46719.000000,48409.000000,20265.000000
26085.000000,46673.000000,48386.000000,20259.000000
26076.000000,46654.000000,48378.000000,20249.000000
26056.000000,46597.000000,48337.000000,20246.000000
25989.000000,46578.000000,48330.000000,20241.000000
25957.000000,46515.000000,48302.000000,20217.000000
25935.000000,46514.000000,48297.000000,20218.000000
25950.000000,46467.000000,48260.000000,20221.000000
25865.000000,46468.000000,48247.000000,20198.000000
25867.000000,46380.000000,48245.000000,20197.000000
25804.000000,46404.000000,48201.000000,20193.000000
25759.000000,46355.000000,48162.000000,20183.000000
25727.000000,46294.000000,48134.000000,20163.000000
25681.000000,46277.000000,48107.000000,20172.000000
25665.000000,46232.000000,48116.000000,20161.000000
25613.000000,46163.000000,48080.000000,20137.000000
25583.000000,46122.000000,48063.000000,20151.000000
25548.000000,46065.000000,48044.000000,20116.000000
25503.000000,46010.000000,47987.000000,20124.000000
25466.000000,45977.000000,47978.000000,20116.000000
25424.000000,45944.000000,47954.000000,20091.000000
25348.000000,45914.000000,47959.000000,20097.000000
25349.000000,45852.000000,47907.000000,20057.000000
25275.000000,45806.000000,47894.000000,20073.000000
25261.000000,45755.000000,47843.000000,20070.000000
25210.000000,45717.000000,47851.000000,20028.000000
25186.000000,45653.000000,47773.000000,20041.000000
25085.000000,45649.000000,47764.000000,20012.000000
25075.000000,45542.000000,47723.000000,20006.000000
24966.000000,45556.000000,47691.000000,19983.000000
24974.000000,45427.000000,47646.000000,19992.000000
24904.000000,45421.000000,47634.000000,19965.000000
24865.000000,45334.000000,47590.000000,19947.000000
24794.000000,45301.000000,47577.000000,19952.000000
24697.000000,45218.000000,47538.000000,19921.000000
24666.000000,45166.000000,47502.000000,19920.000000
24596.000000,45071.000000,47435.000000,19895.000000
24571.000000,45031.000000,47424.000000,19853.000000
24446.000000,44936.000000,47374.000000,19861.000000
24402.000000,44859.000000,47325.000000,19844.000000
24338.000000,44795.000000,47249.000000,19859.000000
24300.000000,44692.000000,47250.000000,19826.000000
24195.000000,44650.000000,47210.000000,19805.000000
24126.000000,44532.000000,47142.000000,19805.000000
24035.000000,44464.000000,47109.000000,19767.000000
23971.000000,44392.000000,47035.000000,19762.000000
23898.000000,44315.000000,47003.000000,19734.000000
23847.000000,44230.000000,46952.000000,19718.000000
23780.000000,44217.000000,46943.000000,19712.000000
23697.000000,44136.000000,46861.000000,19707.000000
23719.000000,44065.000000,46865.000000,19707.000000
23624.000000,44053.000000,46829.000000,19679.000000
23627.000000,44020.000000,46822.000000,19681.000000
23591.000000,44014.000000,46804.000000,19659.000000
23614.000000,43984.000000,46785.000000,19682.000000
23603.000000,43980.000000,46818.000000,19658.000000
23558.000000,43955.000000,46811.000000,19684.000000
23627.000000,43983.000000,46779.000000,19675.000000
23524.000000,43985.000000,46798.000000,19696.000000
23585.000000,43968.000000,46765.000000,19680.000000
23565.000000,43970.000000,46820.000000,19669.000000
23611.000000,43965.000000,46783.000000,19692.000000
23562.000000,43946.000000,46771.000000,19675.000000
23584.000000,43955.000000,46801.000000,19671.000000
23579.000000,43992.000000,46791.000000,19695.000000
23592.000000,43982.000000,46818.000000,19684.000000
23575.000000,44012.000000,46798.000000,19697.000000
23568.000000,43963.000000,46780.000000,19723.000000
23597.000000,43977.000000,46805.000000,19706.000000
23613.000000,44012.000000,46802.000000,19706.000000
23634.000000,44034.000000,46807.000000,19703.000000
23612.000000,44034.000000,46847.000000,19704.000000
23657.000000,44020.000000,46828.000000,19712.000000
23649.000000,44066.000000,46855.000000,19718.000000
23696.000000,44076.000000,46865.000000,19730.000000
23696.000000,44081.000000,46886.000000,19731.000000
23737.000000,44131.000000,46882.000000,19735.000000
23736.000000,44171.000000,46923.000000,19730.000000
23823.000000,44187.000000,46935.000000,19763.000000
23854.000000,44311.000000,46953.000000,19743.000000
23908.000000,44306.000000,46976.000000,19806.000000
23964.000000,44368.000000,47019.000000,19792.000000
24023.000000,44414.000000,47064.000000,19837.000000
24216.000000,44675.000000,47185.000000,19876.000000
24278.000000,44717.000000,47262.000000,19872.000000
24371.000000,44818.000000,47253.000000,19886.000000
24445.000000,44879.000000,47316.000000,19945.000000
24527.000000,44957.000000,47366.000000,19929.000000
24590.000000,45022.000000,47428.000000,19981.000000
24684.000000,45112.000000,47454.000000,19987.000000
24727.000000,45172.000000,47517.000000,20007.000000
24813.000000,45268.000000,47527.000000,20017.000000
24825.000000,45279.000000,47572.000000,20024.000000
24921.000000,45354.000000,47595.000000,20037.000000
24914.000000,45399.000000,47649.000000,20046.000000
24998.000000,45433.000000,47642.000000,20065.000000
25034.000000,45511.000000,47684.000000,20071.000000
25084.000000,45551.000000,47709.000000,20097.000000
25090.000000,45609.000000,47734.000000,20100.000000
25196.000000,45631.000000,47750.000000,20104.000000
25185.000000,45700.000000,47799.000000,20123.000000
25282.000000,45724.000000,47793.000000,20149.000000
25285.000000,45765.000000,47854.000000,20130.000000
25315.000000,45803.000000,47876.000000,20159.000000
25410.000000,45861.000000,47865.000000,20137.000000
25391.000000,45875.000000,47927.000000,20146.000000
25474.000000,45936.000000,47946.000000,20145.000000
25490.000000,45959.000000,47957.000000,20168.000000
25547.000000,46036.000000,48010.000000,20193.000000
25590.000000,46092.000000,48020.000000,20182.000000
25622.000000,46143.000000,48040.000000,20202.000000
25687.000000,46219.000000,48072.000000,20210.000000
25743.000000,46256.000000,48114.000000,20240.000000
25787.000000,46325.000000,48154.000000,20255.000000
25835.000000,46358.000000,48184.000000,20240.000000
25897.000000,46423.000000,48217.000000,20247.000000
25917.000000,46438.000000,48257.000000,20258.000000
25990.000000,46497.000000,48265.000000,20274.000000
26058.000000,46568.000000,48324.000000,20275.000000
26067.000000,46630.000000,48356.000000,20304.000000
26117.000000,46694.000000,48387.000000,20299.000000
26163.000000,46733.000000,48395.000000,20314.000000
26178.000000,46788.000000,48409.000000,20323.000000
26224.000000,46788.000000,48423.000000,20330.000000
26221.000000,46844.000000,48461.000000,20334.000000
26246.000000,46838.000000,48451.000000,20352.000000
26234.000000,46873.000000,48450.000000,20330.000000
26229.000000,46843.000000,48451.000000,20339.000000
26250.000000,46856.000000,48452.000000,20336.000000
26231.000000,46840.000000,48449.000000,20345.000000
26210.000000,46852.000000,48424.000000,20327.000000
26240.000000,46853.000000,48434.000000,20313.000000
26235.000000,46828.000000,48454.000000,20328.000000
26209.000000,46844.000000,48439.000000,20343.000000
26226.000000,46824.000000,48448.000000,20330.000000
26216.000000,46818.000000,48441.000000,20342.000000
26201.000000,46799.000000,48425.000000,20329.000000
26206.000000,46820.000000,48443.000000,20352.000000
26228.000000,46825.000000,48425.000000,20298.000000
26173.000000,46804.000000,48462.000000,20327.000000
26222.000000,46824.000000,48442.000000,20319.000000
26216.000000,46856.000000,48413.000000,20312.000000
26196.000000,46838.000000,48428.000000,20342.000000
26188.000000,46819.000000,48428.000000,20331.000000
26192.000000,46791.000000,48420.000000,20345.000000
26175.000000,46808.000000,48404.000000,20334.000000
26208.000000,46800.000000,48427.000000,20304.000000
26172.000000,46792.000000,48424.000000,20299.000000
26151.000000,46762.000000,48414.000000,20319.000000
26183.000000,46786.000000,48426.000000,20328.000000
26176.000000,46791.000000,48446.000000,20335.000000
26162.000000,46796.000000,48417.000000,20341.000000
26168.000000,46802.000000,48401.000000,20324.000000
26160.000000,46802.000000,48415.000000,20319.000000
26161.000000,46828.000000,48425.000000,20326.000000
26162.000000,46792.000000,48414.000000,20321.000000
26186.000000,46788.000000,48430.000000,20352.000000
26150.000000,46789.000000,48417.000000,20333.000000
26206.000000,46801.000000,48404.000000,20322.000000
26164.000000,46789.000000,48410.000000,20345.000000
26184.000000,46777.000000,48435.000000,20340.000000
26161.000000,46800.000000,48399.000000,20334.000000
26141.000000,46811.000000,48407.000000,20318.000000
26146.000000,46865.000000,48407.000000,20326.000000
26156.000000,46774.000000,48405.000000,20319.000000
26129.000000,46805.000000,48408.000000,20313.000000
26151.000000,46798.000000,48402.000000,20341.000000
26148.000000,46817.000000,48406.000000,20313.000000
26157.000000,46803.000000,48418.000000,20325.000000
26167.000000,46795.000000,48393.000000,20330.000000
26127.000000,46798.000000,48411.000000,20323.000000
26156.000000,46782.000000,48392.000000,20344.000000
26168.000000,46820.000000,48430.000000,20330.000000
26146.000000,46783.000000,48406.000000,20326.000000
26132.000000,46776.000000,48407.000000,20334.000000
26163.000000,46795.000000,48390.000000,20317.000000
26121.000000,46816.000000,48397.000000,20325.000000
26160.000000,46793.000000,48392.000000,20354.000000
26134.000000,46829.000000,48401.000000,20324.000000
26135.000000,46779.000000,48386.000000,20327.000000
26107.000000,46782.000000,48418.000000,20308.000000
26116.000000,46799.000000,48415.000000,20325.000000
26074.000000,46759.000000,48368.000000,20311.000000
26057.000000,46743.000000,48394.000000,20289.000000
26037.000000,46748.000000,48362.000000,20306.000000
26052.000000,46739.000000,48387.000000,20335.000000
26070.000000,46727.000000,48345.000000,20307.000000
26031.000000,46743.000000,48400.000000,20314.000000
26026.000000,46731.000000,48365.000000,20284.000000
26029.000000,46751.000000,48371.000000,20301.000000
26036.000000,46729.000000,48351.000000,20296.000000
26037.000000,46748.000000,48348.000000,20278.000000
26024.000000,46715.000000,48347.000000,20298.000000
25996.000000,46723.000000,48354.000000,20278.000000
26027.000000,46662.000000,48367.000000,20284.000000
26004.000000,46715.000000,48340.000000,20275.000000
25992.000000,46664.000000,48335.000000,20275.000000
25984.000000,46700.000000,48343.000000,20280.000000
25975.000000,46682.000000,48340.000000,20290.000000
25963.000000,46693.000000,48315.000000,20275.000000
25937.000000,46688.000000,48338.000000,20289.000000
25958.000000,46699.000000,48316.000000,20253.000000
25950.000000,46678.000000,48326.000000,20287.000000
25957.000000,46692.000000,48322.000000,20275.000000
25921.000000,46679.000000,48342.000000,20273.000000
25918.000000,46655.000000,48324.000000,20279.000000
25902.000000,46643.000000,48306.000000,20279.000000
25945.000000,46656.000000,48304.000000,20269.000000
25903.000000,46610.000000,48302.000000,20281.000000
25950.000000,46645.000000,48288.000000,20268.000000
25901.000000,46654.000000,48318.000000,20266.000000
25925.000000,46651.000000,48313.000000,20251.000000
25882.000000,46603.000000,48324.000000,20271.000000
25903.000000,46642.000000,48289.000000,20278.000000
25903.000000,46614.000000,48306.000000,20259.000000
25927.000000,46653.000000,48280.000000,20248.000000
25912.000000,46652.000000,48292.000000,20257.000000
25887.000000,46630.000000,48290.000000,20260.000000
25886.000000,46622.000000,48298.000000,20271.000000
25888.000000,46620.000000,48286.000000,20269.000000
25884.000000,46626.000000,48295.000000,20262.000000
25900.000000,46588.000000,48275.000000,20251.000000
25868.000000,46662.000000,48281.000000,20268.000000
25887.000000,46619.000000,48296.000000,20288.000000
25856.000000,46583.000000,48289.000000,20258.000000
25863.000000,46580.000000,48273.000000,20260.000000
25851.000000,46600.000000,48257.000000,20243.000000
25860.000000,46583.000000,48251.000000,20286.000000
25873.000000,46587.000000,48275.000000,20256.000000
25848.000000,46564.000000,48248.000000,20268.000000
25850.000000,46583.000000,48291.000000,20272.000000
25848.000000,46557.000000,48281.000000,20261.000000
25823.000000,46593.000000,48239.000000,20244.000000
25830.000000,46561.000000,48259.000000,20265.000000
25846.000000,46554.000000,48247.000000,20245.000000
25793.000000,46537.000000,48243.000000,20250.000000
25852.000000,46548.000000,48255.000000,20255.000000
25827.000000,46488.000000,48250.000000,20268.000000
25817.000000,46552.000000,48253.000000,20237.000000
25805.000000,46513.000000,48252.000000,20273.000000
25829.000000,46524.000000,48225.000000,20256.000000
25796.000000,46537.000000,48250.000000,20271.000000
25823.000000,46505.000000,48233.000000,20236.000000
25789.000000,46522.000000,48209.000000,20246.000000
25813.000000,46516.000000,48252.000000,20250.000000
25796.000000,46505.000000,48230.000000,20240.000000
25819.000000,46498.000000,48238.000000,20267.000000
25804.000000,46515.000000,48233.000000,20241.000000
25801.000000,46477.000000,48227.000000,20253.000000
25791.000000,46494.000000,48221.000000,20247.000000
25774.000000,46467.000000,48223.000000,20272.000000
25816.000000,46496.000000,48215.000000,20241.000000
25798.000000,46454.000000,48251.000000,20231.000000
25790.000000,46485.000000,48201.000000,20252.000000
25798.000000,46476.000000,48218.000000,20259.000000
25779.000000,46476.000000,48219.000000,20258.000000
25793.000000,46498.000000,48241.000000,20257.000000
25788.000000,46483.000000,48223.000000,20267.000000
25794.000000,46500.000000,48216.000000,20269.000000
25802.000000,46503.000000,48219.000000,20253.000000
25807.000000,46494.000000,48227.000000,20231.000000
25791.000000,46475.000000,48240.000000,20257.000000
25841.000000,46511.000000,48230.000000,20237.000000
25780.000000,46490.000000,48232.000000,20243.000000
25828.000000,46478.000000,48220.000000,20246.000000
25811.000000,46496.000000,48246.000000,20253.000000
25821.000000,46471.000000,48228.000000,20234.000000
25806.000000,46498.000000,48228.000000,20258.000000
25816.000000,46478.000000,48228.000000,20248.000000
25793.000000,46507.000000,48250.000000,20244.000000
25793.000000,46470.000000,48229.000000,20235.000000
25780.000000,46486.000000,48230.000000,20222.000000
25767.000000,46469.000000,48222.000000,20249.000000
25797.000000,46483.000000,48233.000000,20219.000000
25750.000000,46470.000000,48228.000000,20257.000000
25751.000000,46496.000000,48198.000000,20245.000000
25752.000000,46440.000000,48208.000000,20240.000000
25779.000000,46419.000000,48174.000000,20249.000000
25728.000000,46443.000000,48200.000000,20247.000000
25761.000000,46427.000000,48204.000000,20233.000000
25752.000000,46451.000000,48230.000000,20221.000000
25781.000000,46442.000000,48195.000000,20255.000000
25748.000000,46426.000000,48217.000000,20228.000000
25816.000000,46443.000000,48194.000000,20263.000000
25792.000000,46467.000000,48240.000000,20222.000000
25811.000000,46453.000000,48230.000000,20252.000000
25855.000000,46526.000000,48265.000000,20242.000000
25863.000000,46554.000000,48253.000000,20255.000000
25894.000000,46565.000000,48275.000000,20260.000000
25903.000000,46583.000000,48276.000000,20270.000000
25933.000000,46618.000000,48313.000000,20265.000000
25927.000000,46617.000000,48352.000000,20288.000000
25970.000000,46669.000000,48346.000000,20270.000000
25998.000000,46674.000000,48372.000000,20273.000000
26039.000000,46706.000000,48352.000000,20249.000000
26038.000000,46756.000000,48342.000000,20280.000000
26036.000000,46747.000000,48401.000000,20303.000000
26105.000000,46763.000000,48400.000000,20285.000000
26125.000000,46800.000000,48422.000000,20294.000000
26147.000000,46869.000000,48451.000000,20305.000000
26171.000000,46857.000000,48459.000000,20311.000000
26194.000000,46930.000000,48481.000000,20324.000000
26229.000000,46912.000000,48496.000000,20335.000000
26257.000000,46987.000000,48504.000000,20346.000000
26277.000000,46974.000000,48504.000000,20337.000000
26286.000000,46990.000000,48509.000000,20319.000000
26291.000000,47038.000000,48531.000000,20330.000000
26356.000000,47026.000000,48549.000000,20361.000000
26385.000000,47078.000000,48593.000000,20349.000000
26427.000000,47091.000000,48609.000000,20336.000000
26412.000000,47128.000000,48611.000000,20356.000000
26461.000000,47146.000000,48603.000000,20359.000000
26476.000000,47204.000000,48650.000000,20369.000000
26515.000000,47221.000000,48674.000000,20390.000000
26537.000000,47266.000000,48670.000000,20373.000000
26609.000000,47301.000000,48712.000000,20401.000000
26636.000000,47368.000000,48727.000000,20395.000000
26669.000000,47388.000000,48749.000000,20418.000000
26743.000000,47444.000000,48788.000000,20439.000000
26761.000000,47488.000000,48838.000000,20439.000000
26796.000000,47577.000000,48830.000000,20451.000000
26863.000000,47607.000000,48892.000000,20444.000000
26897.000000,47669.000000,48931.000000,20434.000000
26919.000000,47720.000000,48941.000000,20470.000000
26968.000000,47725.000000,48993.000000,20483.000000
27028.000000,47818.000000,49010.000000,20486.000000
27025.000000,47840.000000,49044.000000,20524.000000
27092.000000,47846.000000,49024.000000,20484.000000
27058.000000,47839.000000,48989.000000,20520.000000
27087.000000,47848.000000,49013.000000,20526.000000
27028.000000,47824.000000,49012.000000,20470.000000
27050.000000,47836.000000,49012.000000,20526.000000
27031.000000,47857.000000,48993.000000,20486.000000
27045.000000,47834.000000,49021.000000,20505.000000
27005.000000,47824.000000,49004.000000,20485.000000
27009.000000,47797.000000,49020.000000,20514.000000
27018.000000,47815.000000,48973.000000,20490.000000
26981.000000,47800.000000,48989.000000,20506.000000
26992.000000,47769.000000,48992.000000,20494.000000
26965.000000,47754.000000,48994.000000,20496.000000
26966.000000,47749.000000,48971.000000,20481.000000
26957.000000,47755.000000,48981.000000,20488.000000
26956.000000,47755.000000,48977.000000,20485.000000
26926.000000,47731.000000,48948.000000,20488.000000
26942.000000,47714.000000,48944.000000,20486.000000
26917.000000,47712.000000,48948.000000,20477.000000
26922.000000,47675.000000,48910.000000,20479.000000
26876.000000,47668.000000,48925.000000,20475.000000
26898.000000,47665.000000,48894.000000,20489.000000
26895.000000,47644.000000,48873.000000,20485.000000
26891.000000,47662.000000,48921.000000,20469.000000
26853.000000,47669.000000,48910.000000,20451.000000
26855.000000,47629.000000,48890.000000,20471.000000
26844.000000,47588.000000,48897.000000,20453.000000
26865.000000,47611.000000,48897.000000,20461.000000
26874.000000,47641.000000,48901.000000,20468.000000
26810.000000,47603.000000,48901.000000,20485.000000
26802.000000,47619.000000,48865.000000,20442.000000
26813.000000,47555.000000,48881.000000,20434.000000
26787.000000,47547.000000,48859.000000,20446.000000
26764.000000,47579.000000,48825.000000,20459.000000
26767.000000,47511.000000,48834.000000,20482.000000
26742.000000,47542.000000,48840.000000,20461.000000
26732.000000,47484.000000,48832.000000,20431.000000
26748.000000,47494.000000,48823.000000,20420.000000
26750.000000,47479.000000,48804.000000,20432.000000
26733.000000,47476.000000,48818.000000,20451.000000
26706.000000,47483.000000,48815.000000,20461.000000
26713.000000,47445.000000,48804.000000,20427.000000
26722.000000,47461.000000,48826.000000,20423.000000
26697.000000,47443.000000,48785.000000,20447.000000
26689.000000,47468.000000,48789.000000,20430.000000
26697.000000,47414.000000,48788.000000,20432.000000
26684.000000,47422.000000,48759.000000,20429.000000
26661.000000,47407.000000,48778.000000,20430.000000
26673.000000,47397.000000,48761.000000,20440.000000
26627.000000,47399.000000,48774.000000,20431.000000
26625.000000,47376.000000,48741.000000,20432.000000
26610.000000,47365.000000,48777.000000,20403.000000
26633.000000,47362.000000,48734.000000,20437.000000
26614.000000,47386.000000,48719.000000,20415.000000
26623.000000,47323.000000,48712.000000,20452.000000
26586.000000,47339.000000,48741.000000,20408.000000
26604.000000,47320.000000,48710.000000,20414.000000
26585.000000,47309.000000,48715.000000,20423.000000
26556.000000,47289.000000,48718.000000,20416.000000
26526.000000,47304.000000,48677.000000,20405.000000
26520.000000,47212.000000,48671.000000,20391.000000
26542.000000,47252.000000,48686.000000,20403.000000
26523.000000,47253.000000,48658.000000,20406.000000
26519.000000,47248.000000,48665.000000,20395.000000
26476.000000,47237.000000,48680.000000,20398.000000
26492.000000,47201.000000,48639.000000,20400.000000
26464.000000,47212.000000,48677.000000,20412.000000
26465.000000,47170.000000,48650.000000,20405.000000
26462.000000,47191.000000,48627.000000,20398.000000
26451.000000,47156.000000,48641.000000,20390.000000
26452.000000,47157.000000,48625.000000,20380.000000
26456.000000,47150.000000,48634.000000,20409.000000
26440.000000,47111.000000,48609.000000,20411.000000
26392.000000,47129.000000,48624.000000,20399.000000
26421.000000,47124.000000,48591.000000,20369.000000
26398.000000,47105.000000,48616.000000,20372.000000
26408.000000,47069.000000,48570.000000,20376.000000
26354.000000,47108.000000,48592.000000,20370.000000
26360.000000,47042.000000,48580.000000,20374.000000
26337.000000,47051.000000,48542.000000,20377.000000
26372.000000,47025.000000,48569.000000,20386.000000
26311.000000,47008.000000,48579.000000,20379.000000
26318.000000,47027.000000,48561.000000,20373.000000
26295.000000,47003.000000,48525.000000,20368.000000
26320.000000,46979.000000,48561.000000,20354.000000
26325.000000,47003.000000,48525.000000,20366.000000
26252.000000,46971.000000,48540.000000,20341.000000
26296.000000,46951.000000,48542.000000,20346.000000
26278.000000,46968.000000,48510.000000,20351.000000
26242.000000,46933.000000,48504.000000,20365.000000
26235.000000,46943.000000,48481.000000,20344.000000
26224.000000,46890.000000,48491.000000,20356.000000
26229.000000,46877.000000,48472.000000,20344.000000
26201.000000,46895.000000,48494.000000,20332.000000
26201.000000,46842.000000,48488.000000,20365.000000
26185.000000,46832.000000,48476.000000,20325.000000
26193.000000,46859.000000,48445.000000,20328.000000
26155.000000,46823.000000,48429.000000,20346.000000
26133.000000,46784.000000,48454.000000,20322.000000
26125.000000,46783.000000,48409.000000,20313.000000
26115.000000,46755.000000,48429.000000,20327.000000
26096.000000,46793.000000,48398.000000,20314.000000
26065.000000,46764.000000,48417.000000,20310.000000
26082.000000,46744.000000,48394.000000,20330.000000
26038.000000,46721.000000,48396.000000,20307.000000
26075.000000,46717.000000,48396.000000,20314.000000
25994.000000,46695.000000,48354.000000,20320.000000
26016.000000,46663.000000,48354.000000,20313.000000
25998.000000,46678.000000,48347.000000,20301.000000
25982.000000,46654.000000,48336.000000,20328.000000
25996.000000,46655.000000,48334.000000,20282.000000
25965.000000,46648.000000,48345.000000,20296.000000
25937.000000,46589.000000,48324.000000,20262.000000
25905.000000,46622.000000,48306.000000,20287.000000
25916.000000,46542.000000,48290.000000,20265.000000
25892.000000,46589.000000,48287.000000,20268.000000
25888.000000,46546.000000,48251.000000,20275.000000
25861.000000,46549.000000,48260.000000,20270.000000
25866.000000,46524.000000,48240.000000,20268.000000
25836.000000,46510.000000,48259.000000,20286.000000
25846.000000,46487.000000,48263.000000,20260.000000
25827.000000,46519.000000,48235.000000,20267.000000
25804.000000,46429.000000,48228.000000,20275.000000
25800.000000,46471.000000,48231.000000,20262.000000
25778.000000,46436.000000,48207.000000,20271.000000
25778.000000,46442.000000,48188.000000,20265.000000
25750.000000,46380.000000,48208.000000,20281.000000
25754.000000,46402.000000,48159.000000,20260.000000
25762.000000,46388.000000,48188.000000,20268.000000
25748.000000,46356.000000,48153.000000,20249.000000
25729.000000,46390.000000,48152.000000,20261.000000
25739.000000,46371.000000,48154.000000,20251.000000
25742.000000,46385.000000,48158.000000,20242.000000
25706.000000,46364.000000,48146.000000,20264.000000
25719.000000,46379.000000,48151.000000,20252.000000
25692.000000,46324.000000,48152.000000,20265.000000
25717.000000,46361.000000,48168.000000,20268.000000
25694.000000,46353.000000,48163.000000,20234.000000
25707.000000,46336.000000,48175.000000,20244.000000
25707.000000,46356.000000,48162.000000,20269.000000
25698.000000,46327.000000,48139.000000,20256.000000
25700.000000,46356.000000,48143.000000,20241.000000
25691.000000,46299.000000,48117.000000,20268.000000
25702.000000,46343.000000,48125.000000,20253.000000
25691.000000,46319.000000,48130.000000,20276.000000
25687.000000,46311.000000,48118.000000,20261.000000
25658.000000,46311.000000,48161.000000,20251.000000
25663.000000,46280.000000,48111.000000,20249.000000
25641.000000,46271.000000,48108.000000,20259.000000
25659.000000,46327.000000,48101.000000,20254.000000
25658.000000,46341.000000,48120.000000,20236.000000
25711.000000,46301.000000,48086.000000,20261.000000
25674.000000,46315.000000,48125.000000,20268.000000
25687.000000,46297.000000,48127.000000,20268.000000
25692.000000,46339.000000,48132.000000,20241.000000
25718.000000,46295.000000,48140.000000,20256.000000
25702.000000,46359.000000,48145.000000,20273.000000
25715.000000,46362.000000,48207.000000,20251.000000
25760.000000,46403.000000,48176.000000,20247.000000
25750.000000,46370.000000,48184.000000,20264.000000
25811.000000,46400.000000,48158.000000,20275.000000
25815.000000,46452.000000,48226.000000,20264.000000
25823.000000,46479.000000,48222.000000,20286.000000
25866.000000,46501.000000,48241.000000,20287.000000
25872.000000,46515.000000,48239.000000,20272.000000
25912.000000,46536.000000,48272.000000,20278.000000
25934.000000,46556.000000,48284.000000,20296.000000
25945.000000,46566.000000,48268.000000,20303.000000
25951.000000,46623.000000,48319.000000,20300.000000
25999.000000,46617.000000,48305.000000,20316.000000
25990.000000,46672.000000,48299.000000,20306.000000
26012.000000,46680.000000,48338.000000,20317.000000
26059.000000,46700.000000,48359.000000,20320.000000
26081.000000,46720.000000,48385.000000,20313.000000
26158.000000,46747.000000,48401.000000,20323.000000
26150.000000,46776.000000,48398.000000,20334.000000
26200.000000,46805.000000,48423.000000,20343.000000
26187.000000,46856.000000,48432.000000,20333.000000
26255.000000,46866.000000,48446.000000,20360.000000
26256.000000,46916.000000,48426.000000,20365.000000
26308.000000,46921.000000,48509.000000,20375.000000
26329.000000,46942.000000,48495.000000,20351.000000
26342.000000,47003.000000,48539.000000,20396.000000
26378.000000,47061.000000,48550.000000,20371.000000
26387.000000,47065.000000,48557.000000,20409.000000
26433.000000,47120.000000,48579.000000,20400.000000
26487.000000,47149.000000,48629.000000,20396.000000
26530.000000,47191.000000,48623.000000,20405.000000
26528.000000,47213.000000,48645.000000,20391.000000
26623.000000,47263.000000,48707.000000,20443.000000
26714.000000,47436.000000,48761.000000,20434.000000
26756.000000,47454.000000,48790.000000,20467.000000
26817.000000,47502.000000,48818.000000,20481.000000
26827.000000,47522.000000,48824.000000,20473.000000
26886.000000,47603.000000,48873.000000,20482.000000
26892.000000,47593.000000,48887.000000,20479.000000
26901.000000,47611.000000,48863.000000,20493.000000
26890.000000,47645.000000,48899.000000,20494.000000
26935.000000,47608.000000,48888.000000,20474.000000
26893.000000,47621.000000,48907.000000,20489.000000
26929.000000,47603.000000,48903.000000,20501.000000
26851.000000,47633.000000,48885.000000,20496.000000
26870.000000,47597.000000,48870.000000,20500.000000
26858.000000,47606.000000,48880.000000,20481.000000
26826.000000,47577.000000,48865.000000,20489.000000
26850.000000,47581.000000,48875.000000,20503.000000
26829.000000,47569.000000,48875.000000,20476.000000
26805.000000,47574.000000,48848.000000,20506.000000
26797.000000,47547.000000,48874.000000,20465.000000
26823.000000,47519.000000,48832.000000,20488.000000
26803.000000,47538.000000,48839.000000,20474.000000
26780.000000,47482.000000,48813.000000,20489.000000
26788.000000,47510.000000,48822.000000,20457.000000
26775.000000,47505.000000,48810.000000,20463.000000
26764.000000,47448.000000,48790.000000,20466.000000
26748.000000,47459.000000,48835.000000,20491.000000
26761.000000,47457.000000,48794.000000,20475.000000
26728.000000,47419.000000,48793.000000,20450.000000
26728.000000,47438.000000,48783.000000,20459.000000
26715.000000,47453.000000,48779.000000,20432.000000
26697.000000,47441.000000,48794.000000,20465.000000
26680.000000,47382.000000,48740.000000,20436.000000
26686.000000,47411.000000,48749.000000,20460.000000
26695.000000,47414.000000,48745.000000,20432.000000
26664.000000,47377.000000,48745.000000,20459.000000
26679.000000,47382.000000,48737.000000,20430.000000
26636.000000,47403.000000,48747.000000,20463.000000
26655.000000,47346.000000,48717.000000,20457.000000
26625.000000,47366.000000,48745.000000,20409.000000
26640.000000,47343.000000,48722.000000,20442.000000
26606.000000,47335.000000,48722.000000,20416.000000
26641.000000,47323.000000,48703.000000,20429.000000
26591.000000,47322.000000,48713.000000,20429.000000
26604.000000,47285.000000,48724.000000,20461.000000
26602.000000,47258.000000,48710.000000,20443.000000
26562.000000,47292.000000,48699.000000,20431.000000
26590.000000,47274.000000,48677.000000,20428.000000
26548.000000,47257.000000,48695.000000,20421.000000
26562.000000,47241.000000,48668.000000,20429.000000
26546.000000,47261.000000,48658.000000,20439.000000
26580.000000,47242.000000,48671.000000,20444.000000
26516.000000,47267.000000,48651.000000,20417.000000
26516.000000,47219.000000,48660.000000,20444.000000
26529.000000,47219.000000,48653.000000,20398.000000
26503.000000,47220.000000,48657.000000,20414.000000
26489.000000,47190.000000,48651.000000,20407.000000
26473.000000,47218.000000,48626.000000,20417.000000
26473.000000,47180.000000,48627.000000,20416.000000
26452.000000,47185.000000,48627.000000,20394.000000
26470.000000,47150.000000,48633.000000,20415.000000
26471.000000,47160.000000,48607.000000,20396.000000
26422.000000,47134.000000,48634.000000,20404.000000
26413.000000,47097.000000,48603.000000,20409.000000
26399.000000,47126.000000,48579.000000,20423.000000
26412.000000,47071.000000,48556.000000,20397.000000
26349.000000,47080.000000,48594.000000,20395.000000
26387.000000,47097.000000,48547.000000,20381.000000
26382.000000,47081.000000,48544.000000,20384.000000
26324.000000,47058.000000,48569.000000,20375.000000
26376.000000,47049.000000,48552.000000,20382.000000
26318.000000,47043.000000,48558.000000,20394.000000
26314.000000,47044.000000,48507.000000,20352.000000
26284.000000,47011.000000,48512.000000,20387.000000
26293.000000,47003.000000,48499.000000,20365.000000
26253.000000,47001.000000,48512.000000,20382.000000
26330.000000,46987.000000,48491.000000,20358.000000
26255.000000,46960.000000,48505.000000,20362.000000
26249.000000,46944.000000,48481.000000,20351.000000
26207.000000,46971.000000,48485.000000,20358.000000
26217.000000,46944.000000,48480.000000,20375.000000
26182.000000,46957.000000,48482.000000,20331.000000
26189.000000,46945.000000,48463.000000,20338.000000
26182.000000,46957.000000,48454.000000,20353.000000
26174.000000,46927.000000,48467.000000,20351.000000
26198.000000,46899.000000,48446.000000,20328.000000
26162.000000,46888.000000,48474.000000,20355.000000
26163.000000,46871.000000,48417.000000,20361.000000
26138.000000,46880.000000,48448.000000,20322.000000
26134.000000,46858.000000,48427.000000,20349.000000
26100.000000,46861.000000,48415.000000,20321.000000
26102.000000,46851.000000,48384.000000,20333.000000
26108.000000,46854.000000,48401.000000,20311.000000
26079.000000,46837.000000,48428.000000,20314.000000
26071.000000,46836.000000,48409.000000,20299.000000
26056.000000,46817.000000,48409.000000,20320.000000
26078.000000,46810.000000,48380.000000,20331.000000
26035.000000,46778.000000,48394.000000,20302.000000
26047.000000,46787.000000,48371.000000,20334.000000
26058.000000,46797.000000,48365.000000,20333.000000
26024.000000,46753.000000,48340.000000,20291.000000
26005.000000,46771.000000,48380.000000,20291.000000
25975.000000,46749.000000,48340.000000,20330.000000
25976.000000,46759.000000,48344.000000,20324.000000
25990.000000,46721.000000,48352.000000,20293.000000
26004.000000,46715.000000,48336.000000,20283.000000
25969.000000,46697.000000,48362.000000,20311.000000
25953.000000,46687.000000,48311.000000,20289.000000
25939.000000,46700.000000,48337.000000,20304.000000
25944.000000,46665.000000,48284.000000,20322.000000
25926.000000,46681.000000,48323.000000,20293.000000
25927.000000,46647.000000,48311.000000,20317.000000
25916.000000,46658.000000,48319.000000,20311.000000
25894.000000,46625.000000,48291.000000,20305.000000
25890.000000,46633.000000,48264.000000,20319.000000
25885.000000,46590.000000,48295.000000,20293.000000
25913.000000,46604.000000,48238.000000,20302.000000
25856.000000,46552.000000,48275.000000,20301.000000
25828.000000,46584.000000,48253.000000,20320.000000
25839.000000,46575.000000,48246.000000,20286.000000
25827.000000,46553.000000,48221.000000,20285.000000
25809.000000,46566.000000,48227.000000,20308.000000
25827.000000,46531.000000,48215.000000,20307.000000
25828.000000,46536.000000,48226.000000,20301.000000
25783.000000,46530.000000,48226.000000,20294.000000
25809.000000,46567.000000,48178.000000,20283.000000
25774.000000,46549.000000,48210.000000,20314.000000
25776.000000,46512.000000,48213.000000,20297.000000
25754.000000,46506.000000,48191.000000,20286.000000
25771.000000,46473.000000,48200.000000,20296.000000
25786.000000,46503.000000,48186.000000,20267.000000
25736.000000,46483.000000,48186.000000,20299.000000
25783.000000,46460.000000,48188.000000,20329.000000
25743.000000,46492.000000,48184.000000,20273.000000
25767.000000,46449.000000,48156.000000,20304.000000
25775.000000,46498.000000,48161.000000,20282.000000
25774.000000,46490.000000,48159.000000,20290.000000
25759.000000,46486.000000,48179.000000,20287.000000
25763.000000,46493.000000,48198.000000,20298.000000
25770.000000,46457.000000,48192.000000,20292.000000
25800.000000,46488.000000,48189.000000,20294.000000
25816.000000,46468.000000,48196.000000,20292.000000
25809.000000,46464.000000,48198.000000,20279.000000
25815.000000,46500.000000,48213.000000,20305.000000
25802.000000,46499.000000,48221.000000,20299.000000
25868.000000,46471.000000,48210.000000,20326.000000
25833.000000,46533.000000,48210.000000,20297.000000
25855.000000,46508.000000,48207.000000,20347.000000
25862.000000,46551.000000,48266.000000,20313.000000
25858.000000,46530.000000,48248.000000,20342.000000
25871.000000,46560.000000,48213.000000,20307.000000
25875.000000,46502.000000,48251.000000,20320.000000
25890.000000,46528.000000,48224.000000,20322.000000
25860.000000,46534.000000,48236.000000,20315.000000
25877.000000,46536.000000,48239.000000,20313.000000
25902.000000,46559.000000,48244.000000,20333.000000
25911.000000,46553.000000,48223.000000,20335.000000
25877.000000,46572.000000,48267.000000,20327.000000
25907.000000,46523.000000,48225.000000,20347.000000
25871.000000,46561.000000,48244.000000,20328.000000
25925.000000,46516.000000,48245.000000,20342.000000
25924.000000,46533.000000,48229.000000,20334.000000
25922.000000,46507.000000,48230.000000,20336.000000
25941.000000,46504.000000,48248.000000,20326.000000
25934.000000,46548.000000,48247.000000,20321.000000
25929.000000,46529.000000,48235.000000,20347.000000
25951.000000,46551.000000,48280.000000,20356.000000
25953.000000,46542.000000,48250.000000,20331.000000
25968.000000,46590.000000,48287.000000,20350.000000
25968.000000,46565.000000,48250.000000,20348.000000
25991.000000,46598.000000,48285.000000,20335.000000
26021.000000,46612.000000,48337.000000,20342.000000
26004.000000,46665.000000,48298.000000,20346.000000
26047.000000,46657.000000,48325.000000,20351.000000
26076.000000,46689.000000,48338.000000,20343.000000
26108.000000,46686.000000,48344.000000,20387.000000
26142.000000,46703.000000,48365.000000,20352.000000
26134.000000,46729.000000,48384.000000,20367.000000
26182.000000,46783.000000,48381.000000,20388.000000
26193.000000,46819.000000,48372.000000,20385.000000
26227.000000,46826.000000,48405.000000,20407.000000
26234.000000,46881.000000,48417.000000,20383.000000
26234.000000,46920.000000,48488.000000,20404.000000
26294.000000,46928.000000,48467.000000,20407.000000
26293.000000,46891.000000,48501.000000,20398.000000
26338.000000,46940.000000,48497.000000,20428.000000
26337.000000,46980.000000,48483.000000,20435.000000
26406.000000,46982.000000,48522.000000,20417.000000
26414.000000,47016.000000,48529.000000,20416.000000
26425.000000,47023.000000,48531.000000,20419.000000
26451.000000,47061.000000,48534.000000,20420.000000
26493.000000,47065.000000,48593.000000,20459.000000
26514.000000,47120.000000,48568.000000,20436.000000
26514.000000,47125.000000,48587.000000,20464.000000
26533.000000,47185.000000,48579.000000,20466.000000
26567.000000,47207.000000,48628.000000,20473.000000
26664.000000,47181.000000,48632.000000,20473.000000
26638.000000,47249.000000,48685.000000,20443.000000
26691.000000,47287.000000,48703.000000,20496.000000
26702.000000,47357.000000,48735.000000,20488.000000
26784.000000,47370.000000,48735.000000,20522.000000
26774.000000,47405.000000,48763.000000,20510.000000
26823.000000,47495.000000,48796.000000,20531.000000
26906.000000,47526.000000,48842.000000,20539.000000
26910.000000,47577.000000,48877.000000,20544.000000
26951.000000,47625.000000,48884.000000,20564.000000
26991.000000,47663.000000,48921.000000,20552.000000
27023.000000,47706.000000,48926.000000,20572.000000
27032.000000,47719.000000,48943.000000,20556.000000
27074.000000,47719.000000,48932.000000,20576.000000
27051.000000,47716.000000,48969.000000,20554.000000
27119.000000,47765.000000,48948.000000,20560.000000
27054.000000,47765.000000,48961.000000,20587.000000
27060.000000,47731.000000,48961.000000,20561.000000
27055.000000,47745.000000,48959.000000,20558.000000
27036.000000,47746.000000,48943.000000,20588.000000
27102.000000,47720.000000,48941.000000,20573.000000
27044.000000,47709.000000,48933.000000,20576.000000
27055.000000,47690.000000,48915.000000,20579.000000
27023.000000,47727.000000,48917.000000,20580.000000
27016.000000,47679.000000,48923.000000,20571.000000
27004.000000,47690.000000,48909.000000,20577.000000
27011.000000,47675.000000,48919.000000,20548.000000
26986.000000,47667.000000,48882.000000,20571.000000
26975.000000,47652.000000,48925.000000,20554.000000
26997.000000,47638.000000,48931.000000,20559.000000
26947.000000,47627.000000,48889.000000,20554.000000
26991.000000,47625.000000,48877.000000,20553.000000
26901.000000,47639.000000,48895.000000,20527.000000
26956.000000,47618.000000,48873.000000,20572.000000
26930.000000,47619.000000,48871.000000,20538.000000
26953.000000,47599.000000,48846.000000,20553.000000
26894.000000,47608.000000,48838.000000,20530.000000
26923.000000,47550.000000,48850.000000,20546.000000
26911.000000,47576.000000,48852.000000,20549.000000
26876.000000,47546.000000,48849.000000,20547.000000
26895.000000,47587.000000,48847.000000,20508.000000
26845.000000,47573.000000,48830.000000,20552.000000
26852.000000,47552.000000,48817.000000,20538.000000
26860.000000,47541.000000,48841.000000,20537.000000
26850.000000,47518.000000,48819.000000,20530.000000
26850.000000,47520.000000,48790.000000,20550.000000
26828.000000,47496.000000,48813.000000,20539.000000
26832.000000,47514.000000,48773.000000,20518.000000
26815.000000,47480.000000,48802.000000,20519.000000
26805.000000,47466.000000,48776.000000,20504.000000
26794.000000,47475.000000,48782.000000,20558.000000
26788.000000,47476.000000,48796.000000,20516.000000
26784.000000,47462.000000,48804.000000,20542.000000
26766.000000,47457.000000,48778.000000,20521.000000
26751.000000,47479.000000,48767.000000,20503.000000
26766.000000,47428.000000,48788.000000,20531.000000
26724.000000,47447.000000,48749.000000,20502.000000
26710.000000,47407.000000,48761.000000,20520.000000
26735.000000,47416.000000,48715.000000,20490.000000
26710.000000,47405.000000,48733.000000,20507.000000
26725.000000,47400.000000,48743.000000,20501.000000
26695.000000,47389.000000,48709.000000,20536.000000
26697.000000,47370.000000,48704.000000,20510.000000
26653.000000,47392.000000,48717.000000,20515.000000
26644.000000,47371.000000,48698.000000,20502.000000
26639.000000,47330.000000,48715.000000,20512.000000
26650.000000,47334.000000,48676.000000,20485.000000
26638.000000,47302.000000,48677.000000,20487.000000
26602.000000,47319.000000,48676.000000,20465.000000
26602.000000,47308.000000,48684.000000,20482.000000
26599.000000,47308.000000,48689.000000,20482.000000
26631.000000,47317.000000,48648.000000,20480.000000
26567.000000,47290.000000,48678.000000,20470.000000
26609.000000,47282.000000,48644.000000,20475.000000
26549.000000,47277.000000,48661.000000,20467.000000
26533.000000,47270.000000,48642.000000,20485.000000
26512.000000,47267.000000,48617.000000,20475.000000
26534.000000,47257.000000,48634.000000,20480.000000
26551.000000,47253.000000,48625.000000,20474.000000
26530.000000,47224.000000,48605.000000,20457.000000
26528.000000,47220.000000,48599.000000,20446.000000
26486.000000,47204.000000,48621.000000,20447.000000
26507.000000,47203.000000,48602.000000,20458.000000
26508.000000,47182.000000,48594.000000,20460.000000
26458.000000,47188.000000,48600.000000,20458.000000
26448.000000,47168.000000,48606.000000,20446.000000
26457.000000,47172.000000,48613.000000,20452.000000
26456.000000,47157.000000,48562.000000,20463.000000
26443.000000,47172.000000,48549.000000,20440.000000
26436.000000,47157.000000,48575.000000,20444.000000
26438.000000,47154.000000,48578.000000,20434.000000
26410.000000,47097.000000,48572.000000,20451.000000
26420.000000,47101.000000,48556.000000,20417.000000
26375.000000,47104.000000,48554.000000,20424.000000
26391.000000,47107.000000,48544.000000,20430.000000
26379.000000,47095.000000,48527.000000,20431.000000
26415.000000,47089.000000,48534.000000,20426.000000
26356.000000,47117.000000,48533.000000,20427.000000
26345.000000,47060.000000,48541.000000,20421.000000
26350.000000,47058.000000,48508.000000,20429.000000
26321.000000,47054.000000,48540.000000,20431.000000
26373.000000,47057.000000,48504.000000,20421.000000
26339.000000,47035.000000,48544.000000,20395.000000
26301.000000,47042.000000,48510.000000,20412.000000
26296.000000,47035.000000,48455.000000,20412.000000
26325.000000,46993.000000,48514.000000,20424.000000
26333.000000,46969.000000,48498.000000,20413.000000
26275.000000,47022.000000,48509.000000,20404.000000
26296.000000,46958.000000,48496.000000,20427.000000
26280.000000,46994.000000,48477.000000,20390.000000
26284.000000,46979.000000,48479.000000,20409.000000
26299.000000,46963.000000,48474.000000,20391.000000
26302.000000,46953.000000,48477.000000,20403.000000
26299.000000,46942.000000,48483.000000,20389.000000
26236.000000,46937.000000,48485.000000,20394.000000
26268.000000,46960.000000,48435.000000,20385.000000
26254.000000,46965.000000,48439.000000,20398.000000
26269.000000,46938.000000,48488.000000,20394.000000
26267.000000,46968.000000,48459.000000,20398.000000
26257.000000,46910.000000,48470.000000,20403.000000
26271.000000,46951.000000,48478.000000,20366.000000
26259.000000,46926.000000,48463.000000,20382.000000
26260.000000,46942.000000,48457.000000,20417.000000
26282.000000,46962.000000,48455.000000,20397.000000
26255.000000,46927.000000,48470.000000,20392.000000
26285.000000,46970.000000,48442.000000,20395.000000
26244.000000,46958.000000,48455.000000,20415.000000
26281.000000,46936.000000,48469.000000,20392.000000
26266.000000,46938.000000,48485.000000,20393.000000
26269.000000,46942.000000,48467.000000,20429.000000
26268.000000,46961.000000,48456.000000,20375.000000
26278.000000,46939.000000,48454.000000,20401.000000
26267.000000,46974.000000,48475.000000,20373.000000
26229.000000,46959.000000,48477.000000,20396.000000
26268.000000,46956.000000,48487.000000,20380.000000
26259.000000,46940.000000,48468.000000,20385.000000
26268.000000,46946.000000,48448.000000,20378.000000
26241.000000,46919.000000,48493.000000,20391.000000
26250.000000,46915.000000,48459.000000,20368.000000
26215.000000,46929.000000,48468.000000,20399.000000
26205.000000,46915.000000,48439.000000,20379.000000
26205.000000,46929.000000,48421.000000,20358.000000
26186.000000,46899.000000,48425.000000,20371.000000
26207.000000,46908.000000,48416.000000,20369.000000
26184.000000,46870.000000,48420.000000,20362.000000
26222.000000,46886.000000,48402.000000,20361.000000
26195.000000,46894.000000,48422.000000,20365.000000
26221.000000,46933.000000,48412.000000,20357.000000
26219.000000,46872.000000,48437.000000,20368.000000
26236.000000,46895.000000,48450.000000,20360.000000
26245.000000,46906.000000,48438.000000,20360.000000
26275.000000,46929.000000,48445.000000,20366.000000
26261.000000,46972.000000,48475.000000,20365.000000
26305.000000,46960.000000,48452.000000,20377.000000
26277.000000,46953.000000,48482.000000,20369.000000
26308.000000,46979.000000,48487.000000,20369.000000
26312.000000,47030.000000,48488.000000,20378.000000
26326.000000,47021.000000,48502.000000,20410.000000
26353.000000,47036.000000,48492.000000,20378.000000
26391.000000,47042.000000,48495.000000,20380.000000
26397.000000,47059.000000,48513.000000,20383.000000
26406.000000,47077.000000,48520.000000,20404.000000
26403.000000,47090.000000,48513.000000,20386.000000
26430.000000,47115.000000,48527.000000,20386.000000
26419.000000,47139.000000,48546.000000,20396.000000
26447.000000,47108.000000,48563.000000,20424.000000
26454.000000,47139.000000,48534.000000,20392.000000
26437.000000,47182.000000,48584.000000,20420.000000
26494.000000,47173.000000,48587.000000,20426.000000
26487.000000,47197.000000,48601.000000,20414.000000
26521.000000,47198.000000,48588.000000,20420.000000
26490.000000,47221.000000,48620.000000,20419.000000
26544.000000,47232.000000,48614.000000,20439.000000
26572.000000,47275.000000,48615.000000,20422.000000
26564.000000,47275.000000,48637.000000,20447.000000
26593.000000,47345.000000,48646.000000,20440.000000
26662.000000,47345.000000,48649.000000,20452.000000
26654.000000,47375.000000,48682.000000,20460.000000
26673.000000,47385.000000,48678.000000,20452.000000
26749.000000,47442.000000,48705.000000,20447.000000
26748.000000,47476.000000,48735.000000,20470.000000
26798.000000,47505.000000,48739.000000,20467.000000
26826.000000,47559.000000,48780.000000,20482.000000
26891.000000,47584.000000,48820.000000,20474.000000
26913.000000,47674.000000,48892.000000,20513.000000
27004.000000,47728.000000,48890.000000,20498.000000
27009.000000,47790.000000,48939.000000,20524.000000
27081.000000,47837.000000,48949.000000,20540.000000
27109.000000,47880.000000,48964.000000,20532.000000
27092.000000,47917.000000,48972.000000,20531.000000
27144.000000,47936.000000,48998.000000,20544.000000
27126.000000,47938.000000,49010.000000,20566.000000
27127.000000,47914.000000,49007.000000,20554.000000
27121.000000,47927.000000,49015.000000,20546.000000
27083.000000,47890.000000,48981.000000,20548.000000
27092.000000,47929.000000,48975.000000,20552.000000
27115.000000,47871.000000,48986.000000,20557.000000
27082.000000,47882.000000,48950.000000,20544.000000
27085.000000,47875.000000,48944.000000,20549.000000
27055.000000,47890.000000,48929.000000,20551.000000
27053.000000,47846.000000,48934.000000,20543.000000
27037.000000,47846.000000,48921.000000,20506.000000
27033.000000,47828.000000,48916.000000,20546.000000
27019.000000,47822.000000,48911.000000,20531.000000
26999.000000,47772.000000,48902.000000,20535.000000
26977.000000,47798.000000,48889.000000,20524.000000
26986.000000,47740.000000,48906.000000,20538.000000
26941.000000,47729.000000,48879.000000,20544.000000
26931.000000,47705.000000,48898.000000,20523.000000
26930.000000,47715.000000,48862.000000,20535.000000
26904.000000,47689.000000,48880.000000,20532.000000
26929.000000,47677.000000,48829.000000,20517.000000
26871.000000,47692.000000,48828.000000,20533.000000
26888.000000,47659.000000,48823.000000,20529.000000
26852.000000,47638.000000,48804.000000,20502.000000
26852.000000,47634.000000,48796.000000,20495.000000
26809.000000,47632.000000,48804.000000,20506.000000
26826.000000,47613.000000,48781.000000,20491.000000
26822.000000,47603.000000,48794.000000,20483.000000
26815.000000,47602.000000,48782.000000,20481.000000
26813.000000,47606.000000,48771.000000,20512.000000
26752.000000,47569.000000,48798.000000,20504.000000
26796.000000,47578.000000,48748.000000,20487.000000
26760.000000,47555.000000,48771.000000,20497.000000
26776.000000,47518.000000,48741.000000,20503.000000
26722.000000,47531.000000,48760.000000,20495.000000
26746.000000,47508.000000,48722.000000,20515.000000
26708.000000,47505.000000,48748.000000,20481.000000
26732.000000,47505.000000,48718.000000,20460.000000
26652.000000,47505.000000,48732.000000,20480.000000
26705.000000,47470.000000,48715.000000,20490.000000
26680.000000,47481.000000,48688.000000,20484.000000
26685.000000,47464.000000,48676.000000,20499.000000
26691.000000,47458.000000,48684.000000,20464.000000
26655.000000,47461.000000,48723.000000,20468.000000
26641.000000,47451.000000,48700.000000,20491.000000
26637.000000,47431.000000,48702.000000,20478.000000
26650.000000,47450.000000,48678.000000,20471.000000
26633.000000,47457.000000,48707.000000,20506.000000
26618.000000,47386.000000,48673.000000,20506.000000
26635.000000,47453.000000,48674.000000,20491.000000
26620.000000,47390.000000,48659.000000,20479.000000
26608.000000,47389.000000,48628.000000,20457.000000
26587.000000,47351.000000,48665.000000,20503.000000
26596.000000,47352.000000,48632.000000,20461.000000
26585.000000,47337.000000,48650.000000,20477.000000
26569.000000,47330.000000,48635.000000,20471.000000
26556.000000,47349.000000,48639.000000,20436.000000
26582.000000,47340.000000,48632.000000,20484.000000
26547.000000,47321.000000,48629.000000,20472.000000
26566.000000,47305.000000,48601.000000,20473.000000
26544.000000,47306.000000,48599.000000,20450.000000
26539.000000,47262.000000,48603.000000,20468.000000
26542.000000,47279.000000,48609.000000,20433.000000
26474.000000,47267.000000,48575.000000,20472.000000
26498.000000,47270.000000,48591.000000,20452.000000
26508.000000,47279.000000,48563.000000,20438.000000
26502.000000,47247.000000,48568.000000,20447.000000
26473.000000,47228.000000,48536.000000,20454.000000
26467.000000,47203.000000,48552.000000,20472.000000
26496.000000,47198.000000,48528.000000,20433.000000
26451.000000,47194.000000,48555.000000,20438.000000
26466.000000,47192.000000,48541.000000,20434.000000
26436.000000,47156.000000,48548.000000,20432.000000
26472.000000,47157.000000,48538.000000,20444.000000
26407.000000,47161.000000,48509.000000,20423.000000
26421.000000,47117.000000,48525.000000,20450.000000
26396.000000,47139.000000,48464.000000,20420.000000
26406.000000,47091.000000,48460.000000,20429.000000
26387.000000,47129.000000,48495.000000,20443.000000
26351.000000,47078.000000,48467.000000,20424.000000
26369.000000,47070.000000,48488.000000,20418.000000
26317.000000,47064.000000,48483.000000,20399.000000
26352.000000,47032.000000,48429.000000,20419.000000
26328.000000,47024.000000,48435.000000,20406.000000
26291.000000,46981.000000,48448.000000,20428.000000
26283.000000,46991.000000,48418.000000,20422.000000
26247.000000,46978.000000,48433.000000,20401.000000
26271.000000,46973.000000,48416.000000,20371.000000
26255.000000,46959.000000,48360.000000,20382.000000
26239.000000,46940.000000,48404.000000,20383.000000
26215.000000,46962.000000,48381.000000,20416.000000
26203.000000,46913.000000,48351.000000,20405.000000
26172.000000,46906.000000,48352.000000,20388.000000
26163.000000,46865.000000,48349.000000,20381.000000
26125.000000,46842.000000,48317.000000,20378.000000
26104.000000,46826.000000,48304.000000,20350.000000
26106.000000,46798.000000,48295.000000,20393.000000
26069.000000,46773.000000,48308.000000,20354.000000
26104.000000,46750.000000,48248.000000,20346.000000
26007.000000,46764.000000,48242.000000,20379.000000
26053.000000,46708.000000,48219.000000,20369.000000
26013.000000,46714.000000,48199.000000,20357.000000
26009.000000,46698.000000,48225.000000,20355.000000
25975.000000,46700.000000,48177.000000,20358.000000
25951.000000,46639.000000,48176.000000,20341.000000
25904.000000,46635.000000,48179.000000,20333.000000
25889.000000,46612.000000,48196.000000,20352.000000
25903.000000,46576.000000,48131.000000,20348.000000
25885.000000,46584.000000,48178.000000,20333.000000
25853.000000,46597.000000,48119.000000,20346.000000
25802.000000,46561.000000,48132.000000,20334.000000
25859.000000,46560.000000,48100.000000,20322.000000
25820.000000,46530.000000,48091.000000,20325.000000
25774.000000,46505.000000,48093.000000,20308.000000
25813.000000,46521.000000,48098.000000,20290.000000
25812.000000,46459.000000,48104.000000,20304.000000
25779.000000,46517.000000,48088.000000,20306.000000
25786.000000,46460.000000,48071.000000,20332.000000
25763.000000,46440.000000,48069.000000,20319.000000
25717.000000,46467.000000,48074.000000,20306.000000
25737.000000,46408.000000,48060.000000,20310.000000
25723.000000,46443.000000,48053.000000,20292.000000
25742.000000,46384.000000,48032.000000,20327.000000
25734.000000,46410.000000,48022.000000,20312.000000
25719.000000,46367.000000,48004.000000,20307.000000
25676.000000,46377.000000,48017.000000,20286.000000
25705.000000,46348.000000,48026.000000,20291.000000
25692.000000,46389.000000,47998.000000,20291.000000
25647.000000,46340.000000,48006.000000,20282.000000
25667.000000,46318.000000,48006.000000,20297.000000
25636.000000,46345.000000,47972.000000,20291.000000
25638.000000,46304.000000,47987.000000,20309.000000
25643.000000,46313.000000,47979.000000,20300.000000
25627.000000,46296.000000,47959.000000,20310.000000
25639.000000,46301.000000,47979.000000,20281.000000
25593.000000,46291.000000,47963.000000,20294.000000
25599.000000,46293.000000,47963.000000,20289.000000
25596.000000,46278.000000,47982.000000,20292.000000
25616.000000,46273.000000,47951.000000,20309.000000
25572.000000,46263.000000,47964.000000,20288.000000
25584.000000,46275.000000,47973.000000,20278.000000
25579.000000,46274.000000,47965.000000,20285.000000
25596.000000,46266.000000,47930.000000,20267.000000
25546.000000,46290.000000,47963.000000,20262.000000
25554.000000,46239.000000,47925.000000,20294.000000
25534.000000,46279.000000,47936.000000,20280.000000
25557.000000,46253.000000,47969.000000,20283.000000
25550.000000,46255.000000,47946.000000,20298.000000
25560.000000,46214.000000,47943.000000,20291.000000
25557.000000,46253.000000,47934.000000,20288.000000
25560.000000,46245.000000,47931.000000,20309.000000
25550.000000,46231.000000,47946.000000,20255.000000
25548.000000,46256.000000,47949.000000,20306.000000
25570.000000,46249.000000,47939.000000,20294.000000
25569.000000,46245.000000,47966.000000,20276.000000
25597.000000,46271.000000,47967.000000,20301.000000
25587.000000,46270.000000,47991.000000,20286.000000
25634.000000,46273.000000,47978.000000,20302.000000
25630.000000,46293.000000,48024.000000,20298.000000
25667.000000,46335.000000,48004.000000,20303.000000
25694.000000,46325.000000,48008.000000,20272.000000
25717.000000,46364.000000,48028.000000,20297.000000
25700.000000,46385.000000,48056.000000,20311.000000
25765.000000,46434.000000,48057.000000,20325.000000
25783.000000,46430.000000,48090.000000,20327.000000
25794.000000,46469.000000,48095.000000,20353.000000
25816.000000,46487.000000,48120.000000,20314.000000
25845.000000,46501.000000,48117.000000,20333.000000
25877.000000,46520.000000,48153.000000,20334.000000
25910.000000,46541.000000,48166.000000,20343.000000
25890.000000,46622.000000,48177.000000,20345.000000
25931.000000,46608.000000,48170.000000,20361.000000
25944.000000,46655.000000,48192.000000,20344.000000
25989.000000,46664.000000,48212.000000,20357.000000
26037.000000,46700.000000,48235.000000,20356.000000
26047.000000,46723.000000,48257.000000,20405.000000
26054.000000,46763.000000,48259.000000,20380.000000
26095.000000,46730.000000,48288.000000,20382.000000
26132.000000,46811.000000,48277.000000,20402.000000
26134.000000,46792.000000,48310.000000,20404.000000
26206.000000,46881.000000,48369.000000,20383.000000
26228.000000,46881.000000,48355.000000,20404.000000
26245.000000,46946.000000,48398.000000,20390.000000
26308.000000,46974.000000,48417.000000,20438.000000
26366.000000,47015.000000,48431.000000,20435.000000
26369.000000,47042.000000,48490.000000,20431.000000
26474.000000,47108.000000,48490.000000,20446.000000
26491.000000,47118.000000,48529.000000,20453.000000
26550.000000,47197.000000,48575.000000,20455.000000
26595.000000,47252.000000,48601.000000,20456.000000
26632.000000,47277.000000,48627.000000,20487.000000
26663.000000,47328.000000,48663.000000,20485.000000
26722.000000,47373.000000,48689.000000,20510.000000
26767.000000,47400.000000,48716.000000,20495.000000
26800.000000,47460.000000,48736.000000,20532.000000
26810.000000,47527.000000,48749.000000,20513.000000
26887.000000,47565.000000,48774.000000,20517.000000
26882.000000,47582.000000,48812.000000,20538.000000
26882.000000,47602.000000,48822.000000,20539.000000
26922.000000,47609.000000,48825.000000,20534.000000
26904.000000,47581.000000,48834.000000,20529.000000
26907.000000,47643.000000,48814.000000,20525.000000
26919.000000,47631.000000,48832.000000,20560.000000
26900.000000,47639.000000,48838.000000,20542.000000
26894.000000,47608.000000,48837.000000,20566.000000
26887.000000,47610.000000,48836.000000,20552.000000
26868.000000,47586.000000,48857.000000,20555.000000
26902.000000,47619.000000,48825.000000,20551.000000
26861.000000,47587.000000,48836.000000,20552.000000
26890.000000,47560.000000,48818.000000,20544.000000
26851.000000,47572.000000,48840.000000,20530.000000
26884.000000,47591.000000,48828.000000,20553.000000
26863.000000,47582.000000,48836.000000,20529.000000
26870.000000,47573.000000,48817.000000,20546.000000
26869.000000,47575.000000,48790.000000,20545.000000
26893.000000,47540.000000,48847.000000,20570.000000
26819.000000,47600.000000,48823.000000,20545.000000
26873.000000,47547.000000,48833.000000,20544.000000
26903.000000,47589.000000,48843.000000,20534.000000
26879.000000,47562.000000,48847.000000,20550.000000
26895.000000,47562.000000,48821.000000,20529.000000
26891.000000,47571.000000,48858.000000,20540.000000
26902.000000,47554.000000,48842.000000,20554.000000
26899.000000,47560.000000,48844.000000,20556.000000
26942.000000,47569.000000,48856.000000,20548.000000
26913.000000,47585.000000,48873.000000,20532.000000
26960.000000,47592.000000,48869.000000,20574.000000
26970.000000,47593.000000,48874.000000,20552.000000
26975.000000,47627.000000,48865.000000,20592.000000
26976.000000,47635.000000,48875.000000,20565.000000
26999.000000,47603.000000,48907.000000,20550.000000
27012.000000,47629.000000,48875.000000,20561.000000
26992.000000,47568.000000,48895.000000,20544.000000
27030.000000,47609.000000,48861.000000,20549.000000
26988.000000,47590.000000,48910.000000,20560.000000
26995.000000,47604.000000,48920.000000,20548.000000
26968.000000,47618.000000,48886.000000,20560.000000
26979.000000,47581.000000,48889.000000,20540.000000
26967.000000,47584.000000,48882.000000,20560.000000
26963.000000,47535.000000,48867.000000,20534.000000
26954.000000,47544.000000,48864.000000,20529.000000
26942.000000,47560.000000,48875.000000,20579.000000
26943.000000,47529.000000,48850.000000,20549.000000
26939.000000,47517.000000,48845.000000,20525.000000
26937.000000,47489.000000,48819.000000,20544.000000
26881.000000,47534.000000,48859.000000,20547.000000
26900.000000,47488.000000,48804.000000,20540.000000
26875.000000,47479.000000,48806.000000,20545.000000
26911.000000,47494.000000,48816.000000,20528.000000
26905.000000,47455.000000,48788.000000,20523.000000
26858.000000,47474.000000,48810.000000,20535.000000
26865.000000,47430.000000,48803.000000,20542.000000
26872.000000,47435.000000,48804.000000,20522.000000
26858.000000,47393.000000,48797.000000,20527.000000
26867.000000,47411.000000,48777.000000,20530.000000
26826.000000,47407.000000,48775.000000,20533.000000
26817.000000,47412.000000,48776.000000,20531.000000
26784.000000,47361.000000,48754.000000,20528.000000
26797.000000,47379.000000,48747.000000,20546.000000
26773.000000,47361.000000,48763.000000,20544.000000
26797.000000,47348.000000,48713.000000,20532.000000
26767.000000,47367.000000,48723.000000,20534.000000
26792.000000,47321.000000,48728.000000,20502.000000
26788.000000,47306.000000,48730.000000,20508.000000
26771.000000,47320.000000,48718.000000,20534.000000
26748.000000,47271.000000,48725.000000,20514.000000
26713.000000,47300.000000,48728.000000,20510.000000
26739.000000,47291.000000,48721.000000,20517.000000
26720.000000,47274.000000,48699.000000,20521.000000
26718.000000,47267.000000,48705.000000,20499.000000
26723.000000,47295.000000,48695.000000,20491.000000
26710.000000,47238.000000,48683.000000,20512.000000
26678.000000,47275.000000,48668.000000,20485.000000
26682.000000,47244.000000,48671.000000,20479.000000
26678.000000,47239.000000,48657.000000,20492.000000
26678.000000,47216.000000,48668.000000,20522.000000
26677.000000,47217.000000,48651.000000,20509.000000
26667.000000,47233.000000,48688.000000,20510.000000
26680.000000,47203.000000,48644.000000,20489.000000
26671.000000,47207.000000,48638.000000,20475.000000
26618.000000,47213.000000,48648.000000,20493.000000
26668.000000,47218.000000,48672.000000,20484.000000
26621.000000,47191.000000,48646.000000,20481.000000
26625.000000,47167.000000,48647.000000,20479.000000
26616.000000,47158.000000,48650.000000,20479.000000
26624.000000,47126.000000,48624.000000,20467.000000
26589.000000,47169.000000,48641.000000,20469.000000
26603.000000,47203.000000,48634.000000,20458.000000
26587.000000,47151.000000,48609.000000,20485.000000
26590.000000,47164.000000,48629.000000,20461.000000
26603.000000,47176.000000,48626.000000,20489.000000
26601.000000,47131.000000,48624.000000,20485.000000
26627.000000,47134.000000,48605.000000,20470.000000
26550.000000,47131.000000,48596.000000,20476.000000
26594.000000,47140.000000,48586.000000,20473.000000
26573.000000,47127.000000,48623.000000,20478.000000
26621.000000,47150.000000,48601.000000,20473.000000
26576.000000,47095.000000,48614.000000,20452.000000
26558.000000,47132.000000,48593.000000,20475.000000
26512.000000,47134.000000,48591.000000,20468.000000
26560.000000,47114.000000,48575.000000,20484.000000
26540.000000,47107.000000,48618.000000,20482.000000
26566.000000,47086.000000,48578.000000,20482.000000
26518.000000,47118.000000,48590.000000,20481.000000
26584.000000,47081.000000,48584.000000,20474.000000
26545.000000,47104.000000,48577.000000,20454.000000
26518.000000,47084.000000,48574.000000,20463.000000
26547.000000,47102.000000,48583.000000,20448.000000
26544.000000,47066.000000,48583.000000,20464.000000
26515.000000,47066.000000,48566.000000,20438.000000
26518.000000,47064.000000,48560.000000,20468.000000
26496.000000,47050.000000,48587.000000,20473.000000
26484.000000,47015.000000,48575.000000,20468.000000
26528.000000,47057.000000,48560.000000,20475.000000
26489.000000,47025.000000,48580.000000,20457.000000
26492.000000,47056.000000,48570.000000,20467.000000
26480.000000,47018.000000,48558.000000,20456.000000
26501.000000,47041.000000,48559.000000,20459.000000
26437.000000,47061.000000,48568.000000,20473.000000
26493.000000,47017.000000,48554.000000,20460.000000
26481.000000,47029.000000,48542.000000,20487.000000
26465.000000,47048.000000,48537.000000,20455.000000
26460.000000,47032.000000,48540.000000,20443.000000
26446.000000,47031.000000,48530.000000,20454.000000
26468.000000,47038.000000,48536.000000,20450.000000
26457.000000,46968.000000,48566.000000,20441.000000
26471.000000,46999.000000,48544.000000,20457.000000
26459.000000,46981.000000,48528.000000,20456.000000
26454.000000,47033.000000,48539.000000,20456.000000
26462.000000,46998.000000,48571.000000,20445.000000
26451.000000,47018.000000,48546.000000,20469.000000
26433.000000,47028.000000,48533.000000,20434.000000
26494.000000,47019.000000,48541.000000,20434.000000
26481.000000,47016.000000,48510.000000,20475.000000
26485.000000,47024.000000,48543.000000,20453.000000
26498.000000,47065.000000,48548.000000,20462.000000
26478.000000,47014.000000,48522.000000,20459.000000
26518.000000,47054.000000,48539.000000,20447.000000
26530.000000,47033.000000,48541.000000,20465.000000
26501.000000,47026.000000,48586.000000,20441.000000
26449.000000,47037.000000,48558.000000,20456.000000
26482.000000,47056.000000,48571.000000,20448.000000
26490.000000,47059.000000,48594.000000,20452.000000
26489.000000,47021.000000,48560.000000,20492.000000
26498.000000,47053.000000,48580.000000,20438.000000
26513.000000,47035.000000,48585.000000,20463.000000
26503.000000,47058.000000,48603.000000,20457.000000
26524.000000,47073.000000,48555.000000,20465.000000
26541.000000,47081.000000,48554.000000,20461.000000
26520.000000,47093.000000,48580.000000,20451.000000
26512.000000,47071.000000,48583.000000,20451.000000
26542.000000,47068.000000,48574.000000,20500.000000
26542.000000,47101.000000,48575.000000,20449.000000
26555.000000,47064.000000,48607.000000,20469.000000
26562.000000,47117.000000,48613.000000,20451.000000
26575.000000,47100.000000,48610.000000,20446.000000
26587.000000,47117.000000,48621.000000,20451.000000
26616.000000,47138.000000,48643.000000,20475.000000
26652.000000,47145.000000,48655.000000,20452.000000
26607.000000,47179.000000,48650.000000,20471.000000
26677.000000,47198.000000,48655.000000,20473.000000
26656.000000,47220.000000,48680.000000,20459.000000
26720.000000,47271.000000,48669.000000,20460.000000
26739.000000,47306.000000,48720.000000,20478.000000
26767.000000,47277.000000,48700.000000,20471.000000
26783.000000,47340.000000,48753.000000,20504.000000
26789.000000,47370.000000,48772.000000,20487.000000
26786.000000,47394.000000,48733.000000,20514.000000
26833.000000,47408.000000,48755.000000,20516.000000
26873.000000,47441.000000,48781.000000,20500.000000
26876.000000,47461.000000,48835.000000,20515.000000
26927.000000,47447.000000,48803.000000,20491.000000
26943.000000,47504.000000,48860.000000,20507.000000
26951.000000,47505.000000,48854.000000,20534.000000
26972.000000,47564.000000,48874.000000,20513.000000
27001.000000,47544.000000,48869.000000,20523.000000
27005.000000,47583.000000,48902.000000,20532.000000
27061.000000,47602.000000,48898.000000,20524.000000
27061.000000,47640.000000,48907.000000,20525.000000
27109.000000,47661.000000,48949.000000,20540.000000
27098.000000,47692.000000,48937.000000,20515.000000
27113.000000,47687.000000,48974.000000,20553.000000
27190.000000,47769.000000,48979.000000,20537.000000
27141.000000,47755.000000,49011.000000,20547.000000
27200.000000,47781.000000,49009.000000,20566.000000
27225.000000,47824.000000,49023.000000,20567.000000
27290.000000,47857.000000,49033.000000,20571.000000
27293.000000,47916.000000,49059.000000,20574.000000
27339.000000,47904.000000,49073.000000,20569.000000
27341.000000,47991.000000,49109.000000,20583.000000
27398.000000,48012.000000,49138.000000,20565.000000
27418.000000,48083.000000,49151.000000,20598.000000
27498.000000,48093.000000,49205.000000,20597.000000
27546.000000,48185.000000,49209.000000,20622.000000
27614.000000,48187.000000,49274.000000,20645.000000
27641.000000,48313.000000,49280.000000,20606.000000
27661.000000,48327.000000,49344.000000,20641.000000
27737.000000,48372.000000,49358.000000,20649.000000
27767.000000,48448.000000,49385.000000,20675.000000
27850.000000,48479.000000,49414.000000,20685.000000
27831.000000,48479.000000,49452.000000,20682.000000
27849.000000,48510.000000,49426.000000,20680.000000
27846.000000,48510.000000,49461.000000,20660.000000
27870.000000,48547.000000,49430.000000,20670.000000
27877.000000,48567.000000,49476.000000,20679.000000
27867.000000,48560.000000,49456.000000,20673.000000
27852.000000,48535.000000,49453.000000,20680.000000
27868.000000,48511.000000,49430.000000,20704.000000
27853.000000,48583.000000,49453.000000,20654.000000
27856.000000,48509.000000,49440.000000,20684.000000
27851.000000,48495.000000,49444.000000,20657.000000
27825.000000,48506.000000,49434.000000,20677.000000
27844.000000,48499.000000,49402.000000,20688.000000
27829.000000,48473.000000,49449.000000,20676.000000
27821.000000,48515.000000,49410.000000,20685.000000
27796.000000,48472.000000,49414.000000,20699.000000
27811.000000,48479.000000,49434.000000,20676.000000
27831.000000,48468.000000,49407.000000,20659.000000
27820.000000,48444.000000,49374.000000,20681.000000
27795.000000,48431.000000,49423.000000,20678.000000
27791.000000,48462.000000,49393.000000,20665.000000
27762.000000,48444.000000,49396.000000,20689.000000
27813.000000,48465.000000,49390.000000,20681.000000
27775.000000,48415.000000,49382.000000,20667.000000
27776.000000,48406.000000,49364.000000,20666.000000
27753.000000,48406.000000,49369.000000,20671.000000
27785.000000,48410.000000,49363.000000,20666.000000
27766.000000,48385.000000,49363.000000,20671.000000
27777.000000,48407.000000,49369.000000,20675.000000
27741.000000,48421.000000,49349.000000,20663.000000
27726.000000,48384.000000,49371.000000,20659.000000
27761.000000,48389.000000,49335.000000,20669.000000
27722.000000,48346.000000,49353.000000,20664.000000
27710.000000,48390.000000,49338.000000,20671.000000
27714.000000,48338.000000,49340.000000,20663.000000
27721.000000,48352.000000,49318.000000,20655.000000
27672.000000,48337.000000,49346.000000,20661.000000
27693.000000,48319.000000,49349.000000,20644.000000
27663.000000,48315.000000,49350.000000,20652.000000
27686.000000,48305.000000,49318.000000,20653.000000
27655.000000,48282.000000,49340.000000,20683.000000
27696.000000,48289.000000,49305.000000,20654.000000
27653.000000,48315.000000,49303.000000,20665.000000
27690.000000,48300.000000,49308.000000,20681.000000
27680.000000,48307.000000,49302.000000,20662.000000
27689.000000,48312.000000,49327.000000,20666.000000
27655.000000,48290.000000,49304.000000,20642.000000
27672.000000,48283.000000,49318.000000,20677.000000
27679.000000,48301.000000,49285.000000,20649.000000
27632.000000,48282.000000,49303.000000,20652.000000
27672.000000,48285.000000,49327.000000,20676.000000
27662.000000,48276.000000,49326.000000,20692.000000
27707.000000,48302.000000,49326.000000,20660.000000
27663.000000,48273.000000,49326.000000,20663.000000
27681.000000,48273.000000,49312.000000,20674.000000
27649.000000,48279.000000,49310.000000,20681.000000
27667.000000,48278.000000,49322.000000,20658.000000
27657.000000,48331.000000,49344.000000,20685.000000
27675.000000,48267.000000,49313.000000,20679.000000
27667.000000,48306.000000,49338.000000,20684.000000
27706.000000,48286.000000,49320.000000,20663.000000
27675.000000,48278.000000,49326.000000,20660.000000
27681.000000,48271.000000,49287.000000,20678.000000
27662.000000,48308.000000,49343.000000,20698.000000
27682.000000,48292.000000,49297.000000,20686.000000
27662.000000,48289.000000,49294.000000,20677.000000
27659.000000,48311.000000,49284.000000,20649.000000
27670.000000,48333.000000,49307.000000,20655.000000
27655.000000,48268.000000,49289.000000,20672.000000
27621.000000,48295.000000,49299.000000,20672.000000
27647.000000,48254.000000,49294.000000,20676.000000
27602.000000,48266.000000,49294.000000,20652.000000
27638.000000,48238.000000,49292.000000,20675.000000
27592.000000,48232.000000,49296.000000,20637.000000
27642.000000,48235.000000,49266.000000,20639.000000
27587.000000,48262.000000,49240.000000,20647.000000
27616.000000,48221.000000,49282.000000,20681.000000
27585.000000,48219.000000,49251.000000,20631.000000
27584.000000,48172.000000,49246.000000,20645.000000
27571.000000,48208.000000,49251.000000,20619.000000
27599.000000,48196.000000,49228.000000,20664.000000
27550.000000,48178.000000,49273.000000,20639.000000
27560.000000,48167.000000,49230.000000,20639.000000
27538.000000,48173.000000,49261.000000,20621.000000
27534.000000,48127.000000,49224.000000,20649.000000
27512.000000,48143.000000,49206.000000,20642.000000
27547.000000,48149.000000,49245.000000,20642.000000
27515.000000,48171.000000,49205.000000,20621.000000
27536.000000,48126.000000,49179.000000,20617.000000
27498.000000,48142.000000,49191.000000,20608.000000
27496.000000,48096.000000,49206.000000,20633.000000
27499.000000,48123.000000,49189.000000,20628.000000
27470.000000,48097.000000,49187.000000,20638.000000
27487.000000,48105.000000,49189.000000,20627.000000
27476.000000,48102.000000,49198.000000,20628.000000
27477.000000,48086.000000,49164.000000,20609.000000
27437.000000,48093.000000,49194.000000,20618.000000
27491.000000,48074.000000,49176.000000,20633.000000
27430.000000,48088.000000,49178.000000,20609.000000
27458.000000,48087.000000,49154.000000,20618.000000
27435.000000,48070.000000,49173.000000,20598.000000
27468.000000,48044.000000,49162.000000,20604.000000
27426.000000,48060.000000,49205.000000,20594.000000
27416.000000,48037.000000,49159.000000,20629.000000
27437.000000,48062.000000,49158.000000,20624.000000
27417.000000,48019.000000,49166.000000,20615.000000
27387.000000,48045.000000,49146.000000,20613.000000
27410.000000,48034.000000,49156.000000,20632.000000
27390.000000,48014.000000,49127.000000,20598.000000
27418.000000,48022.000000,49140.000000,20612.000000
27423.000000,48013.000000,49118.000000,20603.000000
27390.000000,47999.000000,49133.000000,20603.000000
27364.000000,48008.000000,49103.000000,20602.000000
27347.000000,47979.000000,49115.000000,20595.000000
27373.000000,47978.000000,49120.000000,20605.000000
27321.000000,47950.000000,49127.000000,20590.000000
27378.000000,47966.000000,49109.000000,20593.000000
27343.000000,47971.000000,49156.000000,20580.000000
27323.000000,47952.000000,49062.000000,20587.000000
27307.000000,47930.000000,49104.000000,20595.000000
27305.000000,47939.000000,49123.000000,20626.000000
27293.000000,47942.000000,49097.000000,20580.000000
27306.000000,47918.000000,49054.000000,20598.000000
27297.000000,47921.000000,49089.000000,20581.000000
27269.000000,47888.000000,49053.000000,20567.000000
27287.000000,47871.000000,49062.000000,20580.000000
27252.000000,47902.000000,49063.000000,20586.000000
27241.000000,47868.000000,49047.000000,20566.000000
27254.000000,47887.000000,49087.000000,20580.000000
27215.000000,47858.000000,49043.000000,20572.000000
27205.000000,47885.000000,49053.000000,20569.000000
27216.000000,47854.000000,49043.000000,20592.000000
27198.000000,47854.000000,49049.000000,20554.000000
27230.000000,47833.000000,49011.000000,20575.000000
27200.000000,47873.000000,49022.000000,20572.000000
27200.000000,47827.000000,49010.000000,20594.000000
27223.000000,47822.000000,49020.000000,20548.000000
27217.000000,47805.000000,49025.000000,20579.000000
27168.000000,47808.000000,49025.000000,20561.000000
27192.000000,47784.000000,49018.000000,20541.000000
27184.000000,47817.000000,48998.000000,20562.000000
27200.000000,47793.000000,49019.000000,20557.000000
27199.000000,47775.000000,49006.000000,20534.000000
27176.000000,47793.000000,49017.000000,20567.000000
27174.000000,47771.000000,49008.000000,20571.000000
27174.000000,47799.000000,48998.000000,20565.000000
27180.000000,47801.000000,48977.000000,20561.000000
27178.000000,47781.000000,49001.000000,20558.000000
27175.000000,47728.000000,48994.000000,20574.000000
27132.000000,47757.000000,49021.000000,20568.000000
27156.000000,47747.000000,48983.000000,20566.000000
27143.000000,47765.000000,48972.000000,20574.000000
27153.000000,47746.000000,48962.000000,20566.000000
27127.000000,47723.000000,48953.000000,20554.000000
27133.000000,47726.000000,48957.000000,20544.000000
27094.000000,47736.000000,48929.000000,20556.000000
27137.000000,47686.000000,48946.000000,20581.000000
27068.000000,47692.000000,48935.000000,20540.000000
27100.000000,47644.000000,48906.000000,20551.000000
27098.000000,47673.000000,48946.000000,20551.000000
27065.000000,47660.000000,48946.000000,20550.000000
27101.000000,47654.000000,48933.000000,20553.000000
27080.000000,47683.000000,48926.000000,20552.000000
27080.000000,47656.000000,48919.000000,20551.000000
27096.000000,47669.000000,48938.000000,20568.000000
27095.000000,47659.000000,48911.000000,20558.000000
27102.000000,47686.000000,48957.000000,20549.000000
27093.000000,47698.000000,48939.000000,20556.000000
27095.000000,47708.000000,48939.000000,20584.000000
27149.000000,47709.000000,48937.000000,20565.000000
27094.000000,47728.000000,48961.000000,20556.000000
27150.000000,47737.000000,48960.000000,20563.000000
27147.000000,47738.000000,48943.000000,20562.000000
27160.000000,47722.000000,48964.000000,20570.000000
27131.000000,47766.000000,48962.000000,20557.000000
27156.000000,47741.000000,48996.000000,20577.000000
27195.000000,47788.000000,48977.000000,20555.000000
27206.000000,47768.000000,49006.000000,20588.000000
27170.000000,47825.000000,49003.000000,20567.000000
27209.000000,47807.000000,48991.000000,20577.000000
27220.000000,47808.000000,49001.000000,20585.000000
27196.000000,47810.000000,49005.000000,20597.000000
27247.000000,47844.000000,49030.000000,20560.000000
27256.000000,47847.000000,49046.000000,20597.000000
27288.000000,47854.000000,49039.000000,20585.000000
27250.000000,47883.000000,49059.000000,20605.000000
27307.000000,47901.000000,49055.000000,20597.000000
27315.000000,47916.000000,49103.000000,20602.000000
27341.000000,47958.000000,49103.000000,20608.000000
27363.000000,47998.000000,49113.000000,20606.000000
27414.000000,47996.000000,49147.000000,20607.000000
27392.000000,48078.000000,49119.000000,20649.000000
27467.000000,48093.000000,49147.000000,20629.000000
27513.000000,48134.000000,49180.000000,20613.000000
27560.000000,48195.000000,49227.000000,20625.000000
27611.000000,48246.000000,49279.000000,20634.000000
27665.000000,48289.000000,49337.000000,20670.000000
27726.000000,48395.000000,49342.000000,20666.000000
27781.000000,48461.000000,49382.000000,20695.000000
27832.000000,48536.000000,49436.000000,20709.000000
27876.000000,48568.000000,49484.000000,20721.000000
27920.000000,48589.000000,49469.000000,20723.000000
27931.000000,48676.000000,49512.000000,20716.000000
27971.000000,48666.000000,49507.000000,20741.000000
27951.000000,48693.000000,49536.000000,20742.000000
27943.000000,48690.000000,49515.000000,20724.000000
27986.000000,48713.000000,49541.000000,20741.000000
27947.000000,48667.000000,49534.000000,20756.000000
27956.000000,48684.000000,49493.000000,20718.000000
27963.000000,48659.000000,49509.000000,20747.000000
27935.000000,48669.000000,49491.000000,20717.000000
27925.000000,48647.000000,49534.000000,20715.000000
27959.000000,48647.000000,49499.000000,20702.000000
27923.000000,48613.000000,49493.000000,20724.000000
27922.000000,48643.000000,49493.000000,20712.000000
27926.000000,48607.000000,49496.000000,20734.000000
27922.000000,48620.000000,49475.000000,20733.000000
27899.000000,48602.000000,49471.000000,20740.000000
27905.000000,48586.000000,49467.000000,20737.000000
27884.000000,48623.000000,49475.000000,20722.000000
27858.000000,48593.000000,49460.000000,20719.000000
27883.000000,48564.000000,49456.000000,20739.000000
27857.000000,48529.000000,49441.000000,20735.000000
27883.000000,48571.000000,49442.000000,20725.000000
27821.000000,48534.000000,49468.000000,20730.000000
27856.000000,48565.000000,49425.000000,20699.000000
27814.000000,48527.000000,49453.000000,20741.000000
27867.000000,48534.000000,49415.000000,20722.000000
27805.000000,48500.000000,49438.000000,20730.000000
27825.000000,48478.000000,49428.000000,20738.000000
27790.000000,48534.000000,49427.000000,20711.000000
27790.000000,48502.000000,49419.000000,20719.000000
27784.000000,48458.000000,49402.000000,20711.000000
27789.000000,48453.000000,49392.000000,20728.000000
27798.000000,48472.000000,49381.000000,20718.000000
27773.000000,48428.000000,49385.000000,20728.000000
27776.000000,48464.000000,49389.000000,20709.000000
27746.000000,48434.000000,49395.000000,20715.000000
27735.000000,48424.000000,49371.000000,20699.000000
27734.000000,48388.000000,49376.000000,20688.000000
27745.000000,48431.000000,49359.000000,20728.000000
27708.000000,48398.000000,49370.000000,20712.000000
27749.000000,48395.000000,49335.000000,20720.000000
27719.000000,48388.000000,49359.000000,20702.000000
27689.000000,48385.000000,49337.000000,20688.000000
27685.000000,48352.000000,49346.000000,20713.000000
27691.000000,48333.000000,49345.000000,20708.000000
27649.000000,48371.000000,49344.000000,20694.000000
27667.000000,48340.000000,49323.000000,20724.000000
27686.000000,48349.000000,49318.000000,20690.000000
27697.000000,48295.000000,49299.000000,20717.000000
27666.000000,48328.000000,49308.000000,20688.000000
27657.000000,48296.000000,49292.000000,20691.000000
27655.000000,48317.000000,49310.000000,20690.000000
27645.000000,48280.000000,49276.000000,20677.000000
27633.000000,48283.000000,49289.000000,20686.000000
27616.000000,48273.000000,49270.000000,20684.000000
27620.000000,48257.000000,49299.000000,20678.000000
27584.000000,48249.000000,49284.000000,20678.000000
27594.000000,48236.000000,49255.000000,20695.000000
27601.000000,48232.000000,49283.000000,20695.000000
27590.000000,48200.000000,49292.000000,20673.000000
27576.000000,48205.000000,49248.000000,20694.000000
27584.000000,48196.000000,49235.000000,20664.000000
27532.000000,48198.000000,49245.000000,20666.000000
27569.000000,48196.000000,49230.000000,20727.000000
27550.000000,48180.000000,49237.000000,20684.000000
27520.000000,48168.000000,49233.000000,20672.000000
27509.000000,48169.000000,49220.000000,20660.000000
27542.000000,48166.000000,49212.000000,20699.000000
27531.000000,48164.000000,49223.000000,20676.000000
27488.000000,48113.000000,49195.000000,20659.000000
27512.000000,48164.000000,49188.000000,20685.000000
27497.000000,48136.000000,49209.000000,20669.000000
27494.000000,48119.000000,49167.000000,20650.000000
27524.000000,48110.000000,49184.000000,20687.000000
27474.000000,48114.000000,49161.000000,20685.000000
27451.000000,48071.000000,49174.000000,20678.000000
27445.000000,48073.000000,49174.000000,20650.000000
27460.000000,48054.000000,49141.000000,20670.000000
27449.000000,48071.000000,49149.000000,20665.000000
27450.000000,48040.000000,49167.000000,20669.000000
27458.000000,48054.000000,49151.000000,20688.000000
27403.000000,48023.000000,49161.000000,20649.000000
27425.000000,48018.000000,49141.000000,20648.000000
27349.000000,48006.000000,49145.000000,20647.000000
27411.000000,48027.000000,49128.000000,20651.000000
27386.000000,48002.000000,49126.000000,20635.000000
27386.000000,47987.000000,49113.000000,20660.000000
27370.000000,47985.000000,49103.000000,20651.000000
27369.000000,47983.000000,49114.000000,20637.000000
27331.000000,47958.000000,49115.000000,20642.000000
27336.000000,47974.000000,49090.000000,20670.000000
27345.000000,47956.000000,49094.000000,20641.000000
27339.000000,47923.000000,49075.000000,20673.000000
27327.000000,47944.000000,49086.000000,20629.000000
27305.000000,47917.000000,49070.000000,20645.000000
27292.000000,47927.000000,49046.000000,20649.000000
27279.000000,47896.000000,49050.000000,20654.000000
27300.000000,47928.000000,49045.000000,20619.000000
27285.000000,47890.000000,49078.000000,20623.000000
27243.000000,47887.000000,49061.000000,20629.000000
27266.000000,47848.000000,49018.000000,20637.000000
27262.000000,47857.000000,49062.000000,20650.000000
27245.000000,47844.000000,49030.000000,20626.000000
27231.000000,47847.000000,49013.000000,20633.000000
27258.000000,47838.000000,49000.000000,20629.000000
27227.000000,47830.000000,49017.000000,20618.000000
27227.000000,47828.000000,49018.000000,20620.000000
27215.000000,47829.000000,48983.000000,20652.000000
27191.000000,47798.000000,48987.000000,20619.000000
27194.000000,47785.000000,48988.000000,20607.000000
27200.000000,47798.000000,48982.000000,20600.000000
27184.000000,47768.000000,48988.000000,20597.000000
27158.000000,47767.000000,48980.000000,20614.000000
27163.000000,47731.000000,48973.000000,20622.000000
27144.000000,47747.000000,48979.000000,20618.000000
27139.000000,47730.000000,48955.000000,20615.000000
27209.000000,47730.000000,48935.000000,20617.000000
27124.000000,47740.000000,48963.000000,20608.000000
27135.000000,47705.000000,48944.000000,20599.000000
27132.000000,47738.000000,48963.000000,20617.000000
27116.000000,47676.000000,48936.000000,20615.000000
27101.000000,47699.000000,48946.000000,20607.000000
27114.000000,47641.000000,48958.000000,20603.000000
27094.000000,47676.000000,48928.000000,20608.000000
27072.000000,47667.000000,48922.000000,20589.000000
27104.000000,47672.000000,48930.000000,20582.000000
27059.000000,47649.000000,48950.000000,20601.000000
27086.000000,47637.000000,48928.000000,20621.000000
27080.000000,47667.000000,48923.000000,20612.000000
27067.000000,47613.000000,48891.000000,20602.000000
27048.000000,47643.000000,48918.000000,20611.000000
27050.000000,47618.000000,48890.000000,20597.000000
27040.000000,47611.000000,48869.000000,20592.000000
27043.000000,47573.000000,48891.000000,20597.000000
27068.000000,47627.000000,48851.000000,20584.000000
27013.000000,47575.000000,48885.000000,20600.000000
27025.000000,47631.000000,48878.000000,20583.000000
27018.000000,47550.000000,48913.000000,20570.000000
27042.000000,47541.000000,48872.000000,20600.000000
27024.000000,47568.000000,48879.000000,20611.000000
27003.000000,47537.000000,48881.000000,20591.000000
27009.000000,47577.000000,48862.000000,20567.000000
27003.000000,47560.000000,48869.000000,20606.000000
26986.000000,47530.000000,48850.000000,20587.000000
26954.000000,47546.000000,48855.000000,20593.000000
26999.000000,47551.000000,48851.000000,20612.000000
26987.000000,47555.000000,48891.000000,20582.000000
26977.000000,47559.000000,48867.000000,20598.000000
26992.000000,47563.000000,48858.000000,20599.000000
27004.000000,47552.000000,48878.000000,20588.000000
26993.000000,47560.000000,48853.000000,20595.000000
26959.000000,47570.000000,48868.000000,20603.000000
27007.000000,47569.000000,48865.000000,20570.000000
26980.000000,47557.000000,48846.000000,20605.000000
26980.000000,47564.000000,48860.000000,20569.000000
26994.000000,47537.000000,48867.000000,20588.000000
26981.000000,47545.000000,48844.000000,20575.000000
26957.000000,47520.000000,48842.000000,20580.000000
26988.000000,47550.000000,48860.000000,20584.000000
26949.000000,47513.000000,48853.000000,20583.000000
26958.000000,47500.000000,48827.000000,20590.000000
26944.000000,47524.000000,48824.000000,20578.000000
26955.000000,47471.000000,48831.000000,20595.000000
26927.000000,47486.000000,48821.000000,20578.000000
26920.000000,47485.000000,48831.000000,20555.000000
26902.000000,47485.000000,48844.000000,20576.000000
26903.000000,47477.000000,48834.000000,20590.000000
26912.000000,47470.000000,48812.000000,20564.000000
26917.000000,47448.000000,48836.000000,20568.000000
26950.000000,47480.000000,48832.000000,20569.000000
26909.000000,47472.000000,48805.000000,20574.000000
26925.000000,47471.000000,48802.000000,20578.000000
26925.000000,47505.000000,48820.000000,20570.000000
26926.000000,47476.000000,48821.000000,20564.000000
26907.000000,47492.000000,48802.000000,20580.000000
26945.000000,47474.000000,48817.000000,20571.000000
26941.000000,47499.000000,48860.000000,20553.000000
26937.000000,47512.000000,48852.000000,20543.000000
26991.000000,47513.000000,48828.000000,20574.000000
26950.000000,47517.000000,48849.000000,20557.000000
26972.000000,47528.000000,48848.000000,20591.000000
26962.000000,47532.000000,48865.000000,20571.000000
27022.000000,47547.000000,48858.000000,20592.000000
27017.000000,47583.000000,48877.000000,20555.000000
27011.000000,47575.000000,48883.000000,20601.000000
27028.000000,47588.000000,48849.000000,20589.000000
26993.000000,47571.000000,48889.000000,20606.000000
27058.000000,47622.000000,48893.000000,20575.000000
27055.000000,47584.000000,48919.000000,20602.000000
27048.000000,47620.000000,48907.000000,20601.000000
27051.000000,47618.000000,48939.000000,20581.000000
27099.000000,47646.000000,48919.000000,20594.000000
27088.000000,47653.000000,48935.000000,20586.000000
27138.000000,47695.000000,48921.000000,20584.000000
27132.000000,47699.000000,48951.000000,20612.000000
27149.000000,47752.000000,48964.000000,20616.000000
27206.000000,47780.000000,48984.000000,20595.000000
27210.000000,47771.000000,48967.000000,20617.000000
27246.000000,47820.000000,49017.000000,20621.000000
27244.000000,47868.000000,49016.000000,20615.000000
27305.000000,47872.000000,49037.000000,20627.000000
27330.000000,47923.000000,49068.000000,20637.000000
27392.000000,47931.000000,49089.000000,20636.000000
27412.000000,48008.000000,49112.000000,20654.000000
27478.000000,48070.000000,49151.000000,20664.000000
27510.000000,48119.000000,49167.000000,20676.000000
27531.000000,48205.000000,49232.000000,20678.000000
27606.000000,48242.000000,49241.000000,20721.000000
27664.000000,48253.000000,49300.000000,20705.000000
27702.000000,48353.000000,49317.000000,20694.000000
27678.000000,48365.000000,49327.000000,20723.000000
27725.000000,48384.000000,49335.000000,20718.000000
27738.000000,48400.000000,49355.000000,20734.000000
27769.000000,48409.000000,49369.000000,20729.000000
27737.000000,48410.000000,49392.000000,20724.000000
27738.000000,48401.000000,49356.000000,20729.000000
27726.000000,48410.000000,49352.000000,20722.000000
27760.000000,48411.000000,49337.000000,20706.000000
27737.000000,48389.000000,49341.000000,20725.000000
27727.000000,48381.000000,49344.000000,20726.000000
27716.000000,48369.000000,49318.000000,20719.000000
27704.000000,48364.000000,49355.000000,20736.000000
27710.000000,48363.000000,49322.000000,20711.000000
27700.000000,48363.000000,49338.000000,20704.000000
27712.000000,48319.000000,49323.000000,20708.000000
27662.000000,48352.000000,49300.000000,20712.000000
27689.000000,48319.000000,49316.000000,20720.000000
27670.000000,48355.000000,49316.000000,20713.000000
27650.000000,48298.000000,49305.000000,20714.000000
27629.000000,48312.000000,49294.000000,20714.000000
27631.000000,48289.000000,49315.000000,20696.000000
27633.000000,48295.000000,49279.000000,20695.000000
27589.000000,48270.000000,49309.000000,20731.000000
27629.000000,48262.000000,49279.000000,20713.000000
27588.000000,48248.000000,49284.000000,20666.000000
27632.000000,48257.000000,49262.000000,20676.000000
27613.000000,48267.000000,49249.000000,20689.000000
27577.000000,48236.000000,49262.000000,20686.000000
27578.000000,48255.000000,49252.000000,20687.000000
27539.000000,48235.000000,49257.000000,20687.000000
27573.000000,48215.000000,49220.000000,20671.000000
27555.000000,48215.000000,49232.000000,20689.000000
27559.000000,48187.000000,49234.000000,20669.000000
27560.000000,48173.000000,49256.000000,20704.000000
27577.000000,48217.000000,49220.000000,20669.000000
27522.000000,48182.000000,49225.000000,20680.000000
27517.000000,48177.000000,49242.000000,20678.000000
27504.000000,48187.000000,49232.000000,20709.000000
27540.000000,48171.000000,49225.000000,20665.000000
27508.000000,48182.000000,49228.000000,20676.000000
27498.000000,48159.000000,49196.000000,20679.000000
27485.000000,48145.000000,49203.000000,20655.000000
27510.000000,48128.000000,49189.000000,20663.000000
27476.000000,48120.000000,49203.000000,20668.000000
27474.000000,48144.000000,49183.000000,20653.000000
27451.000000,48112.000000,49180.000000,20632.000000
27457.000000,48116.000000,49189.000000,20662.000000
27431.000000,48123.000000,49156.000000,20645.000000
27446.000000,48107.000000,49182.000000,20672.000000
27418.000000,48082.000000,49197.000000,20685.000000
27436.000000,48090.000000,49168.000000,20659.000000
27449.000000,48119.000000,49142.000000,20647.000000
27406.000000,48047.000000,49149.000000,20642.000000
27417.000000,48061.000000,49155.000000,20659.000000
27387.000000,48037.000000,49153.000000,20645.000000
27378.000000,48063.000000,49121.000000,20650.000000
27375.000000,48047.000000,49145.000000,20657.000000
27409.000000,48009.000000,49132.000000,20633.000000
27355.000000,47983.000000,49147.000000,20627.000000
27367.000000,48016.000000,49137.000000,20664.000000
27366.000000,47983.000000,49140.000000,20637.000000
27354.000000,47991.000000,49091.000000,20634.000000
27330.000000,48006.000000,49084.000000,20638.000000
27344.000000,47985.000000,49067.000000,20669.000000
27317.000000,47954.000000,49105.000000,20624.000000
27315.000000,47941.000000,49097.000000,20626.000000
27303.000000,47952.000000,49064.000000,20617.000000
27266.000000,47944.000000,49096.000000,20639.000000
27306.000000,47926.000000,49072.000000,20639.000000
27268.000000,47946.000000,49079.000000,20611.000000
27247.000000,47890.000000,49064.000000,20629.000000
27252.000000,47892.000000,49066.000000,20623.000000
27271.000000,47889.000000,49057.000000,20624.000000
27213.000000,47890.000000,49049.000000,20597.000000
27241.000000,47879.000000,49043.000000,20605.000000
27222.000000,47863.000000,49047.000000,20599.000000
27188.000000,47862.000000,49049.000000,20616.000000
27216.000000,47845.000000,49014.000000,20591.000000
27196.000000,47821.000000,49042.000000,20600.000000
27197.000000,47792.000000,49007.000000,20618.000000
27170.000000,47815.000000,49023.000000,20595.000000
27185.000000,47775.000000,49010.000000,20606.000000
27153.000000,47797.000000,48996.000000,20578.000000
27152.000000,47766.000000,48968.000000,20607.000000
27138.000000,47805.000000,48976.000000,20581.000000
27134.000000,47768.000000,48991.000000,20593.000000
27084.000000,47770.000000,48992.000000,20587.000000
27098.000000,47709.000000,48970.000000,20580.000000
27109.000000,47730.000000,48949.000000,20579.000000
27095.000000,47678.000000,48969.000000,20578.000000
27087.000000,47689.000000,48932.000000,20558.000000
27021.000000,47717.000000,48955.000000,20567.000000
27052.000000,47663.000000,48941.000000,20576.000000
27036.000000,47708.000000,48919.000000,20575.000000
27066.000000,47649.000000,48929.000000,20586.000000
27037.000000,47650.000000,48914.000000,20558.000000
27003.000000,47631.000000,48942.000000,20578.000000
27014.000000,47615.000000,48892.000000,20555.000000
26998.000000,47619.000000,48914.000000,20572.000000
27002.000000,47584.000000,48866.000000,20557.000000
26981.000000,47558.000000,48866.000000,20568.000000
26952.000000,47567.000000,48854.000000,20557.000000
26927.000000,47580.000000,48866.000000,20553.000000
26929.000000,47554.000000,48852.000000,20583.000000
26900.000000,47524.000000,48869.000000,20541.000000
26939.000000,47502.000000,48838.000000,20554.000000
26902.000000,47532.000000,48824.000000,20563.000000
26885.000000,47480.000000,48829.000000,20557.000000
26886.000000,47479.000000,48820.000000,20557.000000
26888.000000,47461.000000,48824.000000,20535.000000
26866.000000,47432.000000,48803.000000,20559.000000
26855.000000,47426.000000,48797.000000,20538.000000
26816.000000,47428.000000,48781.000000,20521.000000
26805.000000,47429.000000,48802.000000,20540.000000
26822.000000,47389.000000,48774.000000,20542.000000
26763.000000,47393.000000,48762.000000,20544.000000
26787.000000,47353.000000,48751.000000,20507.000000
26753.000000,47357.000000,48748.000000,20542.000000
26760.000000,47308.000000,48718.000000,20536.000000
26733.000000,47339.000000,48706.000000,20537.000000
26751.000000,47273.000000,48718.000000,20503.000000
26725.000000,47292.000000,48715.000000,20531.000000
26728.000000,47255.000000,48678.000000,20548.000000
26698.000000,47275.000000,48696.000000,20523.000000
26644.000000,47242.000000,48684.000000,20562.000000
26700.000000,47242.000000,48683.000000,20510.000000
26658.000000,47211.000000,48670.000000,20514.000000
26650.000000,47215.000000,48645.000000,20521.000000
26646.000000,47182.000000,48642.000000,20519.000000
26651.000000,47206.000000,48639.000000,20529.000000
26602.000000,47183.000000,48650.000000,20518.000000
26608.000000,47161.000000,48620.000000,20513.000000
26595.000000,47158.000000,48616.000000,20507.000000
26615.000000,47136.000000,48615.000000,20507.000000
26570.000000,47134.000000,48623.000000,20527.000000
26601.000000,47106.000000,48597.000000,20513.000000
26577.000000,47130.000000,48606.000000,20500.000000
26588.000000,47095.000000,48603.000000,20513.000000
26564.000000,47118.000000,48580.000000,20524.000000
26547.000000,47049.000000,48610.000000,20512.000000
26572.000000,47098.000000,48555.000000,20510.000000
26553.000000,47067.000000,48572.000000,20515.000000
26569.000000,47092.000000,48564.000000,20512.000000
26504.000000,47043.000000,48579.000000,20496.000000
26533.000000,47061.000000,48584.000000,20495.000000
26515.000000,47037.000000,48564.000000,20512.000000
26542.000000,47033.000000,48545.000000,20523.000000
26477.000000,47058.000000,48582.000000,20496.000000
26531.000000,47037.000000,48533.000000,20509.000000
26503.000000,47039.000000,48560.000000,20510.000000
26515.000000,47042.000000,48537.000000,20523.000000
26511.000000,47006.000000,48558.000000,20514.000000
26530.000000,47015.000000,48553.000000,20528.000000
26508.000000,47008.000000,48564.000000,20496.000000
26538.000000,47032.000000,48530.000000,20521.000000
26486.000000,47029.000000,48565.000000,20492.000000
26507.000000,46997.000000,48540.000000,20537.000000
26481.000000,47018.000000,48544.000000,20500.000000
