660nm,730nm,850nm,940nm
22597.000000,4787.000000,13838.000000,56465.000000
22597.000000,4787.000000,13912.000000,56466.000000
22603.000000,4789.000000,13889.000000,56495.000000
22587.000000,4771.000000,13934.000000,56482.000000
22600.000000,4777.000000,13954.000000,56500.000000
22605.000000,4778.000000,13928.000000,56517.000000
22568.000000,4747.000000,13975.000000,56522.000000
22587.000000,4754.000000,13928.000000,56515.000000
22633.000000,4744.000000,13961.000000,56501.000000
22588.000000,4758.000000,13924.000000,56503.000000
22582.000000,4742.000000,13953.000000,56510.000000
22586.000000,4725.000000,13939.000000,56491.000000
22575.000000,4731.000000,13937.000000,56467.000000
22563.000000,4720.000000,13919.000000,56491.000000
22568.000000,4691.000000,13874.000000,56462.000000
22560.000000,4707.000000,13870.000000,56460.000000
22562.000000,4717.000000,13818.000000,56449.000000
22565.000000,4685.000000,13857.000000,56437.000000
22550.000000,4693.000000,13857.000000,56444.000000
22545.000000,4690.000000,13839.000000,56440.000000
22526.000000,4689.000000,13808.000000,56409.000000
22552.000000,4701.000000,13790.000000,56402.000000
22554.000000,4694.000000,13772.000000,56404.000000
22564.000000,4746.000000,13797.000000,56407.000000
22563.000000,4739.000000,13786.000000,56402.000000
22549.000000,4746.000000,13789.000000,56407.000000
22565.000000,4742.000000,13765.000000,56384.000000
22581.000000,4736.000000,13771.000000,56409.000000
22602.000000,4730.000000,13782.000000,56383.000000
22640.000000,4809.000000,13741.000000,56388.000000
22641.000000,4787.000000,13746.000000,56403.000000
22646.000000,4840.000000,13729.000000,56374.000000
22687.000000,4826.000000,13722.000000,56403.000000
22697.000000,4854.000000,13720.000000,56379.000000
22723.000000,4863.000000,13704.000000,56371.000000
22728.000000,4905.000000,13664.000000,56362.000000
22749.000000,4902.000000,13678.000000,56378.000000
22794.000000,4897.000000,13667.000000,56344.000000
22788.000000,4929.000000,13661.000000,56362.000000
22844.000000,4926.000000,13651.000000,56371.000000
22748.000000,4905.000000,13672.000000,56376.000000
22756.000000,4901.000000,13671.000000,56333.000000
22758.000000,4885.000000,13654.000000,56334.000000
22721.000000,4882.000000,13668.000000,56349.000000
22741.000000,4894.000000,13659.000000,56312.000000
22705.000000,4895.000000,13636.000000,56359.000000
22720.000000,4863.000000,13596.000000,56308.000000
22706.000000,4860.000000,13598.000000,56305.000000
22709.000000,4832.000000,13574.000000,56316.000000
22672.000000,4830.000000,13575.000000,56341.000000
22707.000000,4866.000000,13615.000000,56345.000000
22669.000000,4855.000000,13580.000000,56324.000000
22675.000000,4835.000000,13540.000000,56307.000000
22676.000000,4836.000000,13554.000000,56336.000000
22688.000000,4807.000000,13556.000000,56318.000000
22673.000000,4813.000000,13569.000000,56306.000000
22631.000000,4766.000000,13565.000000,56324.000000
22635.000000,4770.000000,13570.000000,56345.000000
22631.000000,4781.000000,13575.000000,56364.000000
22629.000000,4765.000000,13610.000000,56357.000000
22598.000000,4765.000000,13654.000000,56367.000000
22587.000000,4705.000000,13700.000000,56400.000000
22552.000000,4744.000000,13726.000000,56376.000000
22621.000000,4711.000000,13736.000000,56416.000000
22609.000000,4756.000000,13777.000000,56430.000000
22593.000000,4723.000000,13847.000000,56492.000000
22570.000000,4754.000000,13862.000000,56481.000000
22572.000000,4703.000000,13891.000000,56481.000000
22589.000000,4706.000000,13889.000000,56512.000000
22569.000000,4726.000000,13866.000000,56458.000000
22549.000000,4716.000000,13845.000000,56512.000000
22569.000000,4723.000000,13868.000000,56496.000000
22557.000000,4706.000000,13902.000000,56477.000000
22576.000000,4726.000000,13857.000000,56511.000000
22560.000000,4740.000000,13863.000000,56474.000000
22523.000000,4662.000000,13810.000000,56470.000000
22550.000000,4704.000000,13800.000000,56412.000000
22541.000000,4682.000000,13800.000000,56456.000000
22509.000000,4657.000000,13776.000000,56423.000000
22491.000000,4667.000000,13774.000000,56402.000000
22513.000000,4702.000000,13773.000000,56422.000000
22513.000000,4688.000000,13772.000000,56392.000000
22539.000000,4682.000000,13764.000000,56411.000000
22494.000000,4675.000000,13739.000000,56402.000000
22525.000000,4670.000000,13698.000000,56393.000000
22509.000000,4723.000000,13684.000000,56380.000000
22509.000000,4707.000000,13695.000000,56398.000000
22513.000000,4683.000000,13651.000000,56384.000000
22548.000000,4687.000000,13639.000000,56427.000000
22545.000000,4697.000000,13646.000000,56381.000000
22532.000000,4696.000000,13655.000000,56389.000000
22552.000000,4709.000000,13656.000000,56361.000000
22587.000000,4712.000000,13658.000000,56372.000000
22624.000000,4723.000000,13628.000000,56358.000000
22614.000000,4746.000000,13620.000000,56374.000000
22632.000000,4781.000000,13615.000000,56351.000000
22657.000000,4758.000000,13611.000000,56375.000000
22699.000000,4828.000000,13627.000000,56353.000000
22720.000000,4819.000000,13609.000000,56369.000000
22730.000000,4840.000000,13612.000000,56337.000000
22763.000000,4901.000000,13577.000000,56333.000000
22826.000000,4941.000000,13611.000000,56356.000000
22853.000000,4931.000000,13604.000000,56348.000000
22860.000000,4925.000000,13600.000000,56363.000000
22851.000000,4932.000000,13616.000000,56345.000000
22812.000000,4939.000000,13556.000000,56306.000000
22845.000000,4943.000000,13562.000000,56307.000000
22829.000000,4931.000000,13579.000000,56324.000000
22863.000000,4939.000000,13582.000000,56335.000000
22836.000000,4982.000000,13551.000000,56319.000000
22834.000000,4942.000000,13561.000000,56338.000000
22831.000000,4949.000000,13588.000000,56361.000000
22814.000000,4893.000000,13596.000000,56359.000000
22818.000000,4899.000000,13574.000000,56321.000000
22780.000000,4900.000000,13608.000000,56348.000000
22764.000000,4893.000000,13606.000000,56367.000000
22783.000000,4906.000000,13599.000000,56381.000000
22775.000000,4895.000000,13635.000000,56355.000000
22698.000000,4875.000000,13628.000000,56403.000000
22733.000000,4842.000000,13672.000000,56372.000000
22749.000000,4867.000000,13606.000000,56375.000000
22725.000000,4852.000000,13644.000000,56390.000000
22706.000000,4826.000000,13683.000000,56396.000000
22700.000000,4818.000000,13718.000000,56402.000000
22723.000000,4806.000000,13791.000000,56469.000000
22706.000000,4828.000000,13861.000000,56523.000000
22669.000000,4768.000000,13921.000000,56540.000000
22662.000000,4786.000000,13902.000000,56571.000000
22655.000000,4803.000000,13965.000000,56556.000000
22685.000000,4791.000000,13947.000000,56546.000000
22646.000000,4761.000000,13964.000000,56559.000000
22649.000000,4793.000000,13983.000000,56551.000000
22638.000000,4822.000000,13979.000000,56561.000000
22634.000000,4817.000000,13988.000000,56550.000000
22587.000000,4775.000000,13945.000000,56552.000000
22637.000000,4768.000000,13938.000000,56532.000000
22618.000000,4764.000000,13926.000000,56519.000000
22635.000000,4757.000000,13896.000000,56555.000000
22618.000000,4765.000000,13847.000000,56520.000000
22631.000000,4777.000000,13877.000000,56503.000000
22612.000000,4769.000000,13851.000000,56543.000000
22627.000000,4748.000000,13876.000000,56515.000000
22603.000000,4755.000000,13860.000000,56532.000000
22607.000000,4774.000000,13825.000000,56484.000000
22617.000000,4743.000000,13835.000000,56511.000000
22564.000000,4761.000000,13800.000000,56501.000000
22603.000000,4743.000000,13780.000000,56462.000000
22601.000000,4746.000000,13763.000000,56502.000000
22579.000000,4763.000000,13782.000000,56461.000000
22585.000000,4764.000000,13734.000000,56462.000000
22602.000000,4739.000000,13767.000000,56450.000000
22608.000000,4714.000000,13753.000000,56475.000000
22626.000000,4738.000000,13750.000000,56451.000000
22650.000000,4734.000000,13733.000000,56460.000000
22626.000000,4779.000000,13734.000000,56414.000000
22642.000000,4733.000000,13699.000000,56428.000000
22640.000000,4778.000000,13642.000000,56399.000000
22653.000000,4798.000000,13629.000000,56435.000000
22685.000000,4827.000000,13619.000000,56431.000000
22664.000000,4806.000000,13644.000000,56404.000000
22674.000000,4812.000000,13644.000000,56424.000000
22691.000000,4796.000000,13606.000000,56367.000000
22700.000000,4835.000000,13594.000000,56416.000000
22705.000000,4833.000000,13580.000000,56412.000000
22731.000000,4869.000000,13601.000000,56397.000000
22793.000000,4898.000000,13587.000000,56400.000000
22801.000000,4922.000000,13558.000000,56411.000000
22805.000000,4930.000000,13534.000000,56381.000000
22856.000000,4973.000000,13576.000000,56352.000000
22887.000000,4950.000000,13525.000000,56391.000000
22882.000000,4996.000000,13542.000000,56345.000000
22951.000000,4994.000000,13527.000000,56354.000000
22943.000000,5010.000000,13535.000000,56355.000000
22918.000000,4973.000000,13529.000000,56369.000000
22956.000000,4983.000000,13498.000000,56361.000000
22919.000000,5018.000000,13493.000000,56380.000000
22921.000000,5009.000000,13512.000000,56373.000000
22908.000000,4982.000000,13494.000000,56326.000000
22905.000000,4969.000000,13482.000000,56360.000000
22878.000000,4926.000000,13478.000000,56349.000000
22865.000000,4953.000000,13478.000000,56363.000000
22845.000000,4947.000000,13450.000000,56342.000000
22837.000000,4946.000000,13477.000000,56361.000000
22865.000000,4922.000000,13469.000000,56348.000000
22842.000000,4901.000000,13476.000000,56369.000000
22817.000000,4897.000000,13499.000000,56348.000000
22815.000000,4896.000000,13504.000000,56362.000000
22767.000000,4914.000000,13498.000000,56375.000000
22783.000000,4903.000000,13506.000000,56369.000000
22797.000000,4889.000000,13503.000000,56342.000000
22766.000000,4905.000000,13528.000000,56385.000000
22817.000000,4881.000000,13506.000000,56347.000000
22760.000000,4858.000000,13517.000000,56395.000000
22744.000000,4877.000000,13565.000000,56404.000000
22770.000000,4858.000000,13562.000000,56407.000000
22746.000000,4871.000000,13569.000000,56406.000000
22719.000000,4828.000000,13597.000000,56426.000000
22764.000000,4822.000000,13599.000000,56436.000000
22744.000000,4872.000000,13634.000000,56486.000000
22756.000000,4837.000000,13664.000000,56474.000000
22702.000000,4839.000000,13699.000000,56474.000000
22744.000000,4818.000000,13719.000000,56470.000000
22705.000000,4831.000000,13758.000000,56526.000000
22703.000000,4854.000000,13773.000000,56532.000000
22746.000000,4803.000000,13840.000000,56541.000000
22735.000000,4787.000000,13879.000000,56560.000000
22731.000000,4839.000000,13889.000000,56536.000000
22697.000000,4806.000000,13816.000000,56585.000000
22691.000000,4830.000000,13856.000000,56577.000000
22686.000000,4819.000000,13850.000000,56595.000000
22688.000000,4811.000000,13858.000000,56552.000000
22701.000000,4811.000000,13786.000000,56530.000000
22696.000000,4819.000000,13784.000000,56538.000000
22673.000000,4789.000000,13815.000000,56526.000000
22694.000000,4822.000000,13744.000000,56490.000000
22678.000000,4775.000000,13746.000000,56495.000000
22672.000000,4789.000000,13754.000000,56518.000000
22693.000000,4796.000000,13698.000000,56470.000000
22669.000000,4771.000000,13729.000000,56514.000000
22678.000000,4761.000000,13722.000000,56503.000000
22646.000000,4787.000000,13690.000000,56505.000000
22687.000000,4784.000000,13689.000000,56486.000000
22686.000000,4804.000000,13685.000000,56445.000000
22704.000000,4807.000000,13672.000000,56468.000000
22696.000000,4789.000000,13660.000000,56466.000000
22729.000000,4805.000000,13617.000000,56437.000000
22765.000000,4799.000000,13606.000000,56441.000000
22724.000000,4811.000000,13633.000000,56456.000000
22698.000000,4833.000000,13562.000000,56448.000000
22733.000000,4813.000000,13590.000000,56424.000000
22735.000000,4816.000000,13576.000000,56440.000000
22765.000000,4829.000000,13566.000000,56443.000000
22752.000000,4877.000000,13546.000000,56421.000000
22784.000000,4848.000000,13544.000000,56406.000000
22783.000000,4878.000000,13557.000000,56403.000000
22817.000000,4882.000000,13543.000000,56412.000000
22801.000000,4893.000000,13550.000000,56368.000000
22858.000000,4922.000000,13553.000000,56420.000000
22829.000000,4952.000000,13536.000000,56403.000000
22912.000000,4975.000000,13549.000000,56384.000000
22907.000000,4965.000000,13552.000000,56406.000000
22985.000000,5028.000000,13528.000000,56411.000000
22960.000000,4990.000000,13547.000000,56378.000000
23028.000000,5007.000000,13526.000000,56403.000000
22961.000000,5030.000000,13558.000000,56367.000000
22972.000000,4972.000000,13543.000000,56399.000000
22974.000000,4986.000000,13531.000000,56375.000000
22986.000000,4993.000000,13486.000000,56391.000000
22955.000000,5030.000000,13494.000000,56370.000000
22979.000000,4996.000000,13491.000000,56391.000000
22948.000000,4969.000000,13500.000000,56398.000000
22940.000000,4974.000000,13515.000000,56396.000000
22918.000000,4965.000000,13510.000000,56385.000000
22908.000000,4948.000000,13466.000000,56374.000000
22881.000000,4933.000000,13489.000000,56377.000000
22885.000000,4926.000000,13508.000000,56363.000000
22872.000000,4940.000000,13521.000000,56424.000000
22874.000000,4925.000000,13498.000000,56405.000000
22862.000000,4928.000000,13514.000000,56395.000000
22861.000000,4917.000000,13539.000000,56426.000000
22823.000000,4891.000000,13543.000000,56377.000000
22851.000000,4905.000000,13554.000000,56386.000000
22835.000000,4906.000000,13550.000000,56414.000000
22838.000000,4900.000000,13582.000000,56383.000000
22809.000000,4896.000000,13606.000000,56422.000000
22845.000000,4856.000000,13614.000000,56429.000000
22815.000000,4868.000000,13616.000000,56443.000000
22827.000000,4865.000000,13595.000000,56439.000000
22815.000000,4850.000000,13624.000000,56456.000000
22824.000000,4864.000000,13700.000000,56472.000000
22825.000000,4863.000000,13727.000000,56469.000000
22819.000000,4876.000000,13737.000000,56534.000000
22797.000000,4856.000000,13848.000000,56559.000000
22823.000000,4825.000000,13862.000000,56571.000000
22805.000000,4826.000000,13907.000000,56604.000000
22823.000000,4847.000000,13990.000000,56640.000000
22805.000000,4840.000000,14015.000000,56636.000000
22788.000000,4850.000000,14020.000000,56634.000000
22800.000000,4864.000000,14008.000000,56641.000000
22815.000000,4847.000000,14034.000000,56632.000000
22798.000000,4827.000000,14019.000000,56646.000000
22798.000000,4817.000000,14040.000000,56637.000000
22818.000000,4859.000000,14015.000000,56604.000000
22811.000000,4800.000000,14025.000000,56606.000000
22821.000000,4826.000000,14049.000000,56609.000000
22774.000000,4811.000000,14029.000000,56637.000000
22788.000000,4810.000000,14064.000000,56629.000000
22760.000000,4798.000000,14045.000000,56609.000000
22812.000000,4798.000000,14029.000000,56629.000000
22786.000000,4816.000000,14055.000000,56640.000000
22794.000000,4798.000000,14026.000000,56622.000000
22774.000000,4817.000000,14038.000000,56624.000000
22785.000000,4819.000000,14034.000000,56610.000000
22835.000000,4812.000000,14041.000000,56580.000000
22787.000000,4814.000000,14006.000000,56632.000000
22803.000000,4783.000000,14014.000000,56579.000000
22800.000000,4831.000000,14032.000000,56605.000000
22867.000000,4805.000000,14000.000000,56613.000000
22858.000000,4855.000000,14019.000000,56583.000000
22936.000000,4875.000000,14008.000000,56594.000000
22973.000000,4949.000000,14013.000000,56566.000000
22952.000000,4894.000000,14053.000000,56564.000000
22979.000000,4948.000000,14008.000000,56585.000000
23046.000000,4981.000000,14026.000000,56585.000000
23068.000000,4981.000000,14034.000000,56578.000000
23123.000000,5006.000000,14029.000000,56557.000000
23112.000000,5010.000000,14045.000000,56599.000000
23114.000000,5018.000000,14056.000000,56597.000000
23102.000000,5009.000000,14053.000000,56581.000000
23117.000000,5022.000000,14107.000000,56601.000000
23108.000000,5005.000000,14094.000000,56561.000000
23095.000000,4988.000000,14105.000000,56598.000000
23065.000000,4981.000000,14084.000000,56579.000000
23053.000000,4973.000000,14106.000000,56588.000000
23058.000000,4943.000000,14110.000000,56595.000000
23068.000000,4953.000000,14101.000000,56565.000000
23022.000000,4941.000000,14114.000000,56581.000000
23007.000000,4957.000000,14110.000000,56577.000000
23067.000000,4966.000000,14107.000000,56558.000000
23010.000000,4963.000000,14071.000000,56593.000000
22994.000000,4911.000000,14097.000000,56532.000000
22987.000000,4926.000000,14066.000000,56568.000000
22979.000000,4917.000000,14100.000000,56567.000000
22954.000000,4916.000000,14057.000000,56560.000000
22961.000000,4913.000000,14114.000000,56600.000000
22972.000000,4864.000000,14116.000000,56550.000000
22961.000000,4899.000000,14074.000000,56546.000000
22926.000000,4850.000000,14129.000000,56534.000000
22937.000000,4900.000000,14106.000000,56576.000000
22928.000000,4877.000000,14129.000000,56555.000000
22913.000000,4873.000000,14128.000000,56580.000000
22931.000000,4860.000000,14166.000000,56595.000000
22910.000000,4849.000000,14171.000000,56582.000000
22870.000000,4885.000000,14190.000000,56583.000000
22908.000000,4847.000000,14193.000000,56580.000000
22941.000000,4863.000000,14183.000000,56580.000000
22945.000000,4855.000000,14218.000000,56610.000000
22893.000000,4842.000000,14215.000000,56633.000000
22918.000000,4869.000000,14300.000000,56654.000000
22932.000000,4849.000000,14326.000000,56676.000000
22928.000000,4837.000000,14345.000000,56695.000000
22889.000000,4858.000000,14377.000000,56697.000000
22888.000000,4845.000000,14383.000000,56725.000000
22886.000000,4852.000000,14486.000000,56704.000000
22907.000000,4838.000000,14513.000000,56755.000000
22914.000000,4836.000000,14510.000000,56757.000000
22925.000000,4794.000000,14597.000000,56782.000000
22867.000000,4838.000000,14556.000000,56768.000000
22924.000000,4785.000000,14584.000000,56783.000000
22916.000000,4836.000000,14527.000000,56763.000000
22910.000000,4827.000000,14564.000000,56760.000000
22918.000000,4880.000000,14519.000000,56764.000000
22921.000000,4858.000000,14495.000000,56732.000000
22957.000000,4827.000000,14528.000000,56760.000000
22965.000000,4841.000000,14501.000000,56741.000000
22978.000000,4877.000000,14506.000000,56763.000000
22969.000000,4872.000000,14488.000000,56738.000000
23010.000000,4868.000000,14503.000000,56735.000000
23005.000000,4906.000000,14459.000000,56715.000000
22992.000000,4882.000000,14423.000000,56693.000000
23053.000000,4908.000000,14450.000000,56718.000000
23031.000000,4895.000000,14448.000000,56714.000000
23085.000000,4924.000000,14450.000000,56706.000000
23165.000000,4983.000000,14425.000000,56695.000000
23182.000000,5001.000000,14405.000000,56679.000000
23221.000000,4988.000000,14400.000000,56691.000000
23222.000000,5068.000000,14405.000000,56719.000000
23250.000000,5052.000000,14402.000000,56694.000000
23302.000000,5052.000000,14367.000000,56702.000000
23255.000000,5047.000000,14393.000000,56647.000000
23271.000000,5049.000000,14336.000000,56657.000000
23275.000000,5067.000000,14355.000000,56656.000000
23248.000000,5032.000000,14351.000000,56675.000000
23227.000000,5048.000000,14331.000000,56671.000000
23267.000000,5056.000000,14315.000000,56628.000000
23277.000000,5038.000000,14299.000000,56640.000000
23294.000000,5004.000000,14332.000000,56637.000000
23244.000000,5008.000000,14306.000000,56664.000000
23216.000000,5009.000000,14332.000000,56656.000000
23229.000000,4979.000000,14317.000000,56630.000000
23236.000000,4995.000000,14458.000000,56676.000000
23231.000000,4980.000000,14450.000000,56685.000000
23204.000000,5002.000000,14463.000000,56656.000000
23230.000000,4966.000000,14426.000000,56693.000000
23211.000000,4962.000000,14404.000000,56660.000000
23195.000000,4951.000000,14402.000000,56645.000000
23205.000000,4948.000000,14401.000000,56655.000000
23179.000000,4932.000000,14396.000000,56643.000000
23189.000000,4944.000000,14359.000000,56650.000000
23186.000000,4928.000000,14360.000000,56628.000000
23218.000000,4898.000000,14422.000000,56680.000000
23207.000000,4939.000000,14377.000000,56649.000000
23179.000000,4919.000000,14380.000000,56646.000000
23162.000000,4931.000000,14385.000000,56635.000000
23168.000000,4930.000000,14406.000000,56631.000000
23207.000000,4914.000000,14420.000000,56676.000000
23212.000000,4918.000000,14423.000000,56658.000000
23219.000000,4967.000000,14439.000000,56659.000000
23199.000000,4921.000000,14435.000000,56656.000000
23176.000000,4919.000000,14465.000000,56636.000000
23191.000000,4927.000000,14473.000000,56670.000000
23192.000000,4896.000000,14539.000000,56719.000000
23195.000000,4910.000000,14590.000000,56737.000000
23180.000000,4895.000000,14598.000000,56719.000000
23168.000000,4887.000000,14609.000000,56757.000000
23187.000000,4906.000000,14657.000000,56792.000000
23200.000000,4887.000000,14664.000000,56803.000000
23179.000000,4902.000000,14691.000000,56800.000000
23171.000000,4921.000000,14705.000000,56808.000000
23176.000000,4897.000000,14734.000000,56832.000000
23178.000000,4894.000000,14724.000000,56824.000000
23148.000000,4875.000000,14720.000000,56787.000000
23184.000000,4870.000000,14677.000000,56780.000000
23130.000000,4844.000000,14678.000000,56764.000000
23142.000000,4851.000000,14674.000000,56790.000000
23177.000000,4889.000000,14680.000000,56767.000000
23192.000000,4878.000000,14633.000000,56791.000000
23168.000000,4868.000000,14666.000000,56782.000000
23144.000000,4874.000000,14654.000000,56750.000000
23156.000000,4850.000000,14635.000000,56768.000000
23156.000000,4889.000000,14602.000000,56723.000000
23168.000000,4872.000000,14608.000000,56723.000000
23230.000000,4868.000000,14588.000000,56712.000000
23189.000000,4869.000000,14574.000000,56733.000000
23211.000000,4881.000000,14549.000000,56750.000000
23182.000000,4908.000000,14564.000000,56718.000000
23233.000000,4895.000000,14504.000000,56687.000000
23239.000000,4901.000000,14529.000000,56741.000000
23256.000000,4921.000000,14510.000000,56687.000000
23247.000000,4906.000000,14513.000000,56717.000000
23230.000000,4952.000000,14519.000000,56717.000000
23268.000000,4928.000000,14488.000000,56686.000000
23313.000000,4948.000000,14501.000000,56706.000000
23303.000000,4961.000000,14471.000000,56676.000000
23343.000000,4969.000000,14469.000000,56663.000000
23309.000000,4967.000000,14459.000000,56674.000000
23369.000000,4991.000000,14455.000000,56676.000000
23393.000000,5008.000000,14434.000000,56679.000000
23427.000000,5034.000000,14443.000000,56657.000000
23428.000000,5049.000000,14423.000000,56653.000000
23459.000000,5062.000000,14425.000000,56659.000000
23496.000000,5064.000000,14399.000000,56654.000000
23542.000000,5145.000000,14430.000000,56665.000000
23584.000000,5146.000000,14389.000000,56669.000000
23581.000000,5166.000000,14421.000000,56645.000000
23561.000000,5129.000000,14431.000000,56675.000000
23566.000000,5145.000000,14441.000000,56626.000000
23557.000000,5161.000000,14395.000000,56645.000000
23551.000000,5101.000000,14367.000000,56636.000000
23531.000000,5119.000000,14371.000000,56633.000000
23543.000000,5116.000000,14367.000000,56640.000000
23512.000000,5131.000000,14405.000000,56671.000000
23511.000000,5082.000000,14362.000000,56618.000000
23516.000000,5056.000000,14393.000000,56657.000000
23478.000000,5083.000000,14362.000000,56638.000000
23490.000000,5081.000000,14358.000000,56630.000000
23453.000000,5065.000000,14340.000000,56643.000000
23494.000000,5079.000000,14351.000000,56612.000000
23472.000000,5051.000000,14378.000000,56619.000000
23468.000000,5052.000000,14365.000000,56623.000000
23480.000000,5062.000000,14367.000000,56612.000000
23488.000000,5039.000000,14367.000000,56619.000000
23422.000000,5001.000000,14346.000000,56610.000000
23462.000000,5057.000000,14346.000000,56638.000000
23434.000000,5029.000000,14347.000000,56639.000000
23437.000000,4993.000000,14349.000000,56649.000000
23469.000000,4991.000000,14373.000000,56643.000000
23453.000000,4987.000000,14395.000000,56617.000000
23439.000000,5019.000000,14392.000000,56669.000000
23438.000000,5013.000000,14405.000000,56650.000000
23401.000000,4980.000000,14408.000000,56680.000000
23421.000000,4987.000000,14454.000000,56679.000000
23396.000000,5026.000000,14454.000000,56672.000000
23400.000000,4991.000000,14472.000000,56715.000000
23418.000000,4982.000000,14519.000000,56745.000000
23381.000000,4961.000000,14551.000000,56750.000000
23417.000000,4977.000000,14583.000000,56775.000000
23410.000000,4975.000000,14572.000000,56766.000000
23388.000000,4986.000000,14683.000000,56826.000000
23381.000000,4946.000000,14703.000000,56813.000000
23403.000000,4944.000000,14727.000000,56837.000000
23381.000000,4940.000000,14717.000000,56869.000000
23410.000000,4973.000000,14749.000000,56872.000000
23402.000000,4943.000000,14708.000000,56803.000000
23392.000000,4975.000000,14724.000000,56791.000000
23390.000000,4936.000000,14705.000000,56799.000000
23400.000000,4990.000000,14692.000000,56797.000000
23372.000000,4944.000000,14687.000000,56810.000000
23413.000000,4935.000000,14664.000000,56792.000000
23392.000000,4957.000000,14651.000000,56762.000000
23386.000000,4983.000000,14638.000000,56777.000000
23380.000000,4951.000000,14640.000000,56762.000000
23425.000000,4973.000000,14615.000000,56780.000000
23403.000000,4926.000000,14599.000000,56761.000000
23409.000000,4944.000000,14622.000000,56764.000000
23405.000000,4959.000000,14598.000000,56768.000000
23410.000000,4951.000000,14603.000000,56761.000000
23415.000000,4976.000000,14586.000000,56761.000000
23448.000000,4978.000000,14575.000000,56734.000000
23411.000000,4953.000000,14581.000000,56733.000000
23420.000000,4939.000000,14541.000000,56729.000000
23463.000000,4965.000000,14521.000000,56724.000000
23459.000000,4960.000000,14540.000000,56713.000000
23484.000000,4973.000000,14503.000000,56727.000000
23455.000000,4974.000000,14512.000000,56720.000000
23499.000000,4984.000000,14514.000000,56714.000000
23471.000000,4990.000000,14502.000000,56705.000000
23565.000000,5015.000000,14478.000000,56700.000000
23576.000000,5038.000000,14484.000000,56703.000000
23611.000000,5047.000000,14478.000000,56674.000000
23694.000000,5139.000000,14486.000000,56707.000000
23695.000000,5154.000000,14470.000000,56691.000000
23728.000000,5134.000000,14445.000000,56700.000000
23769.000000,5210.000000,14447.000000,56686.000000
23776.000000,5230.000000,14467.000000,56664.000000
23769.000000,5229.000000,14433.000000,56691.000000
23738.000000,5217.000000,14454.000000,56668.000000
23772.000000,5252.000000,14449.000000,56684.000000
23755.000000,5236.000000,14419.000000,56678.000000
23755.000000,5208.000000,14414.000000,56635.000000
23692.000000,5202.000000,14404.000000,56678.000000
23666.000000,5200.000000,14419.000000,56691.000000
23691.000000,5157.000000,14426.000000,56646.000000
23625.000000,5176.000000,14449.000000,56676.000000
23625.000000,5168.000000,14397.000000,56674.000000
23649.000000,5173.000000,14403.000000,56673.000000
23628.000000,5175.000000,14369.000000,56696.000000
23561.000000,5180.000000,14401.000000,56657.000000
23551.000000,5192.000000,14416.000000,56681.000000
23532.000000,5207.000000,14432.000000,56690.000000
23530.000000,5175.000000,14362.000000,56642.000000
23552.000000,5191.000000,14433.000000,56662.000000
23507.000000,5193.000000,14374.000000,56658.000000
23497.000000,5153.000000,14409.000000,56653.000000
23520.000000,5157.000000,14373.000000,56648.000000
23539.000000,5161.000000,14417.000000,56650.000000
23488.000000,5162.000000,14381.000000,56696.000000
23464.000000,5147.000000,14424.000000,56674.000000
23455.000000,5188.000000,14397.000000,56677.000000
23442.000000,5170.000000,14438.000000,56671.000000
23419.000000,5133.000000,14439.000000,56715.000000
23422.000000,5131.000000,14463.000000,56678.000000
23413.000000,5134.000000,14482.000000,56697.000000
23410.000000,5151.000000,14548.000000,56737.000000
23369.000000,5142.000000,14538.000000,56731.000000
23368.000000,5125.000000,14578.000000,56776.000000
23359.000000,5119.000000,14656.000000,56804.000000
23344.000000,5105.000000,14637.000000,56785.000000
23362.000000,5129.000000,14659.000000,56830.000000
23313.000000,5131.000000,14692.000000,56827.000000
23327.000000,5111.000000,14720.000000,56838.000000
23324.000000,5144.000000,14751.000000,56844.000000
23271.000000,5144.000000,14822.000000,56878.000000
23288.000000,5108.000000,14797.000000,56912.000000
23262.000000,5129.000000,14838.000000,56892.000000
23279.000000,5108.000000,14840.000000,56930.000000
23279.000000,5130.000000,14823.000000,56914.000000
23288.000000,5131.000000,14867.000000,56906.000000
23310.000000,5119.000000,14832.000000,56945.000000
23254.000000,5100.000000,14828.000000,56866.000000
23296.000000,5075.000000,14794.000000,56889.000000
23246.000000,5091.000000,14783.000000,56886.000000
23278.000000,5126.000000,14765.000000,56862.000000
23277.000000,5141.000000,14744.000000,56852.000000
23232.000000,5109.000000,14760.000000,56886.000000
23259.000000,5107.000000,14755.000000,56875.000000
23229.000000,5136.000000,14752.000000,56869.000000
23289.000000,5102.000000,14729.000000,56863.000000
23237.000000,5114.000000,14746.000000,56875.000000
23256.000000,5121.000000,14711.000000,56852.000000
23295.000000,5138.000000,14749.000000,56875.000000
23283.000000,5155.000000,14688.000000,56843.000000
23298.000000,5191.000000,14708.000000,56808.000000
23316.000000,5152.000000,14646.000000,56814.000000
23316.000000,5170.000000,14676.000000,56814.000000
23323.000000,5191.000000,14692.000000,56821.000000
23400.000000,5242.000000,14645.000000,56830.000000
23434.000000,5252.000000,14661.000000,56831.000000
23413.000000,5257.000000,14664.000000,56850.000000
23463.000000,5311.000000,14645.000000,56798.000000
23503.000000,5328.000000,14637.000000,56805.000000
23548.000000,5354.000000,14603.000000,56785.000000
23501.000000,5378.000000,14605.000000,56818.000000
23551.000000,5363.000000,14623.000000,56798.000000
23554.000000,5391.000000,14617.000000,56779.000000
23574.000000,5440.000000,14626.000000,56796.000000
23557.000000,5416.000000,14627.000000,56781.000000
23506.000000,5413.000000,14620.000000,56792.000000
23518.000000,5421.000000,14626.000000,56800.000000
23537.000000,5359.000000,14620.000000,56779.000000
23504.000000,5378.000000,14607.000000,56789.000000
23526.000000,5373.000000,14637.000000,56794.000000
23515.000000,5369.000000,14611.000000,56777.000000
23511.000000,5341.000000,14603.000000,56785.000000
23495.000000,5355.000000,14593.000000,56780.000000
23493.000000,5337.000000,14599.000000,56762.000000
23477.000000,5379.000000,14615.000000,56783.000000
23480.000000,5353.000000,14572.000000,56794.000000
23423.000000,5329.000000,14583.000000,56769.000000
23447.000000,5283.000000,14579.000000,56736.000000
23460.000000,5322.000000,14588.000000,56783.000000
23419.000000,5311.000000,14596.000000,56752.000000
23371.000000,5313.000000,14570.000000,56762.000000
23388.000000,5334.000000,14613.000000,56794.000000
23389.000000,5299.000000,14598.000000,56778.000000
23397.000000,5279.000000,14618.000000,56760.000000
23368.000000,5274.000000,14622.000000,56782.000000
23372.000000,5278.000000,14635.000000,56802.000000
23372.000000,5286.000000,14652.000000,56818.000000
23327.000000,5264.000000,14633.000000,56831.000000
23337.000000,5228.000000,14666.000000,56782.000000
23346.000000,5259.000000,14661.000000,56820.000000
23340.000000,5260.000000,14697.000000,56847.000000
23337.000000,5225.000000,14705.000000,56826.000000
23329.000000,5243.000000,14706.000000,56843.000000
23325.000000,5248.000000,14774.000000,56877.000000
23316.000000,5221.000000,14800.000000,56886.000000
23341.000000,5262.000000,14927.000000,56981.000000
23328.000000,5367.000000,14934.000000,56952.000000
23342.000000,5359.000000,14983.000000,56954.000000
23326.000000,5341.000000,15022.000000,57018.000000
23329.000000,5349.000000,15063.000000,57014.000000
23310.000000,5328.000000,15068.000000,57029.000000
23314.000000,5332.000000,15077.000000,56994.000000
23308.000000,5333.000000,15081.000000,57027.000000
23316.000000,5340.000000,15086.000000,57009.000000
23305.000000,5319.000000,15098.000000,57035.000000
23296.000000,5299.000000,15092.000000,57021.000000
23266.000000,5340.000000,15057.000000,57029.000000
23289.000000,5326.000000,15049.000000,57031.000000
23287.000000,5329.000000,15061.000000,57004.000000
23273.000000,5323.000000,15044.000000,57025.000000
23283.000000,5298.000000,15047.000000,56990.000000
23279.000000,5360.000000,15051.000000,56988.000000
23296.000000,5328.000000,14999.000000,56979.000000
23286.000000,5333.000000,15009.000000,56976.000000
23296.000000,5336.000000,14990.000000,56948.000000
23341.000000,5379.000000,14972.000000,56985.000000
23335.000000,5374.000000,14986.000000,56958.000000
23430.000000,5430.000000,14940.000000,56951.000000
23397.000000,5442.000000,14968.000000,56973.000000
23468.000000,5438.000000,14950.000000,56936.000000
23465.000000,5457.000000,14929.000000,56960.000000
23522.000000,5473.000000,14925.000000,56938.000000
23510.000000,5521.000000,14914.000000,56947.000000
23546.000000,5506.000000,14895.000000,56940.000000
23580.000000,5524.000000,14911.000000,56933.000000
23544.000000,5560.000000,14884.000000,56945.000000
23568.000000,5532.000000,14860.000000,56946.000000
23533.000000,5553.000000,14883.000000,56937.000000
23528.000000,5524.000000,14836.000000,56905.000000
23531.000000,5514.000000,14865.000000,56932.000000
23476.000000,5500.000000,14855.000000,56920.000000
23520.000000,5515.000000,14846.000000,56911.000000
23512.000000,5511.000000,14845.000000,56928.000000
23477.000000,5497.000000,14855.000000,56898.000000
23440.000000,5454.000000,14833.000000,56909.000000
23482.000000,5485.000000,14856.000000,56904.000000
23471.000000,5498.000000,14822.000000,56879.000000
23473.000000,5463.000000,14820.000000,56894.000000
23460.000000,5456.000000,14849.000000,56871.000000
23458.000000,5445.000000,14826.000000,56899.000000
23422.000000,5432.000000,14797.000000,56882.000000
23436.000000,5433.000000,14804.000000,56914.000000
23406.000000,5383.000000,14798.000000,56875.000000
23412.000000,5410.000000,14823.000000,56868.000000
23392.000000,5376.000000,14807.000000,56905.000000
23397.000000,5381.000000,14781.000000,56870.000000
23409.000000,5393.000000,14789.000000,56873.000000
23394.000000,5399.000000,14757.000000,56881.000000
23401.000000,5388.000000,14752.000000,56882.000000
23397.000000,5374.000000,14798.000000,56915.000000
23380.000000,5378.000000,14739.000000,56878.000000
23349.000000,5376.000000,14769.000000,56893.000000
23344.000000,5372.000000,14768.000000,56923.000000
23362.000000,5337.000000,14771.000000,56876.000000
23341.000000,5357.000000,14770.000000,56912.000000
23354.000000,5305.000000,14747.000000,56872.000000
23323.000000,5305.000000,14789.000000,56876.000000
23376.000000,5349.000000,14806.000000,56883.000000
23337.000000,5317.000000,14813.000000,56916.000000
23345.000000,5304.000000,14806.000000,56892.000000
23352.000000,5345.000000,14798.000000,56863.000000
23336.000000,5315.000000,14836.000000,56901.000000
23365.000000,5327.000000,14809.000000,56898.000000
23335.000000,5299.000000,14885.000000,56947.000000
23328.000000,5316.000000,14888.000000,56940.000000
23349.000000,5325.000000,14930.000000,56923.000000
23379.000000,5283.000000,14906.000000,56973.000000
23331.000000,5329.000000,14976.000000,56977.000000
23334.000000,5327.000000,15005.000000,56973.000000
23310.000000,5293.000000,15049.000000,57006.000000
23340.000000,5289.000000,15069.000000,57028.000000
23318.000000,5281.000000,15121.000000,57081.000000
23301.000000,5303.000000,15176.000000,57108.000000
23308.000000,5296.000000,15202.000000,57092.000000
23294.000000,5277.000000,15204.000000,57072.000000
23307.000000,5307.000000,15234.000000,57078.000000
23321.000000,5311.000000,15222.000000,57109.000000
23293.000000,5327.000000,15202.000000,57084.000000
23309.000000,5300.000000,15185.000000,57063.000000
23327.000000,5305.000000,15148.000000,57038.000000
23336.000000,5340.000000,15153.000000,57028.000000
23314.000000,5312.000000,15129.000000,57043.000000
23353.000000,5313.000000,15147.000000,57040.000000
23328.000000,5319.000000,15142.000000,57033.000000
23326.000000,5313.000000,15089.000000,56999.000000
23367.000000,5341.000000,15128.000000,56983.000000
23361.000000,5393.000000,15084.000000,57007.000000
23404.000000,5340.000000,15061.000000,56994.000000
23409.000000,5369.000000,15037.000000,57000.000000
23434.000000,5392.000000,15029.000000,56994.000000
23464.000000,5403.000000,15021.000000,56967.000000
23483.000000,5396.000000,15008.000000,56980.000000
23490.000000,5433.000000,15001.000000,56991.000000
23560.000000,5432.000000,14990.000000,56984.000000
23634.000000,5528.000000,14993.000000,56986.000000
23647.000000,5489.000000,14967.000000,56976.000000
23668.000000,5521.000000,14972.000000,56963.000000
23637.000000,5540.000000,14963.000000,56953.000000
23646.000000,5578.000000,14928.000000,56914.000000
23649.000000,5545.000000,14907.000000,56924.000000
23643.000000,5544.000000,14921.000000,56962.000000
23611.000000,5515.000000,14915.000000,56933.000000
23602.000000,5525.000000,14899.000000,56924.000000
23558.000000,5494.000000,14891.000000,56935.000000
23575.000000,5503.000000,14896.000000,56913.000000
23591.000000,5517.000000,14889.000000,56920.000000
23589.000000,5481.000000,14899.000000,56904.000000
23582.000000,5498.000000,14884.000000,56908.000000
23578.000000,5482.000000,14894.000000,56911.000000
23572.000000,5463.000000,14884.000000,56890.000000
23506.000000,5479.000000,14859.000000,56914.000000
23565.000000,5452.000000,14896.000000,56921.000000
23521.000000,5480.000000,14872.000000,56893.000000
23547.000000,5471.000000,14870.000000,56898.000000
23487.000000,5478.000000,14853.000000,56902.000000
23534.000000,5412.000000,14845.000000,56899.000000
23506.000000,5428.000000,14840.000000,56888.000000
23472.000000,5418.000000,14838.000000,56884.000000
23473.000000,5411.000000,14842.000000,56874.000000
23477.000000,5446.000000,14839.000000,56901.000000
23460.000000,5409.000000,14803.000000,56895.000000
23477.000000,5429.000000,14828.000000,56871.000000
23447.000000,5390.000000,14790.000000,56857.000000
23462.000000,5386.000000,14813.000000,56855.000000
23451.000000,5413.000000,14779.000000,56874.000000
23475.000000,5358.000000,14775.000000,56887.000000
23431.000000,5378.000000,14811.000000,56869.000000
23472.000000,5365.000000,14797.000000,56862.000000
23435.000000,5359.000000,14794.000000,56870.000000
23466.000000,5394.000000,14791.000000,56846.000000
23440.000000,5377.000000,14802.000000,56872.000000
23441.000000,5354.000000,14825.000000,56887.000000
23431.000000,5339.000000,14816.000000,56884.000000
23410.000000,5388.000000,14845.000000,56891.000000
23418.000000,5390.000000,14850.000000,56917.000000
23415.000000,5361.000000,14862.000000,56886.000000
23441.000000,5373.000000,14886.000000,56913.000000
23415.000000,5364.000000,14906.000000,56938.000000
23418.000000,5357.000000,14959.000000,56936.000000
23440.000000,5336.000000,14972.000000,56940.000000
23447.000000,5357.000000,15018.000000,56958.000000
23455.000000,5355.000000,15023.000000,56991.000000
23431.000000,5345.000000,15136.000000,57020.000000
23464.000000,5343.000000,15149.000000,57041.000000
23443.000000,5316.000000,15146.000000,57055.000000
23412.000000,5358.000000,15216.000000,57073.000000
23422.000000,5356.000000,15241.000000,57072.000000
23394.000000,5393.000000,15237.000000,57058.000000
23407.000000,5354.000000,15223.000000,57084.000000
23422.000000,5339.000000,15209.000000,57097.000000
23375.000000,5333.000000,15199.000000,57109.000000
23456.000000,5355.000000,15180.000000,57055.000000
23434.000000,5349.000000,15174.000000,57101.000000
23441.000000,5345.000000,15152.000000,57038.000000
23414.000000,5351.000000,15114.000000,57029.000000
23480.000000,5386.000000,15117.000000,57019.000000
23473.000000,5375.000000,15099.000000,57003.000000
23484.000000,5361.000000,15072.000000,57032.000000
23497.000000,5394.000000,15058.000000,57004.000000
23538.000000,5427.000000,15029.000000,56993.000000
23540.000000,5411.000000,15065.000000,56987.000000
23557.000000,5459.000000,15033.000000,57024.000000
23627.000000,5483.000000,15034.000000,56995.000000
23651.000000,5488.000000,15031.000000,56978.000000
23641.000000,5501.000000,14997.000000,56969.000000
23686.000000,5506.000000,14978.000000,56963.000000
23717.000000,5544.000000,14930.000000,56965.000000
23753.000000,5566.000000,14976.000000,56947.000000
23783.000000,5612.000000,14918.000000,56957.000000
23814.000000,5620.000000,14901.000000,56959.000000
23814.000000,5626.000000,14907.000000,56943.000000
23780.000000,5607.000000,14878.000000,56940.000000
23809.000000,5621.000000,14916.000000,56925.000000
23810.000000,5616.000000,14866.000000,56929.000000
23792.000000,5630.000000,14880.000000,56878.000000
23840.000000,5626.000000,14858.000000,56912.000000
23794.000000,5601.000000,14838.000000,56896.000000
23800.000000,5604.000000,14862.000000,56903.000000
23762.000000,5598.000000,14867.000000,56945.000000
23770.000000,5549.000000,14825.000000,56892.000000
23746.000000,5621.000000,14778.000000,56893.000000
23787.000000,5580.000000,14806.000000,56879.000000
23747.000000,5589.000000,14827.000000,56889.000000
23757.000000,5568.000000,14800.000000,56851.000000
23740.000000,5533.000000,14798.000000,56874.000000
23739.000000,5551.000000,14776.000000,56878.000000
23746.000000,5545.000000,14813.000000,56855.000000
23716.000000,5539.000000,14764.000000,56831.000000
23760.000000,5519.000000,14794.000000,56843.000000
23681.000000,5524.000000,14765.000000,56826.000000
23734.000000,5524.000000,14759.000000,56829.000000
23716.000000,5488.000000,14726.000000,56820.000000
23724.000000,5507.000000,14736.000000,56855.000000
23709.000000,5512.000000,14755.000000,56822.000000
23729.000000,5522.000000,14732.000000,56839.000000
23691.000000,5477.000000,14736.000000,56838.000000
23721.000000,5505.000000,14745.000000,56834.000000
23722.000000,5507.000000,14720.000000,56795.000000
23660.000000,5480.000000,14696.000000,56809.000000
23705.000000,5472.000000,14707.000000,56807.000000
23651.000000,5504.000000,14733.000000,56839.000000
23685.000000,5518.000000,14745.000000,56817.000000
23709.000000,5520.000000,14735.000000,56830.000000
23677.000000,5506.000000,14725.000000,56806.000000
23694.000000,5498.000000,14719.000000,56816.000000
23688.000000,5514.000000,14758.000000,56855.000000
23680.000000,5486.000000,14754.000000,56826.000000
23662.000000,5514.000000,14775.000000,56831.000000
23659.000000,5488.000000,14757.000000,56835.000000
23640.000000,5490.000000,14767.000000,56838.000000
23664.000000,5516.000000,14780.000000,56839.000000
23658.000000,5503.000000,14818.000000,56876.000000
23690.000000,5486.000000,14870.000000,56897.000000
23661.000000,5504.000000,14877.000000,56877.000000
23620.000000,5491.000000,14905.000000,56911.000000
23657.000000,5483.000000,14939.000000,56948.000000
23600.000000,5486.000000,14949.000000,56964.000000
23656.000000,5470.000000,15013.000000,56954.000000
23677.000000,5510.000000,15019.000000,56992.000000
23632.000000,5484.000000,15039.000000,56996.000000
23677.000000,5494.000000,15080.000000,56989.000000
23661.000000,5511.000000,15099.000000,57014.000000
23662.000000,5535.000000,15119.000000,57041.000000
23665.000000,5515.000000,15119.000000,57026.000000
23686.000000,5518.000000,15080.000000,57016.000000
23708.000000,5534.000000,15092.000000,56988.000000
23715.000000,5575.000000,15074.000000,57009.000000
23738.000000,5568.000000,15066.000000,56997.000000
23738.000000,5564.000000,15043.000000,56987.000000
23736.000000,5572.000000,15046.000000,56976.000000
23792.000000,5566.000000,15033.000000,56991.000000
23801.000000,5628.000000,15030.000000,56979.000000
23859.000000,5637.000000,15045.000000,56967.000000
23898.000000,5738.000000,15007.000000,56983.000000
23927.000000,5729.000000,14996.000000,56920.000000
23988.000000,5751.000000,14941.000000,56955.000000
23993.000000,5767.000000,14927.000000,56941.000000
24027.000000,5796.000000,14912.000000,56958.000000
24042.000000,5759.000000,14880.000000,56922.000000
24085.000000,5820.000000,14860.000000,56924.000000
24118.000000,5837.000000,14864.000000,56925.000000
24098.000000,5836.000000,14835.000000,56889.000000
24105.000000,5823.000000,14816.000000,56900.000000
24053.000000,5806.000000,14840.000000,56917.000000
24053.000000,5806.000000,14802.000000,56927.000000
24062.000000,5793.000000,14787.000000,56922.000000
24043.000000,5810.000000,14782.000000,56909.000000
24063.000000,5766.000000,14776.000000,56914.000000
24029.000000,5812.000000,14797.000000,56882.000000
24030.000000,5780.000000,14755.000000,56872.000000
24025.000000,5773.000000,14711.000000,56862.000000
24019.000000,5776.000000,14712.000000,56888.000000
23996.000000,5761.000000,14666.000000,56825.000000
23988.000000,5756.000000,14673.000000,56844.000000
23993.000000,5763.000000,14700.000000,56885.000000
23969.000000,5759.000000,14687.000000,56828.000000
23979.000000,5764.000000,14653.000000,56869.000000
23950.000000,5738.000000,14669.000000,56835.000000
23967.000000,5701.000000,14656.000000,56842.000000
23946.000000,5729.000000,14658.000000,56857.000000
23931.000000,5733.000000,14678.000000,56855.000000
23920.000000,5733.000000,14653.000000,56851.000000
23899.000000,5706.000000,14647.000000,56817.000000
23913.000000,5702.000000,14622.000000,56836.000000
23955.000000,5713.000000,14619.000000,56820.000000
23961.000000,5658.000000,14621.000000,56857.000000
23946.000000,5671.000000,14584.000000,56805.000000
23956.000000,5700.000000,14632.000000,56800.000000
23920.000000,5696.000000,14615.000000,56832.000000
23909.000000,5706.000000,14625.000000,56819.000000
23899.000000,5706.000000,14599.000000,56857.000000
23921.000000,5680.000000,14613.000000,56839.000000
23920.000000,5673.000000,14631.000000,56850.000000
23910.000000,5676.000000,14627.000000,56857.000000
23864.000000,5683.000000,14680.000000,56846.000000
23876.000000,5674.000000,14667.000000,56828.000000
23875.000000,5683.000000,14681.000000,56859.000000
23811.000000,5646.000000,14662.000000,56847.000000
23869.000000,5658.000000,14699.000000,56845.000000
23847.000000,5680.000000,14693.000000,56876.000000
23856.000000,5673.000000,14737.000000,56870.000000
23858.000000,5643.000000,14790.000000,56936.000000
23852.000000,5654.000000,14797.000000,56899.000000
23856.000000,5632.000000,14832.000000,56934.000000
23885.000000,5642.000000,14833.000000,56950.000000
23893.000000,5643.000000,14904.000000,56982.000000
23888.000000,5646.000000,14922.000000,57011.000000
23865.000000,5684.000000,14989.000000,56987.000000
23870.000000,5640.000000,14995.000000,57014.000000
23881.000000,5663.000000,15063.000000,57062.000000
23883.000000,5653.000000,15053.000000,57083.000000
23878.000000,5699.000000,15112.000000,57067.000000
23843.000000,5664.000000,15104.000000,57086.000000
23867.000000,5664.000000,15069.000000,57075.000000
23854.000000,5671.000000,15049.000000,57038.000000
23879.000000,5652.000000,15055.000000,57042.000000
23827.000000,5676.000000,15039.000000,57060.000000
23864.000000,5678.000000,15034.000000,57041.000000
23859.000000,5678.000000,15004.000000,57006.000000
23842.000000,5676.000000,15019.000000,57030.000000
23897.000000,5680.000000,14998.000000,57053.000000
23913.000000,5742.000000,15009.000000,57005.000000
23960.000000,5730.000000,14968.000000,57023.000000
23963.000000,5732.000000,14973.000000,57005.000000
24009.000000,5760.000000,14968.000000,56979.000000
24027.000000,5786.000000,14936.000000,57001.000000
24072.000000,5815.000000,14947.000000,56999.000000
24118.000000,5819.000000,14917.000000,57033.000000
24121.000000,5864.000000,14944.000000,56981.000000
24193.000000,5902.000000,14910.000000,57006.000000
24222.000000,5911.000000,14910.000000,56984.000000
24244.000000,5942.000000,14917.000000,57005.000000
24239.000000,5957.000000,14909.000000,56971.000000
24256.000000,5931.000000,14915.000000,57014.000000
24229.000000,5920.000000,14891.000000,56986.000000
24244.000000,5924.000000,14895.000000,56948.000000
24162.000000,5942.000000,14843.000000,56947.000000
24188.000000,5899.000000,14842.000000,56943.000000
24150.000000,5879.000000,14859.000000,56944.000000
24138.000000,5915.000000,14867.000000,56933.000000
24088.000000,5887.000000,14879.000000,56959.000000
24111.000000,5879.000000,14865.000000,56955.000000
24141.000000,5885.000000,14859.000000,56917.000000
24105.000000,5841.000000,14853.000000,56955.000000
24100.000000,5876.000000,14860.000000,56940.000000
24081.000000,5847.000000,14851.000000,56910.000000
24065.000000,5837.000000,14830.000000,56912.000000
24059.000000,5836.000000,14834.000000,56939.000000
24059.000000,5793.000000,14839.000000,56907.000000
24049.000000,5835.000000,14821.000000,56930.000000
24067.000000,5802.000000,14797.000000,56907.000000
24054.000000,5813.000000,14811.000000,56910.000000
24051.000000,5805.000000,14766.000000,56932.000000
24039.000000,5822.000000,14819.000000,56927.000000
24045.000000,5795.000000,14807.000000,56910.000000
23989.000000,5792.000000,14839.000000,56899.000000
23975.000000,5820.000000,14804.000000,56933.000000
23991.000000,5775.000000,14803.000000,56913.000000
23967.000000,5773.000000,14813.000000,56933.000000
23926.000000,5777.000000,14815.000000,56925.000000
23972.000000,5750.000000,14866.000000,56946.000000
23947.000000,5761.000000,14870.000000,56935.000000
23930.000000,5746.000000,14834.000000,56938.000000
23951.000000,5791.000000,14872.000000,56938.000000
23949.000000,5763.000000,14870.000000,56969.000000
23951.000000,5772.000000,14925.000000,56962.000000
23928.000000,5737.000000,14890.000000,56979.000000
23918.000000,5720.000000,14928.000000,56956.000000
23933.000000,5721.000000,14958.000000,57020.000000
23949.000000,5754.000000,14973.000000,57000.000000
23938.000000,5757.000000,15037.000000,57027.000000
23933.000000,5760.000000,15016.000000,57037.000000
23934.000000,5747.000000,15046.000000,57053.000000
23942.000000,5752.000000,15075.000000,57047.000000
23911.000000,5703.000000,15117.000000,57060.000000
23929.000000,5684.000000,15189.000000,57136.000000
23894.000000,5726.000000,15255.000000,57136.000000
23916.000000,5723.000000,15316.000000,57175.000000
23879.000000,5716.000000,15292.000000,57181.000000
23883.000000,5729.000000,15329.000000,57192.000000
23887.000000,5716.000000,15334.000000,57164.000000
23856.000000,5683.000000,15300.000000,57161.000000
23869.000000,5710.000000,15315.000000,57165.000000
23856.000000,5691.000000,15302.000000,57178.000000
23871.000000,5700.000000,15265.000000,57173.000000
23852.000000,5706.000000,15248.000000,57152.000000
23875.000000,5721.000000,15245.000000,57160.000000
23870.000000,5713.000000,15234.000000,57154.000000
23913.000000,5711.000000,15260.000000,57127.000000
23866.000000,5743.000000,15219.000000,57127.000000
23892.000000,5730.000000,15196.000000,57116.000000
23926.000000,5752.000000,15187.000000,57115.000000
23950.000000,5728.000000,15170.000000,57133.000000
23906.000000,5775.000000,15179.000000,57116.000000
23944.000000,5762.000000,15144.000000,57067.000000
23965.000000,5775.000000,15161.000000,57132.000000
23987.000000,5806.000000,15127.000000,57107.000000
23992.000000,5807.000000,15125.000000,57103.000000
24059.000000,5817.000000,15104.000000,57076.000000
24060.000000,5869.000000,15105.000000,57069.000000
24185.000000,5932.000000,15127.000000,57079.000000
24128.000000,5941.000000,15090.000000,57039.000000
24194.000000,5961.000000,15055.000000,57038.000000
24216.000000,5968.000000,15090.000000,57061.000000
24238.000000,5970.000000,15041.000000,57041.000000
24196.000000,5992.000000,15047.000000,57013.000000
24216.000000,5981.000000,15018.000000,57019.000000
24234.000000,5987.000000,15026.000000,57053.000000
24230.000000,5986.000000,15022.000000,57005.000000
24215.000000,5987.000000,15000.000000,57009.000000
24175.000000,5947.000000,15053.000000,57019.000000
24185.000000,5957.000000,15034.000000,57035.000000
24170.000000,5956.000000,15030.000000,56996.000000
24153.000000,5921.000000,15009.000000,57009.000000
24152.000000,5922.000000,15002.000000,56979.000000
24138.000000,5912.000000,15001.000000,57018.000000
24118.000000,5902.000000,14995.000000,57011.000000
24117.000000,5906.000000,15013.000000,57023.000000
24131.000000,5876.000000,14985.000000,57010.000000
24085.000000,5870.000000,14958.000000,56993.000000
24087.000000,5859.000000,14957.000000,56986.000000
24055.000000,5900.000000,14961.000000,57004.000000
24047.000000,5872.000000,15005.000000,57004.000000
24043.000000,5851.000000,14971.000000,57006.000000
24047.000000,5841.000000,14991.000000,57021.000000
24037.000000,5845.000000,14999.000000,57021.000000
24032.000000,5807.000000,15010.000000,57000.000000
23995.000000,5803.000000,15077.000000,57046.000000
24032.000000,5820.000000,15091.000000,57059.000000
24038.000000,5805.000000,15132.000000,57088.000000
23993.000000,5839.000000,15146.000000,57116.000000
23984.000000,5824.000000,15186.000000,57113.000000
23983.000000,5793.000000,15201.000000,57115.000000
23992.000000,5779.000000,15271.000000,57164.000000
23963.000000,5774.000000,15263.000000,57171.000000
23938.000000,5791.000000,15394.000000,57214.000000
23957.000000,5755.000000,15431.000000,57229.000000
23954.000000,5802.000000,15455.000000,57246.000000
23930.000000,5760.000000,15456.000000,57242.000000
23892.000000,5778.000000,15427.000000,57236.000000
23915.000000,5747.000000,15439.000000,57267.000000
23909.000000,5780.000000,15427.000000,57226.000000
23866.000000,5764.000000,15398.000000,57199.000000
23876.000000,5765.000000,15412.000000,57231.000000
23894.000000,5766.000000,15360.000000,57163.000000
23888.000000,5771.000000,15364.000000,57182.000000
23868.000000,5780.000000,15342.000000,57146.000000
23846.000000,5769.000000,15346.000000,57192.000000
23861.000000,5742.000000,15312.000000,57157.000000
23850.000000,5752.000000,15352.000000,57179.000000
23877.000000,5744.000000,15295.000000,57144.000000
23842.000000,5738.000000,15294.000000,57181.000000
23864.000000,5732.000000,15280.000000,57142.000000
23862.000000,5754.000000,15256.000000,57152.000000
23856.000000,5734.000000,15267.000000,57163.000000
23830.000000,5774.000000,15252.000000,57123.000000
23805.000000,5759.000000,15247.000000,57142.000000
23814.000000,5722.000000,15234.000000,57143.000000
23849.000000,5748.000000,15213.000000,57096.000000
23811.000000,5731.000000,15198.000000,57114.000000
23842.000000,5749.000000,15163.000000,57080.000000
23855.000000,5756.000000,15171.000000,57076.000000
23880.000000,5758.000000,15188.000000,57089.000000
23841.000000,5747.000000,15200.000000,57092.000000
23856.000000,5776.000000,15160.000000,57074.000000
23873.000000,5798.000000,15183.000000,57091.000000
23887.000000,5786.000000,15180.000000,57081.000000
23867.000000,5789.000000,15138.000000,57058.000000
23914.000000,5784.000000,15167.000000,57071.000000
23909.000000,5796.000000,15143.000000,57078.000000
23955.000000,5856.000000,15158.000000,57082.000000
23978.000000,5863.000000,15140.000000,57084.000000
24010.000000,5873.000000,15174.000000,57092.000000
24063.000000,5922.000000,15114.000000,57057.000000
24100.000000,5909.000000,15121.000000,57038.000000
24120.000000,5957.000000,15133.000000,57075.000000
24128.000000,5963.000000,15122.000000,57073.000000
24168.000000,5993.000000,15124.000000,57065.000000
24168.000000,6017.000000,15123.000000,57062.000000
24203.000000,6028.000000,15105.000000,57043.000000
24182.000000,6044.000000,15108.000000,57062.000000
24197.000000,6047.000000,15064.000000,57047.000000
24146.000000,6028.000000,15105.000000,57068.000000
24154.000000,6029.000000,15079.000000,57075.000000
24156.000000,6027.000000,15123.000000,57047.000000
24172.000000,6012.000000,15112.000000,57057.000000
24150.000000,5973.000000,15137.000000,57085.000000
24168.000000,6006.000000,15162.000000,57090.000000
24131.000000,5998.000000,15166.000000,57086.000000
24119.000000,6013.000000,15137.000000,57083.000000
24104.000000,5981.000000,15185.000000,57110.000000
24081.000000,5978.000000,15201.000000,57129.000000
24097.000000,5970.000000,15197.000000,57102.000000
24050.000000,5948.000000,15216.000000,57119.000000
24086.000000,5893.000000,15310.000000,57176.000000
24074.000000,5949.000000,15349.000000,57210.000000
24067.000000,5925.000000,15356.000000,57201.000000
24041.000000,5902.000000,15401.000000,57236.000000
24039.000000,5921.000000,15475.000000,57258.000000
24018.000000,5893.000000,15522.000000,57262.000000
24033.000000,5875.000000,15514.000000,57303.000000
24004.000000,5890.000000,15519.000000,57297.000000
24016.000000,5859.000000,15501.000000,57288.000000
24027.000000,5895.000000,15575.000000,57277.000000
24027.000000,5874.000000,15536.000000,57293.000000
23992.000000,5890.000000,15534.000000,57283.000000
23999.000000,5900.000000,15506.000000,57261.000000
23985.000000,5895.000000,15508.000000,57280.000000
23975.000000,5880.000000,15475.000000,57292.000000
23951.000000,5856.000000,15461.000000,57283.000000
23920.000000,5849.000000,15468.000000,57248.000000
23987.000000,5845.000000,15458.000000,57244.000000
23926.000000,5847.000000,15439.000000,57257.000000
23966.000000,5828.000000,15420.000000,57250.000000
23956.000000,5831.000000,15421.000000,57245.000000
23972.000000,5816.000000,15438.000000,57251.000000
23959.000000,5833.000000,15439.000000,57196.000000
23934.000000,5807.000000,15381.000000,57206.000000
23958.000000,5814.000000,15400.000000,57211.000000
23958.000000,5839.000000,15360.000000,57213.000000
23970.000000,5803.000000,15337.000000,57195.000000
23937.000000,5819.000000,15336.000000,57190.000000
23931.000000,5800.000000,15341.000000,57191.000000
23906.000000,5807.000000,15319.000000,57150.000000
23931.000000,5811.000000,15284.000000,57161.000000
23918.000000,5800.000000,15327.000000,57185.000000
23930.000000,5809.000000,15289.000000,57140.000000
23934.000000,5814.000000,15268.000000,57153.000000
23939.000000,5804.000000,15265.000000,57161.000000
23921.000000,5786.000000,15231.000000,57119.000000
23938.000000,5839.000000,15229.000000,57132.000000
23961.000000,5827.000000,15244.000000,57125.000000
23922.000000,5832.000000,15235.000000,57142.000000
23966.000000,5844.000000,15216.000000,57134.000000
23983.000000,5837.000000,15227.000000,57155.000000
24006.000000,5838.000000,15202.000000,57121.000000
24011.000000,5827.000000,15208.000000,57098.000000
24011.000000,5875.000000,15220.000000,57129.000000
24048.000000,5877.000000,15227.000000,57120.000000
24087.000000,5913.000000,15221.000000,57118.000000
24090.000000,5911.000000,15217.000000,57130.000000
24105.000000,5962.000000,15175.000000,57121.000000
24140.000000,5957.000000,15189.000000,57134.000000
24151.000000,5970.000000,15195.000000,57111.000000
24184.000000,6000.000000,15206.000000,57132.000000
24259.000000,6038.000000,15165.000000,57104.000000
24242.000000,6062.000000,15148.000000,57122.000000
24331.000000,6112.000000,15167.000000,57149.000000
24287.000000,6092.000000,15155.000000,57138.000000
24315.000000,6173.000000,15132.000000,57104.000000
24307.000000,6110.000000,15146.000000,57115.000000
24323.000000,6133.000000,15164.000000,57095.000000
24333.000000,6108.000000,15131.000000,57100.000000
24256.000000,6121.000000,15139.000000,57144.000000
24298.000000,6094.000000,15148.000000,57097.000000
24281.000000,6093.000000,15147.000000,57124.000000
24246.000000,6082.000000,15156.000000,57121.000000
24277.000000,6104.000000,15198.000000,57114.000000
24248.000000,6086.000000,15168.000000,57128.000000
24218.000000,6055.000000,15151.000000,57154.000000
24192.000000,6040.000000,15185.000000,57146.000000
24229.000000,6048.000000,15218.000000,57166.000000
24243.000000,6053.000000,15214.000000,57170.000000
24235.000000,6021.000000,15242.000000,57168.000000
24260.000000,6030.000000,15240.000000,57180.000000
24230.000000,6035.000000,15286.000000,57167.000000
24196.000000,6012.000000,15272.000000,57170.000000
24239.000000,5995.000000,15300.000000,57182.000000
24199.000000,5964.000000,15326.000000,57202.000000
24210.000000,5998.000000,15338.000000,57230.000000
24221.000000,5977.000000,15467.000000,57289.000000
24156.000000,6013.000000,15453.000000,57307.000000
24169.000000,6014.000000,15503.000000,57314.000000
24165.000000,6012.000000,15535.000000,57333.000000
24174.000000,5978.000000,15528.000000,57313.000000
24158.000000,6000.000000,15535.000000,57340.000000
24142.000000,5979.000000,15544.000000,57314.000000
24167.000000,5996.000000,15511.000000,57343.000000
24154.000000,5990.000000,15543.000000,57319.000000
24155.000000,5968.000000,15539.000000,57327.000000
24147.000000,5973.000000,15521.000000,57334.000000
24097.000000,6003.000000,15499.000000,57320.000000
24103.000000,5970.000000,15467.000000,57301.000000
24138.000000,5994.000000,15461.000000,57292.000000
24123.000000,5952.000000,15416.000000,57306.000000
24097.000000,5966.000000,15440.000000,57276.000000
24122.000000,5947.000000,15439.000000,57284.000000
24114.000000,5961.000000,15406.000000,57267.000000
24105.000000,5961.000000,15430.000000,57264.000000
24079.000000,5971.000000,15395.000000,57270.000000
24120.000000,5966.000000,15377.000000,57255.000000
24117.000000,5972.000000,15380.000000,57256.000000
24104.000000,5960.000000,15391.000000,57236.000000
24085.000000,5950.000000,15331.000000,57243.000000
24096.000000,5953.000000,15332.000000,57212.000000
24110.000000,5957.000000,15323.000000,57223.000000
24100.000000,5938.000000,15365.000000,57219.000000
24127.000000,5989.000000,15328.000000,57238.000000
24096.000000,5990.000000,15277.000000,57191.000000
24134.000000,5997.000000,15286.000000,57192.000000
24133.000000,5975.000000,15263.000000,57216.000000
24149.000000,5983.000000,15299.000000,57226.000000
24178.000000,5982.000000,15292.000000,57213.000000
24179.000000,6020.000000,15273.000000,57208.000000
24174.000000,5989.000000,15274.000000,57223.000000
24220.000000,6007.000000,15232.000000,57186.000000
24198.000000,6031.000000,15258.000000,57195.000000
24233.000000,6050.000000,15256.000000,57204.000000
24246.000000,6080.000000,15243.000000,57175.000000
24280.000000,6087.000000,15247.000000,57171.000000
24319.000000,6116.000000,15274.000000,57201.000000
24379.000000,6136.000000,15243.000000,57196.000000
24368.000000,6173.000000,15253.000000,57156.000000
24475.000000,6235.000000,15228.000000,57182.000000
24513.000000,6213.000000,15218.000000,57137.000000
24526.000000,6256.000000,15215.000000,57187.000000
24520.000000,6258.000000,15183.000000,57168.000000
24500.000000,6291.000000,15219.000000,57164.000000
24540.000000,6302.000000,15186.000000,57142.000000
24550.000000,6256.000000,15210.000000,57177.000000
24519.000000,6238.000000,15167.000000,57201.000000
24511.000000,6264.000000,15222.000000,57184.000000
24497.000000,6271.000000,15165.000000,57174.000000
24501.000000,6230.000000,15208.000000,57153.000000
24476.000000,6235.000000,15149.000000,57163.000000
24478.000000,6242.000000,15166.000000,57150.000000
24478.000000,6264.000000,15197.000000,57208.000000
24481.000000,6253.000000,15172.000000,57186.000000
24432.000000,6241.000000,15192.000000,57177.000000
24447.000000,6206.000000,15203.000000,57193.000000
24432.000000,6188.000000,15179.000000,57191.000000
24398.000000,6182.000000,15181.000000,57203.000000
24423.000000,6196.000000,15195.000000,57184.000000
24418.000000,6192.000000,15237.000000,57227.000000
24405.000000,6181.000000,15218.000000,57213.000000
24368.000000,6203.000000,15242.000000,57228.000000
24354.000000,6143.000000,15224.000000,57228.000000
24361.000000,6166.000000,15266.000000,57216.000000
24347.000000,6163.000000,15226.000000,57217.000000
24356.000000,6179.000000,15289.000000,57240.000000
24346.000000,6149.000000,15307.000000,57269.000000
24335.000000,6158.000000,15322.000000,57260.000000
24314.000000,6128.000000,15294.000000,57271.000000
24294.000000,6140.000000,15362.000000,57279.000000
24287.000000,6119.000000,15376.000000,57276.000000
24279.000000,6137.000000,15421.000000,57322.000000
24255.000000,6131.000000,15497.000000,57360.000000
24245.000000,6117.000000,15505.000000,57374.000000
24255.000000,6125.000000,15552.000000,57369.000000
24273.000000,6077.000000,15547.000000,57384.000000
24246.000000,6126.000000,15577.000000,57406.000000
24280.000000,6131.000000,15578.000000,57401.000000
24248.000000,6097.000000,15557.000000,57378.000000
24262.000000,6095.000000,15551.000000,57381.000000
24295.000000,6092.000000,15541.000000,57378.000000
24258.000000,6131.000000,15543.000000,57387.000000
24227.000000,6128.000000,15561.000000,57411.000000
24205.000000,6137.000000,15567.000000,57380.000000
24199.000000,6090.000000,15559.000000,57404.000000
24231.000000,6123.000000,15528.000000,57374.000000
24195.000000,6120.000000,15495.000000,57385.000000
24222.000000,6095.000000,15515.000000,57382.000000
24230.000000,6116.000000,15497.000000,57395.000000
24212.000000,6114.000000,15480.000000,57381.000000
24268.000000,6162.000000,15425.000000,57357.000000
24302.000000,6151.000000,15442.000000,57340.000000
24357.000000,6157.000000,15412.000000,57347.000000
24349.000000,6216.000000,15409.000000,57319.000000
24372.000000,6196.000000,15355.000000,57339.000000
24418.000000,6206.000000,15379.000000,57321.000000
24443.000000,6261.000000,15355.000000,57283.000000
24492.000000,6266.000000,15312.000000,57305.000000
24508.000000,6278.000000,15332.000000,57299.000000
24590.000000,6383.000000,15329.000000,57273.000000
24622.000000,6371.000000,15330.000000,57287.000000
24643.000000,6406.000000,15325.000000,57284.000000
24610.000000,6420.000000,15300.000000,57279.000000
24636.000000,6421.000000,15285.000000,57272.000000
24617.000000,6425.000000,15304.000000,57274.000000
24597.000000,6415.000000,15303.000000,57290.000000
24602.000000,6390.000000,15273.000000,57254.000000
24576.000000,6391.000000,15253.000000,57289.000000
24524.000000,6392.000000,15263.000000,57289.000000
24484.000000,6356.000000,15258.000000,57280.000000
24526.000000,6342.000000,15255.000000,57297.000000
24528.000000,6398.000000,15267.000000,57260.000000
24491.000000,6366.000000,15271.000000,57269.000000
24485.000000,6338.000000,15259.000000,57265.000000
24500.000000,6294.000000,15219.000000,57272.000000
24445.000000,6318.000000,15244.000000,57248.000000
24464.000000,6302.000000,15204.000000,57246.000000
24450.000000,6297.000000,15190.000000,57220.000000
24440.000000,6283.000000,15176.000000,57252.000000
24457.000000,6261.000000,15162.000000,57211.000000
24462.000000,6305.000000,15166.000000,57217.000000
24415.000000,6295.000000,15173.000000,57208.000000
24415.000000,6252.000000,15173.000000,57216.000000
24431.000000,6241.000000,15151.000000,57187.000000
24423.000000,6266.000000,15123.000000,57216.000000
24411.000000,6292.000000,15136.000000,57216.000000
24383.000000,6216.000000,15141.000000,57229.000000
24366.000000,6258.000000,15169.000000,57228.000000
24382.000000,6256.000000,15178.000000,57235.000000
24357.000000,6229.000000,15175.000000,57206.000000
24343.000000,6202.000000,15137.000000,57238.000000
24365.000000,6222.000000,15162.000000,57217.000000
24311.000000,6242.000000,15202.000000,57221.000000
24339.000000,6172.000000,15215.000000,57264.000000
24335.000000,6227.000000,15229.000000,57245.000000
24327.000000,6206.000000,15225.000000,57283.000000
24290.000000,6236.000000,15247.000000,57260.000000
24333.000000,6219.000000,15251.000000,57261.000000
24296.000000,6166.000000,15279.000000,57268.000000
24295.000000,6148.000000,15260.000000,57286.000000
24272.000000,6161.000000,15344.000000,57346.000000
24290.000000,6172.000000,15345.000000,57318.000000
24260.000000,6195.000000,15373.000000,57341.000000
24312.000000,6181.000000,15388.000000,57361.000000
24293.000000,6192.000000,15439.000000,57386.000000
24290.000000,6182.000000,15468.000000,57422.000000
24286.000000,6189.000000,15473.000000,57421.000000
24273.000000,6193.000000,15520.000000,57428.000000
24285.000000,6125.000000,15521.000000,57437.000000
24317.000000,6144.000000,15561.000000,57446.000000
24314.000000,6197.000000,15547.000000,57428.000000
24285.000000,6187.000000,15544.000000,57421.000000
24304.000000,6196.000000,15514.000000,57437.000000
24311.000000,6149.000000,15491.000000,57419.000000
24303.000000,6183.000000,15467.000000,57430.000000
24342.000000,6184.000000,15455.000000,57388.000000
24369.000000,6238.000000,15469.000000,57421.000000
24372.000000,6245.000000,15500.000000,57401.000000
24424.000000,6297.000000,15477.000000,57424.000000
24428.000000,6303.000000,15480.000000,57407.000000
24486.000000,6350.000000,15472.000000,57383.000000
24476.000000,6341.000000,15452.000000,57413.000000
24558.000000,6387.000000,15423.000000,57369.000000
24601.000000,6410.000000,15437.000000,57349.000000
24588.000000,6413.000000,15400.000000,57354.000000
24596.000000,6441.000000,15415.000000,57371.000000
24617.000000,6448.000000,15410.000000,57340.000000
24625.000000,6432.000000,15402.000000,57353.000000
24572.000000,6417.000000,15400.000000,57355.000000
24622.000000,6427.000000,15394.000000,57345.000000
24612.000000,6427.000000,15349.000000,57331.000000
24590.000000,6377.000000,15359.000000,57355.000000
24540.000000,6400.000000,15383.000000,57354.000000
24548.000000,6393.000000,15393.000000,57335.000000
24509.000000,6380.000000,15330.000000,57345.000000
24509.000000,6374.000000,15360.000000,57335.000000
24532.000000,6372.000000,15371.000000,57336.000000
24506.000000,6367.000000,15335.000000,57334.000000
24511.000000,6383.000000,15336.000000,57310.000000
24490.000000,6347.000000,15357.000000,57308.000000
24470.000000,6363.000000,15340.000000,57322.000000
24485.000000,6357.000000,15345.000000,57307.000000
24461.000000,6360.000000,15359.000000,57320.000000
24430.000000,6318.000000,15337.000000,57302.000000
24444.000000,6307.000000,15333.000000,57312.000000
24391.000000,6309.000000,15346.000000,57346.000000
24401.000000,6269.000000,15367.000000,57339.000000
24381.000000,6273.000000,15340.000000,57333.000000
24409.000000,6293.000000,15366.000000,57347.000000
24370.000000,6278.000000,15356.000000,57330.000000
24353.000000,6268.000000,15335.000000,57340.000000
24368.000000,6278.000000,15340.000000,57303.000000
24319.000000,6257.000000,15307.000000,57327.000000
24342.000000,6205.000000,15328.000000,57307.000000
24315.000000,6232.000000,15340.000000,57320.000000
24312.000000,6218.000000,15325.000000,57311.000000
24293.000000,6250.000000,15284.000000,57330.000000
24312.000000,6228.000000,15262.000000,57302.000000
24255.000000,6234.000000,15293.000000,57316.000000
24321.000000,6209.000000,15303.000000,57313.000000
24315.000000,6214.000000,15281.000000,57319.000000
24298.000000,6201.000000,15299.000000,57290.000000
24272.000000,6236.000000,15282.000000,57338.000000
24268.000000,6197.000000,15282.000000,57315.000000
24274.000000,6232.000000,15293.000000,57325.000000
24278.000000,6240.000000,15336.000000,57315.000000
24277.000000,6196.000000,15341.000000,57345.000000
24277.000000,6221.000000,15329.000000,57320.000000
24277.000000,6208.000000,15331.000000,57330.000000
24282.000000,6196.000000,15330.000000,57334.000000
24256.000000,6182.000000,15354.000000,57330.000000
24253.000000,6168.000000,15378.000000,57349.000000
24239.000000,6225.000000,15349.000000,57334.000000
24260.000000,6198.000000,15426.000000,57369.000000
24291.000000,6180.000000,15436.000000,57370.000000
24254.000000,6196.000000,15435.000000,57404.000000
24200.000000,6180.000000,15449.000000,57395.000000
24257.000000,6168.000000,15463.000000,57420.000000
24256.000000,6191.000000,15555.000000,57486.000000
24227.000000,6210.000000,15613.000000,57481.000000
24251.000000,6173.000000,15600.000000,57531.000000
24280.000000,6220.000000,15607.000000,57536.000000
24277.000000,6212.000000,15592.000000,57510.000000
24251.000000,6198.000000,15627.000000,57503.000000
24281.000000,6173.000000,15605.000000,57515.000000
24284.000000,6231.000000,15594.000000,57513.000000
24286.000000,6205.000000,15583.000000,57493.000000
24321.000000,6267.000000,15587.000000,57469.000000
24296.000000,6288.000000,15564.000000,57451.000000
24355.000000,6255.000000,15554.000000,57473.000000
24345.000000,6255.000000,15531.000000,57477.000000
24380.000000,6285.000000,15486.000000,57448.000000
24369.000000,6288.000000,15496.000000,57468.000000
24407.000000,6285.000000,15498.000000,57445.000000
24504.000000,6411.000000,15473.000000,57475.000000
24533.000000,6382.000000,15477.000000,57414.000000
24554.000000,6408.000000,15457.000000,57409.000000
24571.000000,6439.000000,15430.000000,57407.000000
24556.000000,6461.000000,15455.000000,57424.000000
24584.000000,6421.000000,15442.000000,57415.000000
24601.000000,6410.000000,15377.000000,57424.000000
24607.000000,6427.000000,15407.000000,57404.000000
24618.000000,6420.000000,15386.000000,57388.000000
24579.000000,6417.000000,15372.000000,57393.000000
24581.000000,6411.000000,15390.000000,57418.000000
24578.000000,6434.000000,15377.000000,57365.000000
24532.000000,6380.000000,15357.000000,57382.000000
24525.000000,6387.000000,15349.000000,57383.000000
24505.000000,6362.000000,15343.000000,57362.000000
24514.000000,6350.000000,15323.000000,57373.000000
24493.000000,6360.000000,15291.000000,57358.000000
24484.000000,6364.000000,15286.000000,57353.000000
24463.000000,6373.000000,15273.000000,57358.000000
24449.000000,6354.000000,15274.000000,57362.000000
24449.000000,6346.000000,15236.000000,57364.000000
24446.000000,6316.000000,15232.000000,57339.000000
24427.000000,6350.000000,15236.000000,57340.000000
24403.000000,6304.000000,15231.000000,57354.000000
24414.000000,6321.000000,15261.000000,57346.000000
24423.000000,6315.000000,15274.000000,57322.000000
24410.000000,6297.000000,15250.000000,57325.000000
24405.000000,6296.000000,15242.000000,57300.000000
24394.000000,6284.000000,15189.000000,57298.000000
24388.000000,6242.000000,15239.000000,57312.000000
24370.000000,6281.000000,15197.000000,57332.000000
24396.000000,6267.000000,15158.000000,57291.000000
24387.000000,6260.000000,15178.000000,57317.000000
24410.000000,6321.000000,15186.000000,57284.000000
24367.000000,6268.000000,15161.000000,57307.000000
24413.000000,6282.000000,15155.000000,57273.000000
24386.000000,6237.000000,15152.000000,57305.000000
24361.000000,6253.000000,15176.000000,57277.000000
24354.000000,6262.000000,15132.000000,57306.000000
24341.000000,6250.000000,15137.000000,57294.000000
24344.000000,6258.000000,15135.000000,57301.000000
24322.000000,6252.000000,15142.000000,57295.000000
24347.000000,6222.000000,15134.000000,57252.000000
24333.000000,6236.000000,15137.000000,57272.000000
24326.000000,6254.000000,15144.000000,57275.000000
24308.000000,6239.000000,15146.000000,57306.000000
24318.000000,6245.000000,15155.000000,57281.000000
24302.000000,6253.000000,15137.000000,57328.000000
24337.000000,6241.000000,15150.000000,57279.000000
24296.000000,6260.000000,15199.000000,57314.000000
24300.000000,6196.000000,15194.000000,57317.000000
24314.000000,6227.000000,15199.000000,57332.000000
24305.000000,6240.000000,15238.000000,57369.000000
24343.000000,6236.000000,15244.000000,57370.000000
24325.000000,6219.000000,15275.000000,57357.000000
24349.000000,6229.000000,15326.000000,57384.000000
24292.000000,6206.000000,15311.000000,57388.000000
24306.000000,6217.000000,15356.000000,57413.000000
24337.000000,6255.000000,15394.000000,57432.000000
24327.000000,6213.000000,15407.000000,57426.000000
24365.000000,6257.000000,15415.000000,57468.000000
24361.000000,6254.000000,15435.000000,57417.000000
24340.000000,6240.000000,15422.000000,57429.000000
24331.000000,6273.000000,15403.000000,57402.000000
24357.000000,6250.000000,15388.000000,57399.000000
24342.000000,6294.000000,15402.000000,57443.000000
24381.000000,6287.000000,15368.000000,57423.000000
24397.000000,6276.000000,15374.000000,57405.000000
24364.000000,6293.000000,15350.000000,57449.000000
24424.000000,6293.000000,15353.000000,57407.000000
24408.000000,6312.000000,15344.000000,57411.000000
24441.000000,6346.000000,15335.000000,57387.000000
24418.000000,6332.000000,15283.000000,57398.000000
24479.000000,6339.000000,15292.000000,57383.000000
24469.000000,6381.000000,15274.000000,57395.000000
24516.000000,6378.000000,15245.000000,57364.000000
24612.000000,6458.000000,15265.000000,57372.000000
24612.000000,6448.000000,15214.000000,57334.000000
24633.000000,6508.000000,15213.000000,57356.000000
24662.000000,6490.000000,15201.000000,57325.000000
24671.000000,6481.000000,15175.000000,57304.000000
24673.000000,6504.000000,15140.000000,57313.000000
24652.000000,6501.000000,15115.000000,57302.000000
24626.000000,6527.000000,15135.000000,57304.000000
24672.000000,6486.000000,15122.000000,57286.000000
24622.000000,6497.000000,15116.000000,57275.000000
24633.000000,6473.000000,15118.000000,57318.000000
24648.000000,6500.000000,15102.000000,57275.000000
24626.000000,6485.000000,15099.000000,57296.000000
24592.000000,6490.000000,15108.000000,57271.000000
24599.000000,6467.000000,15085.000000,57276.000000
24596.000000,6477.000000,15068.000000,57294.000000
24626.000000,6476.000000,15087.000000,57302.000000
24604.000000,6465.000000,15071.000000,57308.000000
24572.000000,6454.000000,15072.000000,57280.000000
24585.000000,6445.000000,15060.000000,57244.000000
24572.000000,6411.000000,15045.000000,57275.000000
24566.000000,6419.000000,15045.000000,57244.000000
24554.000000,6379.000000,15041.000000,57250.000000
24538.000000,6425.000000,15055.000000,57255.000000
24463.000000,6365.000000,15034.000000,57242.000000
24476.000000,6349.000000,15024.000000,57266.000000
24468.000000,6353.000000,14971.000000,57232.000000
24471.000000,6362.000000,15000.000000,57241.000000
24470.000000,6345.000000,14983.000000,57253.000000
24443.000000,6335.000000,14973.000000,57211.000000
24428.000000,6360.000000,14963.000000,57233.000000
24419.000000,6302.000000,14949.000000,57234.000000
24448.000000,6335.000000,14939.000000,57216.000000
24428.000000,6332.000000,14941.000000,57195.000000
24462.000000,6351.000000,14957.000000,57216.000000
24418.000000,6291.000000,14959.000000,57255.000000
24433.000000,6321.000000,14975.000000,57249.000000
24456.000000,6337.000000,14977.000000,57261.000000
24401.000000,6287.000000,14982.000000,57277.000000
24404.000000,6338.000000,14984.000000,57274.000000
24426.000000,6341.000000,14988.000000,57237.000000
24400.000000,6303.000000,15004.000000,57252.000000
24394.000000,6309.000000,15018.000000,57288.000000
24417.000000,6324.000000,15020.000000,57279.000000
24392.000000,6284.000000,15030.000000,57322.000000
24363.000000,6238.000000,15042.000000,57319.000000
24352.000000,6267.000000,15043.000000,57317.000000
24393.000000,6265.000000,15065.000000,57345.000000
24365.000000,6242.000000,15096.000000,57326.000000
24360.000000,6269.000000,15143.000000,57363.000000
24342.000000,6257.000000,15198.000000,57363.000000
24351.000000,6283.000000,15237.000000,57396.000000
24303.000000,6241.000000,15225.000000,57376.000000
24326.000000,6242.000000,15295.000000,57416.000000
24332.000000,6245.000000,15302.000000,57430.000000
24352.000000,6267.000000,15307.000000,57448.000000
24351.000000,6244.000000,15322.000000,57440.000000
24355.000000,6271.000000,15325.000000,57428.000000
24346.000000,6229.000000,15342.000000,57442.000000
24373.000000,6291.000000,15321.000000,57419.000000
24362.000000,6278.000000,15322.000000,57430.000000
24385.000000,6314.000000,15280.000000,57414.000000
24410.000000,6310.000000,15301.000000,57414.000000
24438.000000,6250.000000,15281.000000,57422.000000
24425.000000,6307.000000,15258.000000,57379.000000
24461.000000,6348.000000,15286.000000,57413.000000
24435.000000,6324.000000,15260.000000,57373.000000
24480.000000,6343.000000,15230.000000,57397.000000
24538.000000,6370.000000,15245.000000,57377.000000
24549.000000,6371.000000,15225.000000,57408.000000
24572.000000,6402.000000,15203.000000,57371.000000
24603.000000,6398.000000,15175.000000,57385.000000
24655.000000,6426.000000,15155.000000,57351.000000
24632.000000,6446.000000,15151.000000,57347.000000
24683.000000,6428.000000,15135.000000,57320.000000
24686.000000,6479.000000,15104.000000,57329.000000
24698.000000,6497.000000,15097.000000,57329.000000
24718.000000,6475.000000,15122.000000,57339.000000
24697.000000,6477.000000,15102.000000,57342.000000
24739.000000,6505.000000,15085.000000,57317.000000
24692.000000,6500.000000,15063.000000,57306.000000
24728.000000,6489.000000,15108.000000,57283.000000
24691.000000,6459.000000,15047.000000,57293.000000
24683.000000,6460.000000,15052.000000,57300.000000
24701.000000,6484.000000,15081.000000,57309.000000
24670.000000,6441.000000,15057.000000,57295.000000
24688.000000,6468.000000,15021.000000,57309.000000
24654.000000,6457.000000,15003.000000,57266.000000
24657.000000,6463.000000,15070.000000,57289.000000
24648.000000,6430.000000,15032.000000,57280.000000
24652.000000,6430.000000,15021.000000,57262.000000
24639.000000,6435.000000,15009.000000,57267.000000
24629.000000,6436.000000,14995.000000,57226.000000
24590.000000,6408.000000,14965.000000,57273.000000
24581.000000,6434.000000,14965.000000,57246.000000
24582.000000,6421.000000,14949.000000,57220.000000
24594.000000,6403.000000,14986.000000,57226.000000
24540.000000,6383.000000,14932.000000,57239.000000
24558.000000,6394.000000,14945.000000,57235.000000
24568.000000,6437.000000,14942.000000,57245.000000
24549.000000,6427.000000,14901.000000,57220.000000
24547.000000,6416.000000,14930.000000,57230.000000
24562.000000,6398.000000,14876.000000,57222.000000
24557.000000,6366.000000,14937.000000,57214.000000
24514.000000,6378.000000,14886.000000,57217.000000
24523.000000,6340.000000,14930.000000,57226.000000
24555.000000,6403.000000,14888.000000,57210.000000
24554.000000,6376.000000,14948.000000,57224.000000
24525.000000,6364.000000,14929.000000,57221.000000
24536.000000,6393.000000,14935.000000,57225.000000
24520.000000,6362.000000,14979.000000,57245.000000
24517.000000,6400.000000,14970.000000,57235.000000
24526.000000,6368.000000,14991.000000,57247.000000
24535.000000,6400.000000,14981.000000,57267.000000
24523.000000,6372.000000,14991.000000,57259.000000
24505.000000,6395.000000,15004.000000,57267.000000
24499.000000,6390.000000,15007.000000,57249.000000
24541.000000,6380.000000,15017.000000,57300.000000
24516.000000,6393.000000,15016.000000,57284.000000
24490.000000,6407.000000,15125.000000,57320.000000
24499.000000,6352.000000,15110.000000,57348.000000
24473.000000,6371.000000,15157.000000,57347.000000
24514.000000,6363.000000,15199.000000,57399.000000
24498.000000,6381.000000,15251.000000,57387.000000
24502.000000,6377.000000,15267.000000,57412.000000
24513.000000,6360.000000,15247.000000,57412.000000
24516.000000,6363.000000,15329.000000,57438.000000
24507.000000,6392.000000,15286.000000,57446.000000
24490.000000,6398.000000,15317.000000,57428.000000
24504.000000,6388.000000,15301.000000,57449.000000
24491.000000,6382.000000,15323.000000,57422.000000
24519.000000,6378.000000,15293.000000,57428.000000
24490.000000,6353.000000,15304.000000,57418.000000
24506.000000,6370.000000,15281.000000,57398.000000
24520.000000,6364.000000,15271.000000,57427.000000
24491.000000,6375.000000,15266.000000,57387.000000
24542.000000,6408.000000,15229.000000,57379.000000
24517.000000,6398.000000,15200.000000,57412.000000
24529.000000,6440.000000,15210.000000,57382.000000
24543.000000,6426.000000,15220.000000,57367.000000
24565.000000,6417.000000,15197.000000,57353.000000
24577.000000,6437.000000,15185.000000,57359.000000
24583.000000,6447.000000,15168.000000,57334.000000
24637.000000,6439.000000,15143.000000,57351.000000
24626.000000,6480.000000,15147.000000,57346.000000
24639.000000,6491.000000,15127.000000,57359.000000
24720.000000,6516.000000,15159.000000,57341.000000
24726.000000,6545.000000,15140.000000,57370.000000
24783.000000,6566.000000,15134.000000,57361.000000
24743.000000,6561.000000,15115.000000,57350.000000
24749.000000,6571.000000,15091.000000,57327.000000
24771.000000,6575.000000,15063.000000,57329.000000
24728.000000,6545.000000,15065.000000,57295.000000
24769.000000,6531.000000,15054.000000,57321.000000
24709.000000,6536.000000,15062.000000,57317.000000
24720.000000,6538.000000,15039.000000,57319.000000
24736.000000,6521.000000,15032.000000,57289.000000
24689.000000,6525.000000,15075.000000,57326.000000
24710.000000,6498.000000,15051.000000,57321.000000
24662.000000,6524.000000,15061.000000,57293.000000
24663.000000,6508.000000,15002.000000,57298.000000
24636.000000,6511.000000,15021.000000,57299.000000
24648.000000,6469.000000,15018.000000,57275.000000
24661.000000,6447.000000,14999.000000,57276.000000
24610.000000,6483.000000,15031.000000,57273.000000
24603.000000,6467.000000,14996.000000,57271.000000
24598.000000,6425.000000,15014.000000,57279.000000
24623.000000,6437.000000,14992.000000,57265.000000
24568.000000,6442.000000,14982.000000,57277.000000
24557.000000,6458.000000,14987.000000,57245.000000
24591.000000,6433.000000,14964.000000,57270.000000
24560.000000,6435.000000,14990.000000,57233.000000
24543.000000,6428.000000,14956.000000,57285.000000
24573.000000,6394.000000,14918.000000,57234.000000
24549.000000,6395.000000,14973.000000,57239.000000
24564.000000,6395.000000,14970.000000,57247.000000
24479.000000,6388.000000,14964.000000,57275.000000
24500.000000,6376.000000,14967.000000,57245.000000
24524.000000,6375.000000,14986.000000,57281.000000
24476.000000,6365.000000,15026.000000,57283.000000
24490.000000,6335.000000,15013.000000,57273.000000
24474.000000,6349.000000,15012.000000,57268.000000
24496.000000,6339.000000,15035.000000,57296.000000
24460.000000,6347.000000,15042.000000,57283.000000
24475.000000,6316.000000,15125.000000,57327.000000
24487.000000,6323.000000,15145.000000,57348.000000
24435.000000,6305.000000,15137.000000,57343.000000
24467.000000,6370.000000,15190.000000,57388.000000
24446.000000,6309.000000,15181.000000,57386.000000
24450.000000,6349.000000,15233.000000,57363.000000
24422.000000,6294.000000,15265.000000,57412.000000
24444.000000,6309.000000,15288.000000,57429.000000
24407.000000,6306.000000,15296.000000,57460.000000
24407.000000,6301.000000,15310.000000,57466.000000
24400.000000,6298.000000,15334.000000,57460.000000
24401.000000,6278.000000,15358.000000,57476.000000
24386.000000,6284.000000,15321.000000,57472.000000
24399.000000,6268.000000,15337.000000,57448.000000
24374.000000,6282.000000,15313.000000,57435.000000
24328.000000,6255.000000,15327.000000,57450.000000
24341.000000,6238.000000,15295.000000,57426.000000
24379.000000,6264.000000,15298.000000,57447.000000
24371.000000,6267.000000,15282.000000,57403.000000
24377.000000,6254.000000,15238.000000,57412.000000
24375.000000,6278.000000,15220.000000,57409.000000
24393.000000,6261.000000,15233.000000,57368.000000
24388.000000,6278.000000,15212.000000,57377.000000
24374.000000,6267.000000,15160.000000,57359.000000
24402.000000,6260.000000,15204.000000,57392.000000
24360.000000,6281.000000,15221.000000,57399.000000
24391.000000,6292.000000,15199.000000,57380.000000
24409.000000,6283.000000,15163.000000,57352.000000
24410.000000,6287.000000,15155.000000,57350.000000
24476.000000,6323.000000,15166.000000,57361.000000
24480.000000,6310.000000,15153.000000,57358.000000
24460.000000,6356.000000,15135.000000,57332.000000
24504.000000,6350.000000,15121.000000,57337.000000
24489.000000,6392.000000,15126.000000,57355.000000
24530.000000,6360.000000,15105.000000,57316.000000
24593.000000,6414.000000,15093.000000,57342.000000
24601.000000,6428.000000,15093.000000,57314.000000
24630.000000,6447.000000,15068.000000,57342.000000
24601.000000,6439.000000,15084.000000,57321.000000
24639.000000,6434.000000,15084.000000,57302.000000
24613.000000,6449.000000,15064.000000,57326.000000
24616.000000,6446.000000,15054.000000,57306.000000
24613.000000,6422.000000,15055.000000,57319.000000
24610.000000,6432.000000,15058.000000,57301.000000
24611.000000,6395.000000,15057.000000,57309.000000
24573.000000,6437.000000,15052.000000,57298.000000
24563.000000,6414.000000,15068.000000,57309.000000
24570.000000,6401.000000,15063.000000,57288.000000
24554.000000,6403.000000,15040.000000,57300.000000
24560.000000,6368.000000,15033.000000,57288.000000
24536.000000,6375.000000,15042.000000,57300.000000
24523.000000,6378.000000,15048.000000,57290.000000
24523.000000,6336.000000,15049.000000,57263.000000
24500.000000,6357.000000,15037.000000,57281.000000
24499.000000,6346.000000,15060.000000,57248.000000
24494.000000,6337.000000,15049.000000,57294.000000
24486.000000,6285.000000,15028.000000,57272.000000
24443.000000,6305.000000,15003.000000,57287.000000
24413.000000,6288.000000,15027.000000,57228.000000
24416.000000,6267.000000,15003.000000,57284.000000
24387.000000,6250.000000,14981.000000,57249.000000
24373.000000,6236.000000,14986.000000,57260.000000
24354.000000,6234.000000,14985.000000,57260.000000
24382.000000,6237.000000,14987.000000,57271.000000
24374.000000,6223.000000,14997.000000,57274.000000
24376.000000,6242.000000,15038.000000,57304.000000
24362.000000,6242.000000,15019.000000,57307.000000
24328.000000,6223.000000,15029.000000,57277.000000
24378.000000,6180.000000,15008.000000,57288.000000
24340.000000,6223.000000,15012.000000,57311.000000
24393.000000,6160.000000,15037.000000,57333.000000
24379.000000,6201.000000,15049.000000,57322.000000
24350.000000,6192.000000,15053.000000,57344.000000
24319.000000,6232.000000,15071.000000,57326.000000
24327.000000,6161.000000,15079.000000,57336.000000
24353.000000,6199.000000,15080.000000,57318.000000
24313.000000,6178.000000,15167.000000,57387.000000
24293.000000,6194.000000,15168.000000,57368.000000
24302.000000,6179.000000,15222.000000,57395.000000
24298.000000,6206.000000,15246.000000,57402.000000
24307.000000,6139.000000,15219.000000,57407.000000
24271.000000,6176.000000,15278.000000,57433.000000
24306.000000,6149.000000,15308.000000,57418.000000
24295.000000,6149.000000,15319.000000,57453.000000
24254.000000,6129.000000,15332.000000,57462.000000
24262.000000,6137.000000,15356.000000,57457.000000
24296.000000,6136.000000,15357.000000,57456.000000
24271.000000,6137.000000,15377.000000,57447.000000
24284.000000,6094.000000,15351.000000,57468.000000
24298.000000,6132.000000,15326.000000,57484.000000
24279.000000,6157.000000,15330.000000,57446.000000
24326.000000,6133.000000,15287.000000,57432.000000
24306.000000,6159.000000,15309.000000,57435.000000
24335.000000,6134.000000,15290.000000,57432.000000
24312.000000,6155.000000,15284.000000,57446.000000
24349.000000,6142.000000,15271.000000,57423.000000
24357.000000,6155.000000,15244.000000,57437.000000
24392.000000,6165.000000,15218.000000,57417.000000
24402.000000,6192.000000,15210.000000,57417.000000
24398.000000,6197.000000,15219.000000,57408.000000
24436.000000,6228.000000,15186.000000,57359.000000
24451.000000,6198.000000,15163.000000,57380.000000
24450.000000,6228.000000,15194.000000,57386.000000
24495.000000,6259.000000,15155.000000,57389.000000
24515.000000,6259.000000,15173.000000,57348.000000
24531.000000,6353.000000,15149.000000,57369.000000
24565.000000,6308.000000,15137.000000,57364.000000
24597.000000,6341.000000,15171.000000,57335.000000
24582.000000,6323.000000,15129.000000,57364.000000
24625.000000,6365.000000,15107.000000,57389.000000
24667.000000,6371.000000,15094.000000,57360.000000
24654.000000,6375.000000,15086.000000,57336.000000
24637.000000,6387.000000,15132.000000,57327.000000
24656.000000,6402.000000,15083.000000,57339.000000
24627.000000,6354.000000,15085.000000,57333.000000
24624.000000,6353.000000,15068.000000,57309.000000
24616.000000,6383.000000,15053.000000,57320.000000
24598.000000,6329.000000,15080.000000,57298.000000
24595.000000,6326.000000,15120.000000,57333.000000
24583.000000,6336.000000,15058.000000,57311.000000
24549.000000,6350.000000,15048.000000,57318.000000
24552.000000,6312.000000,15039.000000,57311.000000
24514.000000,6277.000000,15040.000000,57335.000000
24526.000000,6307.000000,15059.000000,57323.000000
24500.000000,6297.000000,15062.000000,57299.000000
24513.000000,6258.000000,15040.000000,57307.000000
24502.000000,6288.000000,15061.000000,57294.000000
24495.000000,6266.000000,15020.000000,57313.000000
24461.000000,6282.000000,15031.000000,57298.000000
24446.000000,6211.000000,15017.000000,57293.000000
24420.000000,6211.000000,15036.000000,57303.000000
24403.000000,6237.000000,15045.000000,57315.000000
24415.000000,6226.000000,14988.000000,57294.000000
24406.000000,6247.000000,15002.000000,57302.000000
24420.000000,6197.000000,15024.000000,57270.000000
24393.000000,6228.000000,14997.000000,57290.000000
24373.000000,6223.000000,14952.000000,57292.000000
24384.000000,6185.000000,15014.000000,57287.000000
24349.000000,6219.000000,14998.000000,57321.000000
24377.000000,6176.000000,15004.000000,57300.000000
24359.000000,6211.000000,14996.000000,57309.000000
24367.000000,6181.000000,15039.000000,57333.000000
24348.000000,6195.000000,14982.000000,57283.000000
24325.000000,6187.000000,15013.000000,57316.000000
24318.000000,6174.000000,15047.000000,57323.000000
24297.000000,6161.000000,15051.000000,57299.000000
24302.000000,6179.000000,15076.000000,57376.000000
24279.000000,6139.000000,15086.000000,57328.000000
24295.000000,6127.000000,15085.000000,57352.000000
24259.000000,6143.000000,15115.000000,57347.000000
24269.000000,6120.000000,15102.000000,57386.000000
24271.000000,6155.000000,15202.000000,57425.000000
24298.000000,6114.000000,15199.000000,57407.000000
24262.000000,6142.000000,15267.000000,57418.000000
24245.000000,6113.000000,15286.000000,57442.000000
24267.000000,6117.000000,15352.000000,57478.000000
24274.000000,6050.000000,15373.000000,57488.000000
24244.000000,6092.000000,15366.000000,57476.000000
24237.000000,6116.000000,15386.000000,57489.000000
24250.000000,6080.000000,15382.000000,57479.000000
24261.000000,6096.000000,15372.000000,57517.000000
24256.000000,6105.000000,15348.000000,57500.000000
24279.000000,6103.000000,15368.000000,57496.000000
24299.000000,6114.000000,15341.000000,57456.000000
24282.000000,6148.000000,15322.000000,57465.000000
24283.000000,6132.000000,15348.000000,57463.000000
24315.000000,6129.000000,15313.000000,57461.000000
24303.000000,6147.000000,15262.000000,57457.000000
24319.000000,6180.000000,15246.000000,57436.000000
24335.000000,6148.000000,15271.000000,57450.000000
24362.000000,6143.000000,15247.000000,57456.000000
24330.000000,6168.000000,15250.000000,57433.000000
24377.000000,6184.000000,15204.000000,57450.000000
24444.000000,6228.000000,15217.000000,57431.000000
24440.000000,6251.000000,15191.000000,57389.000000
24473.000000,6255.000000,15182.000000,57419.000000
24476.000000,6279.000000,15183.000000,57406.000000
24547.000000,6293.000000,15155.000000,57387.000000
24534.000000,6304.000000,15148.000000,57359.000000
24578.000000,6331.000000,15165.000000,57369.000000
24598.000000,6366.000000,15152.000000,57362.000000
24649.000000,6375.000000,15118.000000,57375.000000
24631.000000,6353.000000,15096.000000,57361.000000
24626.000000,6414.000000,15071.000000,57368.000000
24604.000000,6351.000000,15060.000000,57351.000000
24557.000000,6356.000000,15112.000000,57349.000000
24589.000000,6319.000000,15068.000000,57352.000000
24542.000000,6315.000000,15091.000000,57366.000000
24560.000000,6347.000000,15065.000000,57384.000000
24527.000000,6334.000000,15080.000000,57357.000000
24530.000000,6317.000000,15061.000000,57358.000000
24516.000000,6343.000000,15067.000000,57357.000000
24492.000000,6292.000000,15077.000000,57359.000000
24519.000000,6272.000000,15032.000000,57312.000000
24475.000000,6245.000000,15013.000000,57332.000000
24473.000000,6255.000000,15035.000000,57307.000000
24498.000000,6249.000000,15008.000000,57336.000000
24450.000000,6234.000000,14998.000000,57340.000000
24453.000000,6244.000000,15039.000000,57338.000000
24457.000000,6271.000000,14971.000000,57304.000000
24458.000000,6257.000000,14980.000000,57328.000000
24455.000000,6214.000000,14997.000000,57330.000000
24436.000000,6258.000000,15008.000000,57317.000000
24449.000000,6228.000000,14982.000000,57329.000000
24453.000000,6220.000000,15005.000000,57303.000000
24409.000000,6230.000000,14968.000000,57326.000000
24443.000000,6194.000000,14965.000000,57307.000000
24410.000000,6241.000000,15058.000000,57342.000000
24400.000000,6230.000000,15029.000000,57334.000000
24396.000000,6190.000000,15016.000000,57346.000000
24397.000000,6203.000000,15044.000000,57343.000000
24395.000000,6184.000000,15075.000000,57353.000000
24387.000000,6186.000000,15081.000000,57371.000000
24352.000000,6188.000000,15117.000000,57388.000000
24379.000000,6168.000000,15164.000000,57386.000000
24369.000000,6156.000000,15178.000000,57446.000000
24382.000000,6173.000000,15233.000000,57410.000000
24348.000000,6193.000000,15213.000000,57423.000000
24360.000000,6179.000000,15213.000000,57432.000000
24314.000000,6127.000000,15285.000000,57488.000000
24337.000000,6125.000000,15359.000000,57507.000000
24335.000000,6147.000000,15353.000000,57503.000000
24308.000000,6130.000000,15375.000000,57517.000000
24337.000000,6151.000000,15394.000000,57543.000000
24307.000000,6176.000000,15362.000000,57514.000000
24340.000000,6150.000000,15356.000000,57507.000000
24305.000000,6143.000000,15351.000000,57530.000000
24326.000000,6126.000000,15352.000000,57497.000000
24312.000000,6155.000000,15339.000000,57500.000000
24327.000000,6141.000000,15342.000000,57512.000000
24315.000000,6144.000000,15336.000000,57502.000000
24324.000000,6135.000000,15319.000000,57483.000000
24312.000000,6155.000000,15325.000000,57499.000000
24320.000000,6177.000000,15301.000000,57465.000000
24329.000000,6173.000000,15301.000000,57507.000000
24356.000000,6175.000000,15293.000000,57473.000000
24381.000000,6198.000000,15266.000000,57471.000000
24358.000000,6219.000000,15261.000000,57447.000000
24422.000000,6238.000000,15234.000000,57462.000000
24420.000000,6230.000000,15239.000000,57436.000000
24427.000000,6276.000000,15218.000000,57449.000000
24443.000000,6279.000000,15196.000000,57426.000000
24515.000000,6308.000000,15187.000000,57421.000000
24540.000000,6299.000000,15190.000000,57392.000000
24579.000000,6317.000000,15156.000000,57422.000000
24563.000000,6329.000000,15136.000000,57421.000000
24563.000000,6358.000000,15147.000000,57419.000000
24595.000000,6383.000000,15128.000000,57381.000000
24605.000000,6403.000000,15117.000000,57387.000000
24616.000000,6381.000000,15138.000000,57389.000000
24609.000000,6396.000000,15127.000000,57397.000000
24605.000000,6382.000000,15083.000000,57391.000000
24589.000000,6395.000000,15102.000000,57360.000000
24592.000000,6358.000000,15104.000000,57396.000000
24561.000000,6348.000000,15104.000000,57374.000000
24548.000000,6359.000000,15064.000000,57372.000000
24569.000000,6315.000000,15087.000000,57359.000000
24559.000000,6355.000000,15069.000000,57374.000000
24522.000000,6302.000000,15060.000000,57345.000000
24499.000000,6305.000000,15042.000000,57376.000000
24506.000000,6303.000000,15059.000000,57358.000000
24501.000000,6259.000000,15081.000000,57371.000000
24461.000000,6275.000000,15069.000000,57343.000000
24474.000000,6279.000000,15040.000000,57374.000000
24468.000000,6256.000000,15044.000000,57365.000000
24450.000000,6275.000000,15035.000000,57320.000000
24434.000000,6277.000000,15028.000000,57354.000000
24416.000000,6283.000000,15023.000000,57328.000000
24440.000000,6247.000000,14987.000000,57340.000000
24430.000000,6229.000000,15006.000000,57311.000000
24429.000000,6249.000000,14989.000000,57330.000000
24451.000000,6216.000000,15011.000000,57322.000000
24397.000000,6256.000000,14998.000000,57335.000000
24380.000000,6209.000000,14993.000000,57339.000000
24426.000000,6239.000000,14998.000000,57343.000000
24403.000000,6214.000000,15043.000000,57339.000000
24418.000000,6213.000000,15021.000000,57367.000000
24424.000000,6228.000000,15076.000000,57375.000000
24364.000000,6212.000000,15054.000000,57377.000000
24393.000000,6195.000000,15041.000000,57371.000000
24395.000000,6187.000000,15048.000000,57377.000000
24337.000000,6213.000000,15080.000000,57370.000000
24378.000000,6219.000000,15107.000000,57400.000000
24393.000000,6192.000000,15128.000000,57369.000000
24355.000000,6218.000000,15133.000000,57419.000000
24367.000000,6216.000000,15145.000000,57417.000000
24355.000000,6213.000000,15193.000000,57406.000000
24341.000000,6190.000000,15184.000000,57452.000000
24319.000000,6200.000000,15236.000000,57432.000000
24345.000000,6218.000000,15268.000000,57486.000000
24329.000000,6187.000000,15269.000000,57487.000000
24325.000000,6192.000000,15321.000000,57519.000000
24333.000000,6167.000000,15391.000000,57527.000000
24315.000000,6187.000000,15438.000000,57559.000000
24361.000000,6163.000000,15462.000000,57572.000000
24334.000000,6157.000000,15466.000000,57569.000000
24334.000000,6163.000000,15475.000000,57590.000000
24318.000000,6146.000000,15481.000000,57581.000000
24292.000000,6182.000000,15447.000000,57595.000000
24306.000000,6142.000000,15456.000000,57580.000000
24290.000000,6140.000000,15439.000000,57594.000000
24291.000000,6144.000000,15427.000000,57573.000000
24325.000000,6169.000000,15430.000000,57567.000000
24324.000000,6143.000000,15420.000000,57570.000000
24334.000000,6145.000000,15416.000000,57573.000000
24324.000000,6164.000000,15427.000000,57521.000000
24351.000000,6173.000000,15396.000000,57569.000000
24345.000000,6196.000000,15385.000000,57542.000000
24380.000000,6150.000000,15365.000000,57527.000000
24361.000000,6230.000000,15387.000000,57530.000000
24388.000000,6226.000000,15378.000000,57507.000000
24368.000000,6177.000000,15325.000000,57532.000000
24380.000000,6195.000000,15328.000000,57482.000000
24360.000000,6218.000000,15347.000000,57516.000000
24443.000000,6282.000000,15318.000000,57463.000000
24479.000000,6279.000000,15308.000000,57481.000000
24492.000000,6293.000000,15324.000000,57485.000000
24514.000000,6317.000000,15338.000000,57505.000000
24506.000000,6357.000000,15322.000000,57488.000000
24555.000000,6318.000000,15287.000000,57471.000000
24606.000000,6401.000000,15305.000000,57478.000000
24573.000000,6374.000000,15282.000000,57481.000000
24599.000000,6412.000000,15275.000000,57469.000000
24589.000000,6383.000000,15292.000000,57467.000000
24612.000000,6377.000000,15271.000000,57485.000000
24593.000000,6399.000000,15258.000000,57476.000000
24606.000000,6383.000000,15278.000000,57482.000000
24590.000000,6369.000000,15271.000000,57505.000000
24595.000000,6363.000000,15281.000000,57430.000000
24563.000000,6339.000000,15276.000000,57465.000000
24563.000000,6356.000000,15272.000000,57455.000000
24556.000000,6355.000000,15283.000000,57478.000000
24566.000000,6340.000000,15269.000000,57461.000000
24586.000000,6371.000000,15281.000000,57460.000000
24541.000000,6310.000000,15260.000000,57458.000000
24525.000000,6313.000000,15265.000000,57451.000000
24487.000000,6356.000000,15259.000000,57462.000000
24490.000000,6313.000000,15263.000000,57469.000000
24475.000000,6311.000000,15266.000000,57454.000000
24503.000000,6271.000000,15246.000000,57452.000000
24509.000000,6305.000000,15232.000000,57468.000000
24459.000000,6267.000000,15230.000000,57459.000000
24486.000000,6243.000000,15206.000000,57448.000000
24484.000000,6263.000000,15223.000000,57449.000000
24456.000000,6258.000000,15236.000000,57424.000000
24434.000000,6211.000000,15226.000000,57433.000000
24395.000000,6238.000000,15229.000000,57449.000000
24449.000000,6253.000000,15229.000000,57459.000000
24427.000000,6228.000000,15271.000000,57469.000000
24392.000000,6243.000000,15252.000000,57473.000000
24405.000000,6226.000000,15289.000000,57481.000000
24416.000000,6222.000000,15293.000000,57506.000000
24395.000000,6190.000000,15306.000000,57468.000000
24399.000000,6221.000000,15297.000000,57508.000000
24385.000000,6226.000000,15316.000000,57488.000000
24390.000000,6189.000000,15308.000000,57481.000000
24395.000000,6230.000000,15302.000000,57496.000000
24371.000000,6212.000000,15333.000000,57507.000000
24396.000000,6209.000000,15326.000000,57498.000000
24380.000000,6179.000000,15369.000000,57532.000000
24367.000000,6178.000000,15395.000000,57536.000000
24376.000000,6185.000000,15441.000000,57584.000000
24382.000000,6196.000000,15448.000000,57589.000000
24378.000000,6192.000000,15508.000000,57621.000000
24380.000000,6187.000000,15494.000000,57598.000000
24360.000000,6167.000000,15548.000000,57634.000000
24391.000000,6188.000000,15549.000000,57669.000000
24382.000000,6213.000000,15605.000000,57670.000000
24358.000000,6163.000000,15613.000000,57680.000000
24359.000000,6189.000000,15643.000000,57673.000000
24372.000000,6171.000000,15661.000000,57647.000000
24319.000000,6171.000000,15644.000000,57667.000000
24346.000000,6134.000000,15612.000000,57695.000000
24360.000000,6179.000000,15630.000000,57671.000000
24357.000000,6189.000000,15618.000000,57692.000000
24327.000000,6162.000000,15612.000000,57694.000000
24345.000000,6174.000000,15616.000000,57649.000000
24351.000000,6156.000000,15586.000000,57656.000000
24362.000000,6161.000000,15588.000000,57670.000000
24360.000000,6173.000000,15593.000000,57672.000000
24349.000000,6172.000000,15554.000000,57615.000000
24372.000000,6180.000000,15528.000000,57617.000000
24395.000000,6159.000000,15504.000000,57588.000000
24375.000000,6165.000000,15497.000000,57592.000000
24412.000000,6202.000000,15488.000000,57603.000000
24414.000000,6221.000000,15470.000000,57585.000000
24455.000000,6176.000000,15430.000000,57609.000000
24431.000000,6241.000000,15491.000000,57581.000000
24470.000000,6254.000000,15462.000000,57596.000000
24508.000000,6267.000000,15429.000000,57558.000000
24539.000000,6328.000000,15425.000000,57546.000000
24577.000000,6300.000000,15414.000000,57539.000000
24576.000000,6353.000000,15418.000000,57540.000000
24660.000000,6400.000000,15387.000000,57548.000000
24643.000000,6395.000000,15387.000000,57534.000000
24680.000000,6397.000000,15402.000000,57538.000000
24660.000000,6391.000000,15392.000000,57537.000000
24673.000000,6400.000000,15370.000000,57536.000000
24687.000000,6396.000000,15424.000000,57519.000000
24651.000000,6409.000000,15361.000000,57564.000000
24643.000000,6391.000000,15380.000000,57541.000000
24637.000000,6377.000000,15353.000000,57514.000000
24649.000000,6339.000000,15381.000000,57526.000000
24654.000000,6398.000000,15382.000000,57507.000000
24628.000000,6361.000000,15358.000000,57521.000000
24605.000000,6370.000000,15390.000000,57478.000000
24572.000000,6348.000000,15338.000000,57488.000000
24531.000000,6295.000000,15350.000000,57540.000000
24560.000000,6339.000000,15361.000000,57503.000000
24528.000000,6352.000000,15334.000000,57476.000000
24537.000000,6299.000000,15319.000000,57485.000000
24503.000000,6285.000000,15310.000000,57474.000000
24499.000000,6239.000000,15333.000000,57493.000000
24502.000000,6307.000000,15301.000000,57476.000000
24481.000000,6258.000000,15320.000000,57476.000000
24465.000000,6234.000000,15309.000000,57475.000000
24456.000000,6265.000000,15298.000000,57475.000000
24444.000000,6243.000000,15281.000000,57477.000000
24445.000000,6252.000000,15307.000000,57478.000000
24409.000000,6232.000000,15294.000000,57496.000000
24437.000000,6235.000000,15297.000000,57493.000000
24409.000000,6208.000000,15305.000000,57506.000000
24438.000000,6179.000000,15282.000000,57498.000000
24390.000000,6236.000000,15324.000000,57485.000000
24394.000000,6222.000000,15308.000000,57541.000000
24406.000000,6213.000000,15328.000000,57496.000000
24426.000000,6203.000000,15329.000000,57494.000000
24426.000000,6198.000000,15311.000000,57491.000000
24432.000000,6208.000000,15318.000000,57487.000000
24422.000000,6209.000000,15318.000000,57501.000000
24414.000000,6206.000000,15384.000000,57521.000000
24395.000000,6187.000000,15392.000000,57538.000000
24356.000000,6155.000000,15395.000000,57531.000000
24363.000000,6144.000000,15436.000000,57550.000000
24337.000000,6160.000000,15456.000000,57577.000000
24359.000000,6158.000000,15465.000000,57595.000000
24337.000000,6174.000000,15525.000000,57631.000000
24333.000000,6119.000000,15505.000000,57581.000000
24339.000000,6144.000000,15566.000000,57622.000000
24353.000000,6148.000000,15576.000000,57662.000000
24324.000000,6152.000000,15623.000000,57656.000000
24358.000000,6136.000000,15632.000000,57671.000000
24351.000000,6150.000000,15663.000000,57678.000000
24388.000000,6178.000000,15592.000000,57708.000000
24396.000000,6180.000000,15616.000000,57667.000000
24424.000000,6173.000000,15580.000000,57652.000000
24407.000000,6170.000000,15574.000000,57648.000000
24429.000000,6169.000000,15594.000000,57671.000000
24426.000000,6212.000000,15567.000000,57648.000000
24419.000000,6186.000000,15563.000000,57662.000000
24444.000000,6205.000000,15518.000000,57635.000000
24460.000000,6252.000000,15548.000000,57620.000000
24476.000000,6256.000000,15550.000000,57625.000000
24507.000000,6279.000000,15525.000000,57610.000000
24547.000000,6283.000000,15513.000000,57612.000000
24557.000000,6303.000000,15499.000000,57623.000000
24562.000000,6305.000000,15495.000000,57608.000000
24586.000000,6317.000000,15468.000000,57565.000000
24661.000000,6372.000000,15473.000000,57583.000000
24683.000000,6417.000000,15479.000000,57582.000000
24703.000000,6381.000000,15453.000000,57586.000000
24704.000000,6389.000000,15415.000000,57579.000000
24709.000000,6370.000000,15405.000000,57544.000000
24722.000000,6388.000000,15442.000000,57554.000000
24703.000000,6383.000000,15426.000000,57554.000000
24700.000000,6380.000000,15401.000000,57567.000000
24713.000000,6389.000000,15397.000000,57557.000000
24688.000000,6374.000000,15361.000000,57547.000000
24676.000000,6367.000000,15372.000000,57513.000000
24679.000000,6374.000000,15381.000000,57567.000000
24674.000000,6354.000000,15367.000000,57495.000000
24718.000000,6380.000000,15338.000000,57515.000000
24654.000000,6382.000000,15362.000000,57518.000000
24621.000000,6327.000000,15343.000000,57534.000000
24635.000000,6324.000000,15323.000000,57515.000000
24633.000000,6322.000000,15353.000000,57532.000000
24559.000000,6287.000000,15336.000000,57547.000000
24555.000000,6318.000000,15364.000000,57530.000000
24511.000000,6243.000000,15305.000000,57499.000000
24536.000000,6290.000000,15297.000000,57512.000000
24554.000000,6279.000000,15304.000000,57495.000000
24536.000000,6261.000000,15323.000000,57518.000000
24502.000000,6275.000000,15314.000000,57515.000000
24530.000000,6241.000000,15303.000000,57498.000000
24564.000000,6236.000000,15311.000000,57525.000000
24521.000000,6255.000000,15285.000000,57506.000000
24502.000000,6245.000000,15314.000000,57522.000000
24509.000000,6229.000000,15325.000000,57521.000000
24493.000000,6224.000000,15286.000000,57496.000000
24514.000000,6234.000000,15285.000000,57514.000000
24484.000000,6232.000000,15280.000000,57481.000000
24483.000000,6207.000000,15267.000000,57499.000000
24438.000000,6235.000000,15271.000000,57481.000000
24444.000000,6221.000000,15237.000000,57477.000000
24468.000000,6231.000000,15277.000000,57448.000000
24447.000000,6181.000000,15200.000000,57453.000000
24449.000000,6213.000000,15214.000000,57455.000000
24407.000000,6192.000000,15204.000000,57458.000000
24454.000000,6200.000000,15213.000000,57481.000000
24428.000000,6192.000000,15223.000000,57487.000000
24446.000000,6187.000000,15203.000000,57493.000000
24393.000000,6160.000000,15264.000000,57474.000000
24436.000000,6167.000000,15216.000000,57474.000000
24412.000000,6168.000000,15231.000000,57518.000000
24429.000000,6130.000000,15243.000000,57506.000000
24397.000000,6167.000000,15254.000000,57514.000000
24423.000000,6168.000000,15257.000000,57513.000000
24398.000000,6160.000000,15307.000000,57510.000000
24408.000000,6147.000000,15299.000000,57517.000000
24412.000000,6189.000000,15284.000000,57483.000000
24400.000000,6172.000000,15293.000000,57516.000000
24388.000000,6195.000000,15349.000000,57511.000000
24392.000000,6160.000000,15335.000000,57557.000000
24425.000000,6164.000000,15372.000000,57537.000000
24440.000000,6157.000000,15375.000000,57579.000000
24433.000000,6158.000000,15425.000000,57592.000000
24439.000000,6198.000000,15418.000000,57606.000000
24434.000000,6160.000000,15464.000000,57599.000000
24441.000000,6188.000000,15477.000000,57615.000000
24484.000000,6180.000000,15493.000000,57603.000000
24495.000000,6210.000000,15481.000000,57618.000000
24508.000000,6200.000000,15493.000000,57612.000000
24508.000000,6253.000000,15497.000000,57622.000000
24557.000000,6250.000000,15477.000000,57614.000000
24566.000000,6271.000000,15503.000000,57621.000000
24568.000000,6291.000000,15454.000000,57617.000000
24584.000000,6254.000000,15465.000000,57599.000000
24618.000000,6310.000000,15451.000000,57606.000000
24629.000000,6336.000000,15443.000000,57605.000000
24666.000000,6361.000000,15438.000000,57595.000000
24744.000000,6382.000000,15433.000000,57583.000000
24802.000000,6424.000000,15427.000000,57567.000000
24743.000000,6399.000000,15386.000000,57598.000000
24785.000000,6431.000000,15358.000000,57560.000000
24815.000000,6425.000000,15338.000000,57569.000000
24805.000000,6450.000000,15332.000000,57532.000000
24778.000000,6428.000000,15349.000000,57530.000000
24794.000000,6422.000000,15305.000000,57557.000000
24761.000000,6447.000000,15318.000000,57540.000000
24772.000000,6418.000000,15301.000000,57539.000000
24756.000000,6411.000000,15301.000000,57504.000000
24760.000000,6426.000000,15274.000000,57514.000000
24714.000000,6432.000000,15276.000000,57493.000000
24759.000000,6394.000000,15228.000000,57497.000000
24754.000000,6439.000000,15245.000000,57485.000000
24718.000000,6390.000000,15229.000000,57495.000000
24745.000000,6371.000000,15234.000000,57512.000000
24702.000000,6360.000000,15209.000000,57496.000000
24724.000000,6374.000000,15169.000000,57460.000000
24699.000000,6390.000000,15173.000000,57479.000000
24697.000000,6360.000000,15182.000000,57459.000000
24672.000000,6375.000000,15182.000000,57472.000000
24672.000000,6326.000000,15161.000000,57460.000000
24652.000000,6349.000000,15168.000000,57448.000000
24682.000000,6343.000000,15131.000000,57464.000000
24616.000000,6329.000000,15123.000000,57447.000000
24633.000000,6361.000000,15140.000000,57448.000000
24643.000000,6340.000000,15117.000000,57451.000000
24613.000000,6340.000000,15109.000000,57423.000000
24597.000000,6319.000000,15095.000000,57447.000000
24632.000000,6327.000000,15092.000000,57399.000000
24625.000000,6331.000000,15059.000000,57437.000000
24621.000000,6298.000000,15065.000000,57412.000000
24620.000000,6320.000000,15066.000000,57411.000000
24630.000000,6373.000000,15055.000000,57411.000000
24610.000000,6331.000000,15058.000000,57443.000000
24603.000000,6345.000000,15041.000000,57393.000000
24615.000000,6306.000000,15053.000000,57405.000000
24616.000000,6288.000000,15027.000000,57384.000000
24599.000000,6326.000000,15059.000000,57400.000000
24569.000000,6334.000000,15013.000000,57404.000000
24549.000000,6342.000000,14988.000000,57385.000000
24600.000000,6335.000000,15015.000000,57411.000000
24578.000000,6370.000000,15037.000000,57392.000000
24590.000000,6348.000000,15017.000000,57420.000000
24587.000000,6342.000000,15001.000000,57413.000000
24609.000000,6331.000000,15003.000000,57393.000000
24590.000000,6315.000000,15037.000000,57399.000000
24566.000000,6311.000000,15041.000000,57384.000000
24566.000000,6313.000000,15057.000000,57425.000000
24565.000000,6299.000000,15062.000000,57400.000000
24563.000000,6297.000000,15048.000000,57416.000000
24555.000000,6290.000000,15084.000000,57381.000000
24593.000000,6303.000000,15091.000000,57416.000000
24590.000000,6323.000000,15107.000000,57431.000000
24601.000000,6289.000000,15115.000000,57442.000000
24575.000000,6330.000000,15114.000000,57444.000000
24600.000000,6302.000000,15131.000000,57462.000000
24588.000000,6329.000000,15113.000000,57444.000000
24596.000000,6320.000000,15193.000000,57496.000000
24613.000000,6357.000000,15189.000000,57478.000000
24589.000000,6316.000000,15259.000000,57528.000000
24600.000000,6352.000000,15308.000000,57551.000000
24635.000000,6341.000000,15321.000000,57548.000000
24631.000000,6369.000000,15339.000000,57566.000000
24645.000000,6369.000000,15384.000000,57563.000000
24694.000000,6388.000000,15387.000000,57578.000000
24682.000000,6380.000000,15389.000000,57557.000000
24663.000000,6388.000000,15390.000000,57552.000000
24736.000000,6458.000000,15370.000000,57561.000000
24762.000000,6455.000000,15370.000000,57560.000000
24798.000000,6478.000000,15338.000000,57533.000000
24795.000000,6459.000000,15318.000000,57517.000000
24831.000000,6501.000000,15321.000000,57541.000000
24860.000000,6477.000000,15296.000000,57507.000000
24872.000000,6537.000000,15296.000000,57503.000000
24905.000000,6542.000000,15302.000000,57548.000000
24920.000000,6556.000000,15268.000000,57489.000000
24905.000000,6532.000000,15275.000000,57532.000000
24925.000000,6560.000000,15257.000000,57485.000000
24951.000000,6541.000000,15229.000000,57476.000000
24934.000000,6518.000000,15189.000000,57484.000000
24895.000000,6561.000000,15206.000000,57490.000000
24926.000000,6524.000000,15195.000000,57495.000000
24880.000000,6518.000000,15217.000000,57491.000000
24893.000000,6520.000000,15155.000000,57485.000000
24881.000000,6514.000000,15170.000000,57471.000000
24862.000000,6531.000000,15193.000000,57465.000000
24833.000000,6514.000000,15131.000000,57433.000000
24819.000000,6463.000000,15131.000000,57457.000000
24818.000000,6465.000000,15121.000000,57438.000000
24813.000000,6472.000000,15107.000000,57461.000000
24785.000000,6455.000000,15103.000000,57427.000000
24760.000000,6476.000000,15103.000000,57433.000000
24752.000000,6445.000000,15092.000000,57450.000000
24757.000000,6448.000000,15101.000000,57446.000000
24742.000000,6446.000000,15089.000000,57444.000000
24762.000000,6418.000000,15059.000000,57390.000000
24706.000000,6420.000000,15043.000000,57407.000000
24738.000000,6409.000000,15051.000000,57394.000000
24701.000000,6409.000000,15073.000000,57425.000000
24687.000000,6409.000000,15031.000000,57417.000000
24672.000000,6420.000000,15032.000000,57418.000000
24719.000000,6405.000000,15043.000000,57385.000000
24664.000000,6433.000000,14996.000000,57409.000000
24708.000000,6409.000000,15030.000000,57389.000000
24675.000000,6407.000000,15017.000000,57372.000000
24689.000000,6405.000000,14972.000000,57353.000000
24646.000000,6390.000000,14993.000000,57368.000000
24672.000000,6411.000000,14988.000000,57378.000000
24650.000000,6417.000000,14995.000000,57371.000000
24651.000000,6386.000000,14974.000000,57366.000000
24649.000000,6365.000000,15018.000000,57376.000000
24619.000000,6388.000000,14991.000000,57376.000000
24618.000000,6381.000000,15032.000000,57424.000000
24606.000000,6371.000000,15023.000000,57395.000000
24588.000000,6386.000000,15049.000000,57404.000000
24620.000000,6375.000000,15054.000000,57451.000000
24615.000000,6391.000000,15086.000000,57432.000000
24599.000000,6334.000000,15114.000000,57463.000000
24561.000000,6350.000000,15134.000000,57477.000000
24595.000000,6299.000000,15162.000000,57477.000000
24587.000000,6329.000000,15155.000000,57478.000000
24590.000000,6353.000000,15179.000000,57453.000000
24579.000000,6363.000000,15185.000000,57485.000000
24626.000000,6354.000000,15218.000000,57475.000000
24644.000000,6359.000000,15267.000000,57535.000000
24608.000000,6335.000000,15272.000000,57513.000000
24617.000000,6326.000000,15298.000000,57553.000000
24599.000000,6345.000000,15373.000000,57585.000000
24602.000000,6349.000000,15385.000000,57609.000000
24584.000000,6359.000000,15431.000000,57611.000000
24612.000000,6364.000000,15450.000000,57589.000000
24604.000000,6386.000000,15398.000000,57595.000000
24601.000000,6366.000000,15429.000000,57579.000000
24584.000000,6401.000000,15408.000000,57600.000000
24628.000000,6384.000000,15423.000000,57587.000000
24587.000000,6377.000000,15402.000000,57609.000000
24631.000000,6406.000000,15396.000000,57597.000000
24634.000000,6371.000000,15412.000000,57590.000000
24621.000000,6425.000000,15400.000000,57562.000000
24680.000000,6442.000000,15383.000000,57584.000000
24727.000000,6443.000000,15376.000000,57612.000000
24691.000000,6446.000000,15361.000000,57551.000000
24718.000000,6455.000000,15331.000000,57558.000000
24776.000000,6466.000000,15316.000000,57558.000000
24771.000000,6517.000000,15307.000000,57586.000000
24843.000000,6535.000000,15324.000000,57534.000000
24827.000000,6544.000000,15306.000000,57549.000000
24860.000000,6521.000000,15314.000000,57573.000000
24850.000000,6545.000000,15322.000000,57529.000000
24825.000000,6528.000000,15288.000000,57507.000000
