660nm,730nm,850nm,940nm
21311.000000,4147.000000,2621.000000,46702.000000
21258.000000,4105.000000,2557.000000,46647.000000
21184.000000,4043.000000,2470.000000,46644.000000
21106.000000,3998.000000,2451.000000,46580.000000
21102.000000,3985.000000,2386.000000,46542.000000
21029.000000,3924.000000,2294.000000,46522.000000
20975.000000,3877.000000,2281.000000,46494.000000
20915.000000,3822.000000,2199.000000,46471.000000
20874.000000,3821.000000,2142.000000,46436.000000
20846.000000,3759.000000,2050.000000,46362.000000
20764.000000,3702.000000,2005.000000,46367.000000
20725.000000,3633.000000,1937.000000,46305.000000
20647.000000,3622.000000,1897.000000,46311.000000
20606.000000,3580.000000,1841.000000,46274.000000
20530.000000,3543.000000,1795.000000,46246.000000
20518.000000,3506.000000,1723.000000,46236.000000
20459.000000,3432.000000,1681.000000,46179.000000
20420.000000,3394.000000,1620.000000,46130.000000
20333.000000,3421.000000,1598.000000,46117.000000
20339.000000,3334.000000,1549.000000,46096.000000
20260.000000,3320.000000,1497.000000,46109.000000
20233.000000,3273.000000,1441.000000,46020.000000
20218.000000,3218.000000,1348.000000,46010.000000
20100.000000,3201.000000,1318.000000,45990.000000
20062.000000,3188.000000,1273.000000,45951.000000
20047.000000,3190.000000,1250.000000,45939.000000
20033.000000,3172.000000,1280.000000,45949.000000
20101.000000,3192.000000,1274.000000,45968.000000
20123.000000,3238.000000,1339.000000,46024.000000
20206.000000,3279.000000,1422.000000,46046.000000
20299.000000,3343.000000,1521.000000,46119.000000
20405.000000,3440.000000,1640.000000,46169.000000
20498.000000,3518.000000,1739.000000,46239.000000
20624.000000,3611.000000,1898.000000,46284.000000
20701.000000,3689.000000,1995.000000,46383.000000
20836.000000,3778.000000,2154.000000,46393.000000
20950.000000,3888.000000,2272.000000,46508.000000
21050.000000,3967.000000,2395.000000,46575.000000
21168.000000,4024.000000,2529.000000,46669.000000
21310.000000,4165.000000,2677.000000,46700.000000
21414.000000,4231.000000,2747.000000,46758.000000
21495.000000,4279.000000,2857.000000,46844.000000
21604.000000,4397.000000,3006.000000,46902.000000
21616.000000,4375.000000,2985.000000,46916.000000
21667.000000,4414.000000,3048.000000,46918.000000
21619.000000,4393.000000,2961.000000,46902.000000
21578.000000,4373.000000,2916.000000,46847.000000
21524.000000,4349.000000,2872.000000,46830.000000
21505.000000,4289.000000,2830.000000,46805.000000
21410.000000,4255.000000,2776.000000,46806.000000
21403.000000,4222.000000,2734.000000,46769.000000
21378.000000,4204.000000,2678.000000,46728.000000
21283.000000,4134.000000,2650.000000,46716.000000
21243.000000,4104.000000,2585.000000,46671.000000
21214.000000,4047.000000,2520.000000,46633.000000
21141.000000,4016.000000,2449.000000,46605.000000
21133.000000,3988.000000,2396.000000,46591.000000
21090.000000,3946.000000,2365.000000,46544.000000
20981.000000,3893.000000,2303.000000,46503.000000
20963.000000,3878.000000,2262.000000,46498.000000
20934.000000,3813.000000,2183.000000,46440.000000
20866.000000,3806.000000,2177.000000,46439.000000
20839.000000,3775.000000,2086.000000,46371.000000
20734.000000,3702.000000,1994.000000,46371.000000
20719.000000,3649.000000,1967.000000,46310.000000
20635.000000,3635.000000,1910.000000,46311.000000
20585.000000,3565.000000,1825.000000,46270.000000
20585.000000,3535.000000,1780.000000,46266.000000
20510.000000,3501.000000,1750.000000,46221.000000
20458.000000,3442.000000,1674.000000,46194.000000
20357.000000,3398.000000,1596.000000,46143.000000
20343.000000,3363.000000,1559.000000,46143.000000
20292.000000,3334.000000,1539.000000,46107.000000
20267.000000,3291.000000,1465.000000,46075.000000
20191.000000,3305.000000,1436.000000,46053.000000
20163.000000,3251.000000,1422.000000,46033.000000
20150.000000,3224.000000,1368.000000,45999.000000
20090.000000,3170.000000,1274.000000,45984.000000
20026.000000,3102.000000,1217.000000,45942.000000
19979.000000,3129.000000,1189.000000,45888.000000
19921.000000,3043.000000,1155.000000,45870.000000
19925.000000,3065.000000,1139.000000,45879.000000
19973.000000,3061.000000,1186.000000,45918.000000
20046.000000,3160.000000,1248.000000,45968.000000
20090.000000,3202.000000,1344.000000,46002.000000
20176.000000,3279.000000,1430.000000,46052.000000
20289.000000,3336.000000,1571.000000,46108.000000
20385.000000,3457.000000,1667.000000,46163.000000
20468.000000,3500.000000,1756.000000,46243.000000
20591.000000,3576.000000,1882.000000,46293.000000
20708.000000,3702.000000,2022.000000,46357.000000
20832.000000,3780.000000,2134.000000,46442.000000
20950.000000,3840.000000,2263.000000,46522.000000
21052.000000,3948.000000,2420.000000,46578.000000
21171.000000,4074.000000,2501.000000,46642.000000
21287.000000,4111.000000,2631.000000,46709.000000
21388.000000,4173.000000,2712.000000,46751.000000
21426.000000,4230.000000,2810.000000,46830.000000
21419.000000,4253.000000,2841.000000,46824.000000
21447.000000,4261.000000,2791.000000,46801.000000
21437.000000,4266.000000,2814.000000,46827.000000
21394.000000,4177.000000,2759.000000,46770.000000
21356.000000,4225.000000,2724.000000,46754.000000
21314.000000,4148.000000,2634.000000,46691.000000
21287.000000,4132.000000,2623.000000,46742.000000
21210.000000,4055.000000,2565.000000,46668.000000
21201.000000,4037.000000,2532.000000,46643.000000
21144.000000,4022.000000,2485.000000,46610.000000
21130.000000,3992.000000,2456.000000,46589.000000
21084.000000,4003.000000,2406.000000,46608.000000
21072.000000,3939.000000,2363.000000,46544.000000
20984.000000,3913.000000,2318.000000,46537.000000
20950.000000,3886.000000,2292.000000,46525.000000
20932.000000,3879.000000,2257.000000,46489.000000
20905.000000,3822.000000,2199.000000,46459.000000
20848.000000,3801.000000,2145.000000,46459.000000
20784.000000,3761.000000,2132.000000,46403.000000
20772.000000,3751.000000,2037.000000,46353.000000
20714.000000,3687.000000,1966.000000,46343.000000
20659.000000,3620.000000,1921.000000,46324.000000
20562.000000,3578.000000,1861.000000,46282.000000
20507.000000,3550.000000,1802.000000,46227.000000
20506.000000,3518.000000,1790.000000,46222.000000
20421.000000,3474.000000,1730.000000,46181.000000
20352.000000,3423.000000,1650.000000,46150.000000
20319.000000,3367.000000,1599.000000,46076.000000
20252.000000,3335.000000,1542.000000,46063.000000
20180.000000,3282.000000,1460.000000,46077.000000
20163.000000,3254.000000,1425.000000,46007.000000
20094.000000,3205.000000,1296.000000,46001.000000
20056.000000,3147.000000,1288.000000,45961.000000
19976.000000,3150.000000,1235.000000,45927.000000
19977.000000,3045.000000,1182.000000,45901.000000
19932.000000,3052.000000,1170.000000,45909.000000
20001.000000,3115.000000,1237.000000,45914.000000
20062.000000,3186.000000,1295.000000,45952.000000
20112.000000,3208.000000,1333.000000,45983.000000
20190.000000,3304.000000,1476.000000,46079.000000
20284.000000,3367.000000,1583.000000,46139.000000
20418.000000,3440.000000,1698.000000,46173.000000
20582.000000,3573.000000,1879.000000,46302.000000
20673.000000,3648.000000,2004.000000,46345.000000
20818.000000,3764.000000,2108.000000,46421.000000
20932.000000,3878.000000,2307.000000,46534.000000
21220.000000,4071.000000,2605.000000,46718.000000
21283.000000,4125.000000,2657.000000,46728.000000
21345.000000,4145.000000,2707.000000,46764.000000
21455.000000,4295.000000,2829.000000,46803.000000
21457.000000,4297.000000,2863.000000,46819.000000
21415.000000,4296.000000,2816.000000,46830.000000
21419.000000,4293.000000,2819.000000,46805.000000
21371.000000,4207.000000,2743.000000,46727.000000
21339.000000,4186.000000,2718.000000,46718.000000
21314.000000,4166.000000,2680.000000,46756.000000
21270.000000,4137.000000,2638.000000,46675.000000
21216.000000,4081.000000,2565.000000,46655.000000
21204.000000,4031.000000,2511.000000,46666.000000
21164.000000,4027.000000,2498.000000,46636.000000
21128.000000,4005.000000,2431.000000,46559.000000
21050.000000,3965.000000,2381.000000,46624.000000
21013.000000,3969.000000,2364.000000,46582.000000
20982.000000,3890.000000,2316.000000,46528.000000
20929.000000,3856.000000,2262.000000,46515.000000
20881.000000,3807.000000,2207.000000,46474.000000
20861.000000,3791.000000,2164.000000,46424.000000
20819.000000,3738.000000,2103.000000,46422.000000
20768.000000,3722.000000,2053.000000,46376.000000
20724.000000,3691.000000,2004.000000,46348.000000
20669.000000,3656.000000,1952.000000,46352.000000
20645.000000,3593.000000,1891.000000,46312.000000
20550.000000,3531.000000,1889.000000,46274.000000
20545.000000,3521.000000,1799.000000,46249.000000
20487.000000,3501.000000,1760.000000,46242.000000
20457.000000,3453.000000,1701.000000,46181.000000
20399.000000,3430.000000,1676.000000,46157.000000
20339.000000,3378.000000,1606.000000,46157.000000
20290.000000,3341.000000,1582.000000,46145.000000
20266.000000,3332.000000,1551.000000,46117.000000
20228.000000,3331.000000,1484.000000,46063.000000
20191.000000,3256.000000,1427.000000,46029.000000
20151.000000,3246.000000,1365.000000,46028.000000
20084.000000,3190.000000,1309.000000,45986.000000
20026.000000,3204.000000,1289.000000,45952.000000
20025.000000,3094.000000,1201.000000,45932.000000
19965.000000,3084.000000,1198.000000,45893.000000
19961.000000,3088.000000,1199.000000,45944.000000
19990.000000,3142.000000,1205.000000,45916.000000
20060.000000,3160.000000,1273.000000,45999.000000
20120.000000,3241.000000,1358.000000,46011.000000
20220.000000,3304.000000,1493.000000,46079.000000
20328.000000,3377.000000,1576.000000,46139.000000
20433.000000,3461.000000,1734.000000,46239.000000
20548.000000,3522.000000,1875.000000,46272.000000
20654.000000,3608.000000,1969.000000,46342.000000
20784.000000,3701.000000,2090.000000,46425.000000
20880.000000,3823.000000,2234.000000,46475.000000
21009.000000,3913.000000,2327.000000,46568.000000
21135.000000,4009.000000,2452.000000,46661.000000
21237.000000,4094.000000,2582.000000,46703.000000
21366.000000,4138.000000,2726.000000,46777.000000
21435.000000,4224.000000,2814.000000,46791.000000
21484.000000,4259.000000,2884.000000,46851.000000
21532.000000,4305.000000,2868.000000,46851.000000
21488.000000,4293.000000,2838.000000,46833.000000
21481.000000,4280.000000,2833.000000,46815.000000
21455.000000,4235.000000,2795.000000,46787.000000
21415.000000,4192.000000,2737.000000,46755.000000
21370.000000,4146.000000,2700.000000,46773.000000
21324.000000,4179.000000,2655.000000,46729.000000
21292.000000,4175.000000,2659.000000,46702.000000
21213.000000,4083.000000,2595.000000,46676.000000
21204.000000,4045.000000,2543.000000,46661.000000
21164.000000,4029.000000,2508.000000,46635.000000
21132.000000,3973.000000,2436.000000,46625.000000
21107.000000,3989.000000,2407.000000,46598.000000
21065.000000,3939.000000,2356.000000,46554.000000
21015.000000,3901.000000,2283.000000,46540.000000
20973.000000,3871.000000,2275.000000,46501.000000
20945.000000,3814.000000,2205.000000,46479.000000
20885.000000,3796.000000,2173.000000,46457.000000
20842.000000,3778.000000,2108.000000,46423.000000
20797.000000,3723.000000,2075.000000,46412.000000
20784.000000,3700.000000,2026.000000,46361.000000
20721.000000,3645.000000,1952.000000,46368.000000
20674.000000,3634.000000,1937.000000,46348.000000
20621.000000,3581.000000,1869.000000,46313.000000
20544.000000,3510.000000,1819.000000,46279.000000
20524.000000,3492.000000,1774.000000,46255.000000
20492.000000,3476.000000,1735.000000,46229.000000
20431.000000,3446.000000,1684.000000,46191.000000
20392.000000,3414.000000,1642.000000,46170.000000
20355.000000,3380.000000,1606.000000,46158.000000
20342.000000,3375.000000,1572.000000,46151.000000
20303.000000,3342.000000,1552.000000,46087.000000
20224.000000,3323.000000,1467.000000,46094.000000
20224.000000,3256.000000,1424.000000,46032.000000
20175.000000,3245.000000,1416.000000,46042.000000
20126.000000,3203.000000,1328.000000,46022.000000
20111.000000,3181.000000,1308.000000,45990.000000
20040.000000,3188.000000,1295.000000,45978.000000
20048.000000,3161.000000,1269.000000,45952.000000
20065.000000,3153.000000,1282.000000,45945.000000
20133.000000,3201.000000,1329.000000,45994.000000
20154.000000,3249.000000,1386.000000,46085.000000
20286.000000,3333.000000,1516.000000,46104.000000
20325.000000,3389.000000,1598.000000,46146.000000
20446.000000,3470.000000,1724.000000,46215.000000
20566.000000,3544.000000,1873.000000,46300.000000
20691.000000,3667.000000,1975.000000,46378.000000
20834.000000,3746.000000,2102.000000,46413.000000
20899.000000,3842.000000,2217.000000,46520.000000
21043.000000,3926.000000,2375.000000,46570.000000
21158.000000,4049.000000,2495.000000,46640.000000
21272.000000,4110.000000,2604.000000,46713.000000
21370.000000,4228.000000,2730.000000,46771.000000
21488.000000,4300.000000,2866.000000,46856.000000
21590.000000,4374.000000,2924.000000,46884.000000
21641.000000,4436.000000,3088.000000,46908.000000
21698.000000,4442.000000,3064.000000,46951.000000
21664.000000,4446.000000,3050.000000,46950.000000
21622.000000,4447.000000,2985.000000,46927.000000
21600.000000,4388.000000,2957.000000,46906.000000
21550.000000,4334.000000,2908.000000,46875.000000
21488.000000,4290.000000,2848.000000,46844.000000
21449.000000,4256.000000,2819.000000,46859.000000
21403.000000,4207.000000,2734.000000,46762.000000
21350.000000,4187.000000,2689.000000,46749.000000
21340.000000,4152.000000,2645.000000,46727.000000
21269.000000,4135.000000,2591.000000,46698.000000
21242.000000,4077.000000,2519.000000,46648.000000
21154.000000,4006.000000,2448.000000,46643.000000
21129.000000,4029.000000,2450.000000,46615.000000
21141.000000,3998.000000,2449.000000,46590.000000
21077.000000,3973.000000,2398.000000,46563.000000
21040.000000,3920.000000,2351.000000,46538.000000
21000.000000,3923.000000,2296.000000,46516.000000
20970.000000,3851.000000,2243.000000,46475.000000
20936.000000,3776.000000,2210.000000,46470.000000
20850.000000,3777.000000,2115.000000,46427.000000
20838.000000,3776.000000,2072.000000,46409.000000
20784.000000,3694.000000,1982.000000,46377.000000
20697.000000,3655.000000,1973.000000,46359.000000
20643.000000,3600.000000,1945.000000,46329.000000
20596.000000,3580.000000,1864.000000,46302.000000
20576.000000,3532.000000,1814.000000,46258.000000
20488.000000,3491.000000,1775.000000,46258.000000
20471.000000,3458.000000,1702.000000,46183.000000
20424.000000,3391.000000,1634.000000,46163.000000
20374.000000,3381.000000,1612.000000,46136.000000
20289.000000,3328.000000,1539.000000,46110.000000
20272.000000,3296.000000,1506.000000,46088.000000
20228.000000,3259.000000,1424.000000,46065.000000
20228.000000,3234.000000,1387.000000,46040.000000
20135.000000,3212.000000,1345.000000,45996.000000
20144.000000,3189.000000,1309.000000,45986.000000
20070.000000,3159.000000,1274.000000,46001.000000
20067.000000,3169.000000,1261.000000,45952.000000
20094.000000,3201.000000,1295.000000,45967.000000
20165.000000,3218.000000,1359.000000,46000.000000
20222.000000,3252.000000,1417.000000,46063.000000
20288.000000,3335.000000,1520.000000,46144.000000
20371.000000,3396.000000,1618.000000,46165.000000
20503.000000,3470.000000,1754.000000,46246.000000
20583.000000,3566.000000,1854.000000,46289.000000
20728.000000,3649.000000,1977.000000,46357.000000
20802.000000,3717.000000,2053.000000,46440.000000
20917.000000,3843.000000,2174.000000,46491.000000
21011.000000,3868.000000,2310.000000,46551.000000
21068.000000,3902.000000,2349.000000,46593.000000
21166.000000,4007.000000,2484.000000,46660.000000
21285.000000,4109.000000,2612.000000,46696.000000
21363.000000,4178.000000,2697.000000,46772.000000
21478.000000,4214.000000,2803.000000,46803.000000
21512.000000,4288.000000,2838.000000,46841.000000
21532.000000,4295.000000,2849.000000,46862.000000
21498.000000,4261.000000,2827.000000,46813.000000
21482.000000,4224.000000,2762.000000,46775.000000
21438.000000,4207.000000,2784.000000,46789.000000
21370.000000,4199.000000,2703.000000,46748.000000
21334.000000,4125.000000,2640.000000,46707.000000
21298.000000,4114.000000,2579.000000,46698.000000
21297.000000,4104.000000,2589.000000,46673.000000
21249.000000,4073.000000,2524.000000,46676.000000
21199.000000,4023.000000,2467.000000,46639.000000
21151.000000,3968.000000,2415.000000,46603.000000
21118.000000,3957.000000,2358.000000,46579.000000
21089.000000,3908.000000,2358.000000,46586.000000
21017.000000,3852.000000,2291.000000,46543.000000
20988.000000,3830.000000,2250.000000,46514.000000
20979.000000,3825.000000,2179.000000,46471.000000
20905.000000,3792.000000,2149.000000,46445.000000
20867.000000,3731.000000,2117.000000,46453.000000
20859.000000,3699.000000,2045.000000,46413.000000
20798.000000,3638.000000,1978.000000,46373.000000
20722.000000,3591.000000,1947.000000,46333.000000
20679.000000,3546.000000,1881.000000,46311.000000
20641.000000,3534.000000,1875.000000,46275.000000
20594.000000,3537.000000,1794.000000,46288.000000
20544.000000,3442.000000,1716.000000,46230.000000
20474.000000,3436.000000,1707.000000,46219.000000
20447.000000,3423.000000,1633.000000,46192.000000
20433.000000,3364.000000,1586.000000,46156.000000
20344.000000,3354.000000,1564.000000,46139.000000
20367.000000,3346.000000,1530.000000,46098.000000
20290.000000,3255.000000,1455.000000,46063.000000
20236.000000,3240.000000,1451.000000,46050.000000
20249.000000,3234.000000,1390.000000,46025.000000
20214.000000,3219.000000,1323.000000,46013.000000
20167.000000,3164.000000,1281.000000,45996.000000
20133.000000,3096.000000,1280.000000,45971.000000
20115.000000,3126.000000,1232.000000,45968.000000
20055.000000,3128.000000,1193.000000,45934.000000
20029.000000,3073.000000,1188.000000,45937.000000
20021.000000,3091.000000,1185.000000,45932.000000
20105.000000,3095.000000,1218.000000,45964.000000
20161.000000,3168.000000,1286.000000,45982.000000
20218.000000,3229.000000,1396.000000,46044.000000
20287.000000,3251.000000,1498.000000,46130.000000
20399.000000,3355.000000,1611.000000,46175.000000
20529.000000,3485.000000,1700.000000,46244.000000
20636.000000,3567.000000,1871.000000,46321.000000
20766.000000,3706.000000,1997.000000,46379.000000
20885.000000,3784.000000,2138.000000,46462.000000
21021.000000,3855.000000,2280.000000,46525.000000
21149.000000,3956.000000,2411.000000,46626.000000
21247.000000,4016.000000,2534.000000,46716.000000
21389.000000,4180.000000,2656.000000,46758.000000
21458.000000,4223.000000,2793.000000,46827.000000
21561.000000,4322.000000,2906.000000,46882.000000
21608.000000,4315.000000,2932.000000,46887.000000
21674.000000,4368.000000,2947.000000,46940.000000
21684.000000,4398.000000,2999.000000,46940.000000
21676.000000,4363.000000,2992.000000,46918.000000
21677.000000,4355.000000,2938.000000,46907.000000
21596.000000,4315.000000,2879.000000,46906.000000
21523.000000,4295.000000,2848.000000,46846.000000
21526.000000,4256.000000,2794.000000,46834.000000
21467.000000,4202.000000,2718.000000,46809.000000
21416.000000,4178.000000,2689.000000,46777.000000
21396.000000,4116.000000,2611.000000,46709.000000
21292.000000,4065.000000,2583.000000,46701.000000
21245.000000,4029.000000,2491.000000,46659.000000
21241.000000,4004.000000,2489.000000,46635.000000
21179.000000,3990.000000,2404.000000,46622.000000
21099.000000,3883.000000,2300.000000,46578.000000
21080.000000,3884.000000,2317.000000,46534.000000
21026.000000,3795.000000,2214.000000,46491.000000
20958.000000,3781.000000,2184.000000,46472.000000
20911.000000,3766.000000,2141.000000,46484.000000
20906.000000,3711.000000,2071.000000,46416.000000
20854.000000,3679.000000,2013.000000,46363.000000
20799.000000,3634.000000,1977.000000,46400.000000
20750.000000,3587.000000,1907.000000,46353.000000
20662.000000,3555.000000,1876.000000,46336.000000
20634.000000,3555.000000,1826.000000,46283.000000
20544.000000,3493.000000,1767.000000,46238.000000
20508.000000,3433.000000,1704.000000,46209.000000
20500.000000,3398.000000,1655.000000,46198.000000
20425.000000,3396.000000,1596.000000,46183.000000
20389.000000,3330.000000,1551.000000,46148.000000
20350.000000,3314.000000,1535.000000,46108.000000
20328.000000,3262.000000,1474.000000,46107.000000
20292.000000,3243.000000,1395.000000,46091.000000
20266.000000,3251.000000,1404.000000,46058.000000
20207.000000,3223.000000,1348.000000,46051.000000
20178.000000,3143.000000,1284.000000,46020.000000
20139.000000,3139.000000,1226.000000,45958.000000
20082.000000,3071.000000,1192.000000,45939.000000
20045.000000,3010.000000,1139.000000,45913.000000
19988.000000,3024.000000,1111.000000,45894.000000
19985.000000,3015.000000,1129.000000,45912.000000
20079.000000,3090.000000,1202.000000,45937.000000
20111.000000,3130.000000,1314.000000,45995.000000
20213.000000,3206.000000,1384.000000,46061.000000
20389.000000,3309.000000,1606.000000,46160.000000
20419.000000,3360.000000,1614.000000,46219.000000
20462.000000,3398.000000,1668.000000,46223.000000
20632.000000,3532.000000,1847.000000,46320.000000
20760.000000,3638.000000,1967.000000,46392.000000
20895.000000,3748.000000,2154.000000,46473.000000
21119.000000,3896.000000,2370.000000,46583.000000
21284.000000,4014.000000,2542.000000,46708.000000
21397.000000,4133.000000,2677.000000,46763.000000
21474.000000,4202.000000,2771.000000,46848.000000
21569.000000,4245.000000,2834.000000,46863.000000
21600.000000,4257.000000,2893.000000,46902.000000
21573.000000,4302.000000,2899.000000,46900.000000
21570.000000,4301.000000,2846.000000,46887.000000
21520.000000,4291.000000,2813.000000,46864.000000
21488.000000,4222.000000,2768.000000,46798.000000
21429.000000,4146.000000,2723.000000,46790.000000
21384.000000,4135.000000,2635.000000,46755.000000
21337.000000,4091.000000,2607.000000,46761.000000
21318.000000,4076.000000,2563.000000,46667.000000
21277.000000,4014.000000,2502.000000,46690.000000
21239.000000,3974.000000,2483.000000,46647.000000
21193.000000,3983.000000,2411.000000,46624.000000
21146.000000,3952.000000,2360.000000,46571.000000
21110.000000,3868.000000,2319.000000,46583.000000
21071.000000,3861.000000,2298.000000,46580.000000
21028.000000,3842.000000,2267.000000,46531.000000
21000.000000,3827.000000,2202.000000,46470.000000
20943.000000,3778.000000,2142.000000,46480.000000
20922.000000,3744.000000,2074.000000,46451.000000
20848.000000,3645.000000,2047.000000,46415.000000
20811.000000,3625.000000,1976.000000,46354.000000
20734.000000,3595.000000,1957.000000,46369.000000
20727.000000,3553.000000,1880.000000,46337.000000
20668.000000,3512.000000,1832.000000,46304.000000
20632.000000,3474.000000,1797.000000,46240.000000
20566.000000,3445.000000,1719.000000,46265.000000
20533.000000,3430.000000,1698.000000,46242.000000
20479.000000,3405.000000,1621.000000,46219.000000
20420.000000,3357.000000,1571.000000,46163.000000
20404.000000,3351.000000,1578.000000,46151.000000
20415.000000,3326.000000,1526.000000,46147.000000
20379.000000,3282.000000,1481.000000,46109.000000
20317.000000,3257.000000,1446.000000,46094.000000
20276.000000,3243.000000,1417.000000,46079.000000
20224.000000,3218.000000,1385.000000,46049.000000
20216.000000,3210.000000,1300.000000,46029.000000
20161.000000,3170.000000,1304.000000,45980.000000
20113.000000,3158.000000,1259.000000,46021.000000
20129.000000,3119.000000,1235.000000,45977.000000
20164.000000,3185.000000,1322.000000,46003.000000
20224.000000,3205.000000,1371.000000,46044.000000
20244.000000,3230.000000,1415.000000,46077.000000
20316.000000,3272.000000,1479.000000,46154.000000
20428.000000,3374.000000,1575.000000,46159.000000
20516.000000,3425.000000,1717.000000,46236.000000
20591.000000,3544.000000,1848.000000,46290.000000
20741.000000,3606.000000,1926.000000,46384.000000
20820.000000,3672.000000,2056.000000,46437.000000
20933.000000,3779.000000,2171.000000,46508.000000
21038.000000,3859.000000,2291.000000,46555.000000
21182.000000,3960.000000,2428.000000,46638.000000
21250.000000,4032.000000,2526.000000,46695.000000
21365.000000,4090.000000,2631.000000,46793.000000
21420.000000,4192.000000,2739.000000,46802.000000
21503.000000,4218.000000,2820.000000,46844.000000
21553.000000,4273.000000,2865.000000,46891.000000
21591.000000,4314.000000,2869.000000,46879.000000
21555.000000,4257.000000,2836.000000,46871.000000
21541.000000,4252.000000,2813.000000,46833.000000
21486.000000,4220.000000,2773.000000,46831.000000
21456.000000,4191.000000,2736.000000,46804.000000
21439.000000,4153.000000,2718.000000,46797.000000
21371.000000,4143.000000,2651.000000,46762.000000
21377.000000,4148.000000,2609.000000,46739.000000
21327.000000,4085.000000,2568.000000,46710.000000
21297.000000,4029.000000,2537.000000,46689.000000
21292.000000,4041.000000,2495.000000,46689.000000
21222.000000,3996.000000,2485.000000,46650.000000
21190.000000,3952.000000,2451.000000,46664.000000
21145.000000,3959.000000,2433.000000,46651.000000
21136.000000,3944.000000,2353.000000,46602.000000
21063.000000,3899.000000,2323.000000,46551.000000
21036.000000,3869.000000,2248.000000,46542.000000
21019.000000,3816.000000,2220.000000,46537.000000
20953.000000,3798.000000,2174.000000,46488.000000
20969.000000,3775.000000,2150.000000,46469.000000
20901.000000,3724.000000,2092.000000,46434.000000
20863.000000,3712.000000,2040.000000,46432.000000
20807.000000,3679.000000,1992.000000,46401.000000
20774.000000,3662.000000,1969.000000,46399.000000
20787.000000,3608.000000,1948.000000,46361.000000
20703.000000,3545.000000,1882.000000,46327.000000
20691.000000,3565.000000,1874.000000,46310.000000
20606.000000,3507.000000,1818.000000,46294.000000
20572.000000,3508.000000,1774.000000,46257.000000
20543.000000,3455.000000,1713.000000,46231.000000
20517.000000,3401.000000,1635.000000,46212.000000
20456.000000,3361.000000,1616.000000,46174.000000
20428.000000,3360.000000,1576.000000,46141.000000
20378.000000,3331.000000,1505.000000,46101.000000
20311.000000,3282.000000,1455.000000,46069.000000
20273.000000,3252.000000,1395.000000,46084.000000
20286.000000,3262.000000,1404.000000,46096.000000
20237.000000,3202.000000,1342.000000,46036.000000
20199.000000,3160.000000,1338.000000,46051.000000
20224.000000,3176.000000,1329.000000,46045.000000
20228.000000,3255.000000,1380.000000,46065.000000
20271.000000,3233.000000,1427.000000,46095.000000
20314.000000,3288.000000,1506.000000,46136.000000
20394.000000,3368.000000,1608.000000,46156.000000
20516.000000,3413.000000,1683.000000,46215.000000
20599.000000,3503.000000,1787.000000,46310.000000
20705.000000,3587.000000,1941.000000,46364.000000
20712.000000,3574.000000,1946.000000,46371.000000
20841.000000,3689.000000,2042.000000,46430.000000
20922.000000,3738.000000,2188.000000,46488.000000
21057.000000,3847.000000,2261.000000,46554.000000
21094.000000,3875.000000,2365.000000,46645.000000
21225.000000,3997.000000,2484.000000,46675.000000
21327.000000,4088.000000,2628.000000,46753.000000
21422.000000,4137.000000,2688.000000,46793.000000
21493.000000,4215.000000,2765.000000,46859.000000
21535.000000,4264.000000,2827.000000,46883.000000
21553.000000,4251.000000,2849.000000,46886.000000
21553.000000,4230.000000,2814.000000,46846.000000
21501.000000,4233.000000,2724.000000,46801.000000
21461.000000,4202.000000,2728.000000,46808.000000
21459.000000,4178.000000,2691.000000,46784.000000
21424.000000,4158.000000,2672.000000,46744.000000
21389.000000,4125.000000,2597.000000,46755.000000
21342.000000,4098.000000,2561.000000,46725.000000
21281.000000,4052.000000,2490.000000,46691.000000
21247.000000,3958.000000,2471.000000,46667.000000
21232.000000,3970.000000,2408.000000,46631.000000
21155.000000,3924.000000,2374.000000,46603.000000
21104.000000,3881.000000,2270.000000,46592.000000
21043.000000,3843.000000,2270.000000,46543.000000
21014.000000,3849.000000,2216.000000,46487.000000
21017.000000,3778.000000,2178.000000,46482.000000
20936.000000,3749.000000,2090.000000,46446.000000
20903.000000,3692.000000,2051.000000,46459.000000
20864.000000,3657.000000,2013.000000,46408.000000
20784.000000,3646.000000,1959.000000,46399.000000
20797.000000,3614.000000,1924.000000,46378.000000
20738.000000,3574.000000,1870.000000,46339.000000
20693.000000,3517.000000,1841.000000,46338.000000
20619.000000,3525.000000,1767.000000,46258.000000
20578.000000,3484.000000,1709.000000,46252.000000
20590.000000,3432.000000,1721.000000,46265.000000
20560.000000,3427.000000,1662.000000,46230.000000
20483.000000,3413.000000,1621.000000,46189.000000
20472.000000,3347.000000,1576.000000,46160.000000
20409.000000,3312.000000,1515.000000,46134.000000
20402.000000,3285.000000,1483.000000,46139.000000
20308.000000,3242.000000,1446.000000,46130.000000
20294.000000,3238.000000,1411.000000,46046.000000
20272.000000,3226.000000,1372.000000,46049.000000
20220.000000,3192.000000,1322.000000,46035.000000
20247.000000,3203.000000,1302.000000,46026.000000
20186.000000,3155.000000,1318.000000,45994.000000
20183.000000,3177.000000,1311.000000,46010.000000
20200.000000,3194.000000,1329.000000,46052.000000
20273.000000,3212.000000,1384.000000,46074.000000
20372.000000,3289.000000,1468.000000,46117.000000
20428.000000,3331.000000,1556.000000,46170.000000
20525.000000,3400.000000,1683.000000,46235.000000
20624.000000,3474.000000,1780.000000,46264.000000
20754.000000,3603.000000,1906.000000,46362.000000
20883.000000,3633.000000,2031.000000,46452.000000
20937.000000,3774.000000,2172.000000,46490.000000
21061.000000,3854.000000,2299.000000,46573.000000
21168.000000,3924.000000,2408.000000,46626.000000
21275.000000,3984.000000,2511.000000,46716.000000
21397.000000,4097.000000,2644.000000,46775.000000
21523.000000,4181.000000,2748.000000,46847.000000
21556.000000,4238.000000,2823.000000,46885.000000
21706.000000,4318.000000,2918.000000,46902.000000
21694.000000,4340.000000,2989.000000,46939.000000
21753.000000,4386.000000,2955.000000,46959.000000
21710.000000,4350.000000,2971.000000,46933.000000
21653.000000,4358.000000,2933.000000,46899.000000
21661.000000,4289.000000,2840.000000,46869.000000
21609.000000,4225.000000,2815.000000,46851.000000
21538.000000,4240.000000,2766.000000,46829.000000
21499.000000,4176.000000,2729.000000,46819.000000
21478.000000,4178.000000,2664.000000,46774.000000
21410.000000,4133.000000,2609.000000,46734.000000
21374.000000,4113.000000,2559.000000,46722.000000
21331.000000,4066.000000,2557.000000,46701.000000
21295.000000,4001.000000,2475.000000,46675.000000
21271.000000,3973.000000,2431.000000,46675.000000
21192.000000,3947.000000,2366.000000,46644.000000
21167.000000,3886.000000,2313.000000,46579.000000
21121.000000,3823.000000,2273.000000,46555.000000
21085.000000,3811.000000,2239.000000,46514.000000
21021.000000,3770.000000,2177.000000,46516.000000
20963.000000,3718.000000,2101.000000,46470.000000
20931.000000,3693.000000,2052.000000,46387.000000
20901.000000,3649.000000,1994.000000,46423.000000
20772.000000,3589.000000,1890.000000,46307.000000
20737.000000,3543.000000,1858.000000,46333.000000
20748.000000,3553.000000,1833.000000,46305.000000
20718.000000,3524.000000,1848.000000,46309.000000
20688.000000,3466.000000,1766.000000,46257.000000
20577.000000,3438.000000,1720.000000,46278.000000
20559.000000,3420.000000,1695.000000,46249.000000
20519.000000,3378.000000,1631.000000,46196.000000
20484.000000,3335.000000,1582.000000,46180.000000
20467.000000,3335.000000,1547.000000,46164.000000
20394.000000,3304.000000,1534.000000,46115.000000
20375.000000,3269.000000,1441.000000,46112.000000
20353.000000,3255.000000,1417.000000,46082.000000
20316.000000,3238.000000,1368.000000,46051.000000
20277.000000,3199.000000,1334.000000,46036.000000
20254.000000,3191.000000,1338.000000,46023.000000
20330.000000,3216.000000,1411.000000,46087.000000
20404.000000,3302.000000,1545.000000,46162.000000
20450.000000,3343.000000,1553.000000,46162.000000
20545.000000,3408.000000,1654.000000,46217.000000
20611.000000,3478.000000,1758.000000,46287.000000
20745.000000,3585.000000,1944.000000,46387.000000
20865.000000,3645.000000,2038.000000,46457.000000
20981.000000,3750.000000,2155.000000,46492.000000
21159.000000,3871.000000,2337.000000,46625.000000
21221.000000,3940.000000,2421.000000,46657.000000
21371.000000,4052.000000,2599.000000,46754.000000
21483.000000,4149.000000,2698.000000,46787.000000
21587.000000,4199.000000,2800.000000,46861.000000
21699.000000,4342.000000,2930.000000,46909.000000
21731.000000,4345.000000,2971.000000,47003.000000
21792.000000,4398.000000,3034.000000,46984.000000
21776.000000,4409.000000,3051.000000,46985.000000
21717.000000,4333.000000,2908.000000,46950.000000
21683.000000,4348.000000,2933.000000,46926.000000
21695.000000,4295.000000,2868.000000,46896.000000
21662.000000,4273.000000,2829.000000,46883.000000
21565.000000,4211.000000,2727.000000,46825.000000
21562.000000,4168.000000,2712.000000,46761.000000
21505.000000,4192.000000,2691.000000,46786.000000
21452.000000,4136.000000,2644.000000,46727.000000
21416.000000,4065.000000,2562.000000,46733.000000
21367.000000,4000.000000,2533.000000,46713.000000
21328.000000,4007.000000,2442.000000,46665.000000
21298.000000,3946.000000,2427.000000,46614.000000
21275.000000,3970.000000,2397.000000,46607.000000
21218.000000,3941.000000,2389.000000,46611.000000
21172.000000,3872.000000,2331.000000,46569.000000
21148.000000,3875.000000,2256.000000,46562.000000
21092.000000,3831.000000,2214.000000,46496.000000
21076.000000,3753.000000,2146.000000,46482.000000
21017.000000,3772.000000,2104.000000,46468.000000
20973.000000,3689.000000,2070.000000,46411.000000
20942.000000,3682.000000,2016.000000,46438.000000
20871.000000,3652.000000,1972.000000,46387.000000
20835.000000,3614.000000,1937.000000,46375.000000
20824.000000,3573.000000,1849.000000,46329.000000
20772.000000,3526.000000,1818.000000,46312.000000
20768.000000,3495.000000,1773.000000,46288.000000
20665.000000,3467.000000,1782.000000,46279.000000
20642.000000,3431.000000,1687.000000,46222.000000
20604.000000,3435.000000,1656.000000,46224.000000
20520.000000,3389.000000,1620.000000,46188.000000
20510.000000,3352.000000,1556.000000,46167.000000
20500.000000,3365.000000,1557.000000,46168.000000
20463.000000,3299.000000,1515.000000,46167.000000
20435.000000,3284.000000,1484.000000,46117.000000
20375.000000,3267.000000,1438.000000,46118.000000
20375.000000,3262.000000,1453.000000,46089.000000
20398.000000,3224.000000,1483.000000,46131.000000
20405.000000,3268.000000,1463.000000,46103.000000
20479.000000,3321.000000,1559.000000,46170.000000
20553.000000,3359.000000,1641.000000,46210.000000
20790.000000,3569.000000,1890.000000,46319.000000
20832.000000,3549.000000,1887.000000,46366.000000
20815.000000,3604.000000,1951.000000,46411.000000
20981.000000,3726.000000,2097.000000,46482.000000
21056.000000,3771.000000,2212.000000,46525.000000
21194.000000,3866.000000,2310.000000,46577.000000
21263.000000,3978.000000,2447.000000,46648.000000
21381.000000,4010.000000,2516.000000,46696.000000
21489.000000,4080.000000,2646.000000,46792.000000
21569.000000,4169.000000,2731.000000,46816.000000
21640.000000,4260.000000,2837.000000,46896.000000
21709.000000,4333.000000,2876.000000,46911.000000
21727.000000,4348.000000,2960.000000,46947.000000
21789.000000,4320.000000,2922.000000,46921.000000
21742.000000,4310.000000,2900.000000,46921.000000
21689.000000,4277.000000,2873.000000,46908.000000
21665.000000,4294.000000,2822.000000,46858.000000
21659.000000,4239.000000,2768.000000,46849.000000
21578.000000,4223.000000,2715.000000,46821.000000
21545.000000,4178.000000,2647.000000,46749.000000
21511.000000,4132.000000,2636.000000,46736.000000
21429.000000,4091.000000,2576.000000,46756.000000
21430.000000,4076.000000,2559.000000,46720.000000
21375.000000,4015.000000,2511.000000,46681.000000
21328.000000,4019.000000,2427.000000,46644.000000
21334.000000,3977.000000,2414.000000,46646.000000
21239.000000,3945.000000,2339.000000,46627.000000
21253.000000,3939.000000,2303.000000,46591.000000
21211.000000,3913.000000,2315.000000,46557.000000
21188.000000,3834.000000,2199.000000,46532.000000
21149.000000,3852.000000,2198.000000,46518.000000
21107.000000,3803.000000,2151.000000,46499.000000
21045.000000,3766.000000,2130.000000,46463.000000
21034.000000,3758.000000,2084.000000,46442.000000
21010.000000,3689.000000,2032.000000,46419.000000
20993.000000,3656.000000,1956.000000,46397.000000
20914.000000,3648.000000,1971.000000,46375.000000
20872.000000,3604.000000,1893.000000,46355.000000
20862.000000,3585.000000,1875.000000,46301.000000
20847.000000,3554.000000,1826.000000,46321.000000
20781.000000,3527.000000,1760.000000,46306.000000
20715.000000,3484.000000,1733.000000,46260.000000
20667.000000,3444.000000,1645.000000,46226.000000
20681.000000,3425.000000,1640.000000,46179.000000
20598.000000,3362.000000,1592.000000,46149.000000
20551.000000,3309.000000,1503.000000,46143.000000
20508.000000,3304.000000,1501.000000,46129.000000
20455.000000,3278.000000,1449.000000,46088.000000
20447.000000,3262.000000,1390.000000,46066.000000
20367.000000,3242.000000,1325.000000,46053.000000
20394.000000,3200.000000,1326.000000,46025.000000
20341.000000,3196.000000,1274.000000,46030.000000
20352.000000,3210.000000,1350.000000,46039.000000
20406.000000,3264.000000,1381.000000,46088.000000
20483.000000,3282.000000,1443.000000,46109.000000
20517.000000,3318.000000,1525.000000,46197.000000
20622.000000,3393.000000,1625.000000,46220.000000
20715.000000,3441.000000,1710.000000,46277.000000
20829.000000,3532.000000,1863.000000,46311.000000
20956.000000,3626.000000,1973.000000,46395.000000
21083.000000,3754.000000,2111.000000,46470.000000
21133.000000,3794.000000,2177.000000,46538.000000
21268.000000,3871.000000,2331.000000,46580.000000
21296.000000,3922.000000,2356.000000,46621.000000
21400.000000,3990.000000,2479.000000,46715.000000
21491.000000,4082.000000,2596.000000,46769.000000
21592.000000,4177.000000,2714.000000,46782.000000
21685.000000,4269.000000,2779.000000,46869.000000
21768.000000,4314.000000,2886.000000,46923.000000
21826.000000,4355.000000,2941.000000,46916.000000
21870.000000,4394.000000,2952.000000,46943.000000
21824.000000,4372.000000,2959.000000,46918.000000
21807.000000,4361.000000,2920.000000,46914.000000
21805.000000,4357.000000,2888.000000,46908.000000
21793.000000,4342.000000,2857.000000,46880.000000
21762.000000,4299.000000,2808.000000,46852.000000
21725.000000,4267.000000,2771.000000,46839.000000
21646.000000,4236.000000,2721.000000,46801.000000
21622.000000,4181.000000,2678.000000,46791.000000
21614.000000,4152.000000,2633.000000,46775.000000
21574.000000,4168.000000,2611.000000,46751.000000
21482.000000,4095.000000,2550.000000,46705.000000
21481.000000,4072.000000,2518.000000,46700.000000
21434.000000,4061.000000,2480.000000,46703.000000
21406.000000,3995.000000,2427.000000,46672.000000
21359.000000,3998.000000,2355.000000,46608.000000
21357.000000,3968.000000,2352.000000,46561.000000
21305.000000,3926.000000,2271.000000,46579.000000
21285.000000,3912.000000,2258.000000,46534.000000
21231.000000,3857.000000,2204.000000,46512.000000
21180.000000,3851.000000,2142.000000,46478.000000
21132.000000,3790.000000,2117.000000,46511.000000
21086.000000,3740.000000,2083.000000,46450.000000
21045.000000,3743.000000,2013.000000,46422.000000
21028.000000,3684.000000,1948.000000,46368.000000
20942.000000,3616.000000,1893.000000,46373.000000
20927.000000,3616.000000,1850.000000,46332.000000
20867.000000,3532.000000,1822.000000,46265.000000
20799.000000,3512.000000,1741.000000,46255.000000
20762.000000,3469.000000,1678.000000,46251.000000
20710.000000,3471.000000,1628.000000,46202.000000
20694.000000,3416.000000,1603.000000,46199.000000
20640.000000,3378.000000,1547.000000,46148.000000
20599.000000,3361.000000,1507.000000,46151.000000
20560.000000,3298.000000,1474.000000,46126.000000
20530.000000,3308.000000,1420.000000,46068.000000
20470.000000,3238.000000,1339.000000,46038.000000
20460.000000,3198.000000,1331.000000,46018.000000
20395.000000,3215.000000,1313.000000,46006.000000
20365.000000,3169.000000,1241.000000,46032.000000
20386.000000,3182.000000,1233.000000,45982.000000
20344.000000,3162.000000,1220.000000,45977.000000
20351.000000,3176.000000,1245.000000,46019.000000
20390.000000,3207.000000,1303.000000,46023.000000
20457.000000,3256.000000,1337.000000,46077.000000
20523.000000,3309.000000,1463.000000,46120.000000
20611.000000,3360.000000,1543.000000,46164.000000
20746.000000,3454.000000,1649.000000,46244.000000
20823.000000,3541.000000,1805.000000,46286.000000
20953.000000,3649.000000,1906.000000,46380.000000
21042.000000,3713.000000,2047.000000,46448.000000
21121.000000,3841.000000,2160.000000,46545.000000
21253.000000,3898.000000,2282.000000,46600.000000
21348.000000,3980.000000,2410.000000,46668.000000
21473.000000,4060.000000,2531.000000,46706.000000
21580.000000,4129.000000,2649.000000,46768.000000
21659.000000,4218.000000,2722.000000,46838.000000
21725.000000,4279.000000,2796.000000,46837.000000
21803.000000,4331.000000,2857.000000,46873.000000
21780.000000,4305.000000,2826.000000,46880.000000
21787.000000,4314.000000,2856.000000,46869.000000
21750.000000,4283.000000,2810.000000,46833.000000
21718.000000,4233.000000,2742.000000,46796.000000
21651.000000,4217.000000,2710.000000,46827.000000
21659.000000,4189.000000,2681.000000,46785.000000
21597.000000,4183.000000,2639.000000,46781.000000
21562.000000,4128.000000,2564.000000,46720.000000
21513.000000,4100.000000,2522.000000,46714.000000
21474.000000,4071.000000,2477.000000,46678.000000
21509.000000,4061.000000,2467.000000,46644.000000
21444.000000,4026.000000,2400.000000,46653.000000
21358.000000,4002.000000,2401.000000,46648.000000
21358.000000,3946.000000,2334.000000,46622.000000
21284.000000,3907.000000,2322.000000,46580.000000
21276.000000,3898.000000,2254.000000,46550.000000
21243.000000,3890.000000,2215.000000,46534.000000
21196.000000,3858.000000,2207.000000,46527.000000
21166.000000,3813.000000,2127.000000,46508.000000
21105.000000,3779.000000,2088.000000,46440.000000
21087.000000,3754.000000,2016.000000,46417.000000
21014.000000,3705.000000,1960.000000,46389.000000
20979.000000,3641.000000,1903.000000,46349.000000
20929.000000,3598.000000,1858.000000,46346.000000
20939.000000,3586.000000,1859.000000,46343.000000
20899.000000,3540.000000,1806.000000,46282.000000
20813.000000,3513.000000,1759.000000,46257.000000
20773.000000,3502.000000,1695.000000,46228.000000
20717.000000,3446.000000,1653.000000,46231.000000
20687.000000,3433.000000,1600.000000,46207.000000
20613.000000,3381.000000,1571.000000,46186.000000
20612.000000,3351.000000,1536.000000,46178.000000
20537.000000,3347.000000,1488.000000,46119.000000
20519.000000,3286.000000,1445.000000,46129.000000
20500.000000,3269.000000,1365.000000,46071.000000
20471.000000,3266.000000,1375.000000,46030.000000
20481.000000,3215.000000,1312.000000,45997.000000
20388.000000,3207.000000,1283.000000,46018.000000
20354.000000,3192.000000,1255.000000,46004.000000
20358.000000,3208.000000,1263.000000,46014.000000
20376.000000,3198.000000,1286.000000,46022.000000
20411.000000,3223.000000,1329.000000,46031.000000
20451.000000,3269.000000,1391.000000,46097.000000
20486.000000,3317.000000,1492.000000,46115.000000
20608.000000,3359.000000,1554.000000,46162.000000
20731.000000,3433.000000,1675.000000,46226.000000
20822.000000,3543.000000,1812.000000,46293.000000
20923.000000,3639.000000,1935.000000,46371.000000
21040.000000,3750.000000,2058.000000,46441.000000
21132.000000,3839.000000,2190.000000,46523.000000
21301.000000,3891.000000,2288.000000,46566.000000
21372.000000,4020.000000,2421.000000,46645.000000
21472.000000,4092.000000,2503.000000,46724.000000
21545.000000,4164.000000,2617.000000,46753.000000
21607.000000,4268.000000,2761.000000,46858.000000
21799.000000,4309.000000,2856.000000,46871.000000
21818.000000,4378.000000,2937.000000,46929.000000
21881.000000,4422.000000,3000.000000,46970.000000
21894.000000,4402.000000,3000.000000,46962.000000
21896.000000,4443.000000,3008.000000,46959.000000
21865.000000,4421.000000,2966.000000,46918.000000
21786.000000,4358.000000,2903.000000,46895.000000
21816.000000,4345.000000,2882.000000,46872.000000
21802.000000,4345.000000,2859.000000,46879.000000
21722.000000,4284.000000,2796.000000,46857.000000
21702.000000,4249.000000,2798.000000,46832.000000
21706.000000,4252.000000,2774.000000,46813.000000
21664.000000,4272.000000,2731.000000,46818.000000
21617.000000,4211.000000,2669.000000,46778.000000
21615.000000,4198.000000,2693.000000,46756.000000
21593.000000,4174.000000,2627.000000,46743.000000
21541.000000,4138.000000,2561.000000,46717.000000
21488.000000,4118.000000,2548.000000,46670.000000
21457.000000,4109.000000,2485.000000,46705.000000
21443.000000,4049.000000,2438.000000,46667.000000
21414.000000,4021.000000,2435.000000,46660.000000
21377.000000,3969.000000,2379.000000,46622.000000
21270.000000,3985.000000,2360.000000,46590.000000
21282.000000,3942.000000,2275.000000,46551.000000
21269.000000,3910.000000,2236.000000,46533.000000
21123.000000,3860.000000,2159.000000,46483.000000
21153.000000,3823.000000,2154.000000,46477.000000
21145.000000,3817.000000,2136.000000,46442.000000
21122.000000,3789.000000,2089.000000,46451.000000
21078.000000,3766.000000,2057.000000,46379.000000
20998.000000,3704.000000,1987.000000,46410.000000
20982.000000,3697.000000,1930.000000,46378.000000
20938.000000,3625.000000,1882.000000,46315.000000
20877.000000,3635.000000,1857.000000,46296.000000
20843.000000,3598.000000,1792.000000,46264.000000
20801.000000,3535.000000,1742.000000,46271.000000
20776.000000,3468.000000,1713.000000,46208.000000
20713.000000,3469.000000,1665.000000,46203.000000
20671.000000,3427.000000,1609.000000,46186.000000
20625.000000,3417.000000,1566.000000,46161.000000
20623.000000,3382.000000,1535.000000,46154.000000
20594.000000,3343.000000,1507.000000,46109.000000
20520.000000,3317.000000,1451.000000,46119.000000
20491.000000,3292.000000,1455.000000,46052.000000
20447.000000,3299.000000,1390.000000,46073.000000
20459.000000,3319.000000,1394.000000,46077.000000
20483.000000,3276.000000,1375.000000,46088.000000
20480.000000,3326.000000,1455.000000,46090.000000
20561.000000,3356.000000,1524.000000,46132.000000
20606.000000,3392.000000,1599.000000,46200.000000
20730.000000,3486.000000,1673.000000,46233.000000
20820.000000,3550.000000,1761.000000,46267.000000
20895.000000,3631.000000,1870.000000,46336.000000
21016.000000,3707.000000,1987.000000,46394.000000
21083.000000,3812.000000,2106.000000,46476.000000
21199.000000,3856.000000,2237.000000,46546.000000
21301.000000,3960.000000,2345.000000,46622.000000
21387.000000,4047.000000,2476.000000,46686.000000
21527.000000,4100.000000,2600.000000,46735.000000
21554.000000,4198.000000,2698.000000,46793.000000
21720.000000,4242.000000,2786.000000,46818.000000
21763.000000,4323.000000,2843.000000,46880.000000
21795.000000,4365.000000,2890.000000,46883.000000
21792.000000,4351.000000,2906.000000,46868.000000
21752.000000,4337.000000,2864.000000,46864.000000
21707.000000,4318.000000,2821.000000,46823.000000
21691.000000,4279.000000,2786.000000,46820.000000
21660.000000,4243.000000,2735.000000,46815.000000
21600.000000,4226.000000,2715.000000,46806.000000
21594.000000,4205.000000,2666.000000,46777.000000
21564.000000,4183.000000,2615.000000,46738.000000
21485.000000,4127.000000,2574.000000,46724.000000
21491.000000,4125.000000,2529.000000,46670.000000
21463.000000,4053.000000,2474.000000,46654.000000
21375.000000,4040.000000,2410.000000,46626.000000
21338.000000,4001.000000,2367.000000,46625.000000
21313.000000,3969.000000,2347.000000,46550.000000
21251.000000,3932.000000,2284.000000,46549.000000
21227.000000,3899.000000,2211.000000,46524.000000
21135.000000,3850.000000,2165.000000,46498.000000
21156.000000,3822.000000,2131.000000,46466.000000
21078.000000,3771.000000,2065.000000,46436.000000
21025.000000,3731.000000,2040.000000,46440.000000
20989.000000,3711.000000,1996.000000,46389.000000
20958.000000,3663.000000,1949.000000,46349.000000
20928.000000,3654.000000,1867.000000,46336.000000
20892.000000,3609.000000,1854.000000,46286.000000
20822.000000,3566.000000,1818.000000,46293.000000
20790.000000,3553.000000,1754.000000,46252.000000
20771.000000,3520.000000,1756.000000,46250.000000
20710.000000,3461.000000,1691.000000,46199.000000
20644.000000,3429.000000,1600.000000,46184.000000
20587.000000,3376.000000,1549.000000,46156.000000
20530.000000,3357.000000,1498.000000,46091.000000
20470.000000,3299.000000,1461.000000,46071.000000
20442.000000,3262.000000,1398.000000,46064.000000
20391.000000,3242.000000,1319.000000,46012.000000
20367.000000,3205.000000,1260.000000,45965.000000
20372.000000,3232.000000,1305.000000,45968.000000
20385.000000,3228.000000,1292.000000,46004.000000
20356.000000,3233.000000,1311.000000,46003.000000
20453.000000,3268.000000,1391.000000,46051.000000
20486.000000,3358.000000,1462.000000,46128.000000
20594.000000,3416.000000,1590.000000,46194.000000
20809.000000,3568.000000,1791.000000,46282.000000
20850.000000,3604.000000,1844.000000,46320.000000
20850.000000,3640.000000,1864.000000,46341.000000
21001.000000,3714.000000,2021.000000,46420.000000
21088.000000,3813.000000,2173.000000,46507.000000
21198.000000,3915.000000,2299.000000,46577.000000
21303.000000,3969.000000,2417.000000,46628.000000
21412.000000,4095.000000,2542.000000,46708.000000
21576.000000,4165.000000,2657.000000,46782.000000
21647.000000,4252.000000,2804.000000,46835.000000
21772.000000,4376.000000,2936.000000,46940.000000
21866.000000,4464.000000,3027.000000,46964.000000
21940.000000,4502.000000,3124.000000,46989.000000
22010.000000,4539.000000,3155.000000,47029.000000
21988.000000,4565.000000,3155.000000,46996.000000
21950.000000,4509.000000,3103.000000,46991.000000
21893.000000,4466.000000,3044.000000,46962.000000
21882.000000,4486.000000,2987.000000,46947.000000
21848.000000,4432.000000,2980.000000,46917.000000
21843.000000,4409.000000,2927.000000,46910.000000
21787.000000,4393.000000,2881.000000,46869.000000
21736.000000,4329.000000,2848.000000,46862.000000
21702.000000,4328.000000,2802.000000,46851.000000
21668.000000,4296.000000,2763.000000,46814.000000
21626.000000,4267.000000,2727.000000,46800.000000
21597.000000,4228.000000,2696.000000,46801.000000
21577.000000,4196.000000,2660.000000,46741.000000
21541.000000,4149.000000,2591.000000,46711.000000
21480.000000,4148.000000,2528.000000,46699.000000
21469.000000,4113.000000,2509.000000,46685.000000
21435.000000,4063.000000,2403.000000,46634.000000
21379.000000,4017.000000,2367.000000,46612.000000
21260.000000,3994.000000,2311.000000,46551.000000
21237.000000,3911.000000,2257.000000,46522.000000
21203.000000,3886.000000,2187.000000,46495.000000
21105.000000,3807.000000,2129.000000,46450.000000
21036.000000,3768.000000,2042.000000,46421.000000
20999.000000,3734.000000,1984.000000,46385.000000
20929.000000,3680.000000,1937.000000,46368.000000
20905.000000,3669.000000,1888.000000,46331.000000
20831.000000,3617.000000,1854.000000,46305.000000
20825.000000,3557.000000,1792.000000,46296.000000
20753.000000,3533.000000,1732.000000,46248.000000
20715.000000,3481.000000,1627.000000,46210.000000
20697.000000,3475.000000,1639.000000,46207.000000
20656.000000,3421.000000,1595.000000,46187.000000
20604.000000,3386.000000,1558.000000,46140.000000
20573.000000,3386.000000,1526.000000,46143.000000
20536.000000,3347.000000,1485.000000,46123.000000
20530.000000,3326.000000,1425.000000,46128.000000
20460.000000,3310.000000,1393.000000,46073.000000
20397.000000,3279.000000,1357.000000,46031.000000
20415.000000,3265.000000,1331.000000,46011.000000
20342.000000,3240.000000,1332.000000,46031.000000
20367.000000,3256.000000,1362.000000,46039.000000
20438.000000,3284.000000,1376.000000,46068.000000
20458.000000,3299.000000,1437.000000,46079.000000
20528.000000,3369.000000,1499.000000,46129.000000
20633.000000,3425.000000,1611.000000,46197.000000
20695.000000,3512.000000,1696.000000,46244.000000
20828.000000,3575.000000,1868.000000,46300.000000
20960.000000,3705.000000,1966.000000,46366.000000
21066.000000,3757.000000,2076.000000,46462.000000
21209.500000,3995.000000,2373.000000,46622.000000
21353.000000,4037.000000,2439.000000,46637.000000
21373.000000,4068.000000,2480.000000,46686.000000
21503.000000,4169.000000,2620.000000,46731.000000
21596.000000,4221.000000,2736.000000,46822.000000
21685.000000,4303.000000,2843.000000,46873.000000
21769.000000,4354.000000,2948.000000,46946.000000
21854.000000,4448.000000,3021.000000,46987.000000
21863.000000,4462.000000,3068.000000,46956.000000
21891.000000,4452.000000,3030.000000,46975.000000
21828.000000,4435.000000,2991.000000,46944.000000
21786.000000,4396.000000,2956.000000,46903.000000
21782.000000,4380.000000,2874.000000,46909.000000
21719.000000,4386.000000,2838.000000,46848.000000
21709.000000,4307.000000,2830.000000,46828.000000
21648.000000,4285.000000,2774.000000,46840.000000
21631.000000,4243.000000,2696.000000,46831.000000
21589.000000,4220.000000,2684.000000,46800.000000
21537.000000,4199.000000,2655.000000,46766.000000
21514.000000,4160.000000,2593.000000,46716.000000
21488.000000,4121.000000,2557.000000,46698.000000
21418.000000,4093.000000,2483.000000,46667.000000
21398.000000,4081.000000,2440.000000,46639.000000
21332.000000,4007.000000,2404.000000,46603.000000
21269.000000,3950.000000,2310.000000,46585.000000
21276.000000,3969.000000,2307.000000,46550.000000
21216.000000,3906.000000,2246.000000,46569.000000
21167.000000,3837.000000,2199.000000,46488.000000
21121.000000,3867.000000,2142.000000,46466.000000
21095.000000,3822.000000,2103.000000,46443.000000
21000.000000,3781.000000,2040.000000,46421.000000
20957.000000,3758.000000,1972.000000,46349.000000
20957.000000,3685.000000,1932.000000,46364.000000
20901.000000,3685.000000,1924.000000,46334.000000
20882.000000,3664.000000,1880.000000,46342.000000
20861.000000,3603.000000,1833.000000,46312.000000
20777.000000,3605.000000,1793.000000,46290.000000
20794.000000,3552.000000,1766.000000,46237.000000
20708.000000,3496.000000,1722.000000,46210.000000
20638.000000,3502.000000,1671.000000,46217.000000
20619.000000,3438.000000,1613.000000,46203.000000
20580.000000,3405.000000,1561.000000,46150.000000
20533.000000,3384.000000,1550.000000,46147.000000
20511.000000,3365.000000,1530.000000,46108.000000
20467.000000,3356.000000,1431.000000,46101.000000
20490.000000,3318.000000,1445.000000,46113.000000
20448.000000,3306.000000,1398.000000,46070.000000
20428.000000,3314.000000,1407.000000,46073.000000
20427.000000,3283.000000,1425.000000,46064.000000
20442.000000,3318.000000,1404.000000,46100.000000
20500.000000,3351.000000,1505.000000,46143.000000
20526.000000,3325.000000,1534.000000,46139.000000
20563.000000,3400.000000,1587.000000,46165.000000
20656.000000,3510.000000,1697.000000,46230.000000
20768.000000,3550.000000,1810.000000,46300.000000
20793.000000,3597.000000,1850.000000,46292.000000
20894.000000,3644.000000,1924.000000,46380.000000
20981.000000,3769.000000,2032.000000,46396.000000
21077.000000,3809.000000,2152.000000,46510.000000
21181.000000,3906.000000,2266.000000,46553.000000
21254.000000,3997.000000,2389.000000,46624.000000
21398.000000,4086.000000,2534.000000,46728.000000
21503.000000,4177.000000,2650.000000,46753.000000
21609.000000,4244.000000,2738.000000,46841.000000
21697.000000,4325.000000,2860.000000,46880.000000
21776.000000,4387.000000,2937.000000,46909.000000
21780.000000,4405.000000,2952.000000,46930.000000
21755.000000,4405.000000,2946.000000,46907.000000
21742.000000,4373.000000,2882.000000,46907.000000
21719.000000,4360.000000,2821.000000,46874.000000
21672.000000,4301.000000,2847.000000,46852.000000
21659.000000,4306.000000,2817.000000,46833.000000
21617.000000,4251.000000,2746.000000,46802.000000
21590.000000,4224.000000,2719.000000,46784.000000
21541.000000,4196.000000,2674.000000,46754.000000
21484.000000,4183.000000,2634.000000,46738.000000
21477.000000,4166.000000,2579.000000,46716.000000
21433.000000,4120.000000,2517.000000,46682.000000
21387.000000,4108.000000,2490.000000,46679.000000
21337.000000,4053.000000,2402.000000,46625.000000
21277.000000,4024.000000,2406.000000,46604.000000
21261.000000,3959.000000,2347.000000,46574.000000
21197.000000,3943.000000,2297.000000,46559.000000
21170.000000,3952.000000,2268.000000,46497.000000
21113.000000,3849.000000,2167.000000,46497.000000
21041.000000,3806.000000,2102.000000,46450.000000
20995.000000,3768.000000,2040.000000,46429.000000
20961.000000,3754.000000,2003.000000,46418.000000
20915.000000,3692.000000,1943.000000,46372.000000
20819.000000,3608.000000,1848.000000,46300.000000
20823.000000,3600.000000,1856.000000,46274.000000
20751.000000,3553.000000,1775.000000,46266.000000
20716.000000,3550.000000,1765.000000,46255.000000
20714.000000,3522.000000,1742.000000,46253.000000
20691.000000,3521.000000,1699.000000,46226.000000
20630.000000,3483.000000,1620.000000,46205.000000
20602.000000,3443.000000,1593.000000,46137.000000
20540.000000,3424.000000,1569.000000,46126.000000
20527.000000,3365.000000,1495.000000,46133.000000
20439.000000,3322.000000,1473.000000,46100.000000
20439.000000,3317.000000,1452.000000,46080.000000
20363.000000,3254.000000,1374.000000,46043.000000
20351.000000,3242.000000,1333.000000,46039.000000
20373.000000,3232.000000,1314.000000,45979.000000
20333.000000,3258.000000,1304.000000,45997.000000
20326.000000,3267.000000,1373.000000,46057.000000
20379.000000,3298.000000,1397.000000,46059.000000
20469.000000,3332.000000,1469.000000,46098.000000
20530.000000,3401.000000,1554.000000,46149.000000
20600.000000,3459.000000,1661.000000,46210.000000
20720.000000,3546.000000,1803.000000,46296.000000
20829.000000,3648.000000,1891.000000,46365.000000
20914.000000,3725.000000,2015.000000,46422.000000
21063.000000,3809.000000,2174.000000,46462.000000
21126.000000,3937.000000,2298.000000,46561.000000
21249.000000,3994.000000,2390.000000,46638.000000
21380.000000,4049.000000,2551.000000,46721.000000
21452.000000,4157.000000,2652.000000,46753.000000
21562.000000,4234.000000,2745.000000,46817.000000
21654.000000,4321.000000,2855.000000,46877.000000
21734.000000,4355.000000,2921.000000,46913.000000
21748.000000,4412.000000,2978.000000,46955.000000
21773.000000,4399.000000,2966.000000,46907.000000
21777.000000,4386.000000,3008.000000,46937.000000
21764.000000,4415.000000,2957.000000,46929.000000
21729.000000,4386.000000,2892.000000,46885.000000
21707.000000,4340.000000,2841.000000,46876.000000
21628.000000,4319.000000,2828.000000,46854.000000
21636.000000,4296.000000,2815.000000,46830.000000
21642.000000,4313.000000,2777.000000,46805.000000
21571.000000,4235.000000,2695.000000,46785.000000
21525.000000,4224.000000,2679.000000,46755.000000
21465.000000,4173.000000,2609.000000,46733.000000
21455.000000,4136.000000,2605.000000,46724.000000
21397.000000,4121.000000,2545.000000,46706.000000
21357.000000,4070.000000,2471.000000,46674.000000
21297.000000,4054.000000,2428.000000,46644.000000
21294.000000,4019.000000,2395.000000,46588.000000
21231.000000,3984.000000,2322.000000,46571.000000
21166.000000,3930.000000,2290.000000,46530.000000
21137.000000,3875.000000,2209.000000,46478.000000
21063.000000,3847.000000,2138.000000,46473.000000
21022.000000,3816.000000,2129.000000,46471.000000
20986.000000,3771.000000,2058.000000,46420.000000
20921.000000,3734.000000,1990.000000,46371.000000
20888.000000,3690.000000,1962.000000,46344.000000
20824.000000,3639.000000,1894.000000,46319.000000
20777.000000,3586.000000,1852.000000,46292.000000
20689.000000,3541.000000,1779.000000,46261.000000
20684.000000,3531.000000,1778.000000,46251.000000
20641.000000,3497.000000,1688.000000,46199.000000
20645.000000,3433.000000,1604.000000,46144.000000
20572.000000,3409.000000,1613.000000,46136.000000
20553.000000,3417.000000,1572.000000,46133.000000
20480.000000,3329.000000,1542.000000,46134.000000
20431.000000,3318.000000,1491.000000,46104.000000
20384.000000,3306.000000,1430.000000,46036.000000
20344.000000,3261.000000,1351.000000,46043.000000
20308.000000,3255.000000,1291.000000,45988.000000
20231.000000,3196.000000,1267.000000,45982.000000
20250.000000,3183.000000,1273.000000,45978.000000
20238.000000,3216.000000,1269.000000,45959.000000
20274.000000,3234.000000,1314.000000,46029.000000
20328.000000,3271.000000,1349.000000,46035.000000
20370.000000,3329.000000,1464.000000,46065.000000
20447.000000,3373.000000,1523.000000,46124.000000
20558.000000,3425.000000,1645.000000,46188.000000
20602.000000,3531.000000,1759.000000,46253.000000
20755.000000,3610.000000,1855.000000,46300.000000
20849.000000,3666.000000,1968.000000,46379.000000
20876.000000,3733.000000,2034.000000,46396.000000
20986.000000,3817.000000,2149.000000,46492.000000
21105.000000,3896.000000,2318.000000,46593.000000
21221.000000,3986.000000,2405.000000,46621.000000
21360.000000,4094.000000,2540.000000,46695.000000
21489.000000,4190.000000,2680.000000,46754.000000
21536.000000,4220.000000,2737.000000,46788.000000
21603.000000,4295.000000,2773.000000,46844.000000
21641.000000,4306.000000,2840.000000,46876.000000
21662.000000,4335.000000,2863.000000,46870.000000
21622.000000,4333.000000,2868.000000,46846.000000
21590.000000,4326.000000,2792.000000,46855.000000
21538.000000,4265.000000,2733.000000,46802.000000
21523.000000,4207.000000,2674.000000,46784.000000
21486.000000,4205.000000,2656.000000,46748.000000
21434.000000,4150.000000,2602.000000,46713.000000
21405.000000,4125.000000,2572.000000,46710.000000
21350.000000,4078.000000,2533.000000,46715.000000
21312.000000,4062.000000,2466.000000,46680.000000
21293.000000,4031.000000,2424.000000,46652.000000
21203.000000,4022.000000,2383.000000,46598.000000
21204.000000,3961.000000,2322.000000,46557.000000
21123.000000,3925.000000,2277.000000,46532.000000
21134.000000,3890.000000,2203.000000,46540.000000
21061.000000,3839.000000,2178.000000,46496.000000
21069.000000,3792.000000,2162.000000,46471.000000
20960.000000,3764.000000,2079.000000,46432.000000
20896.000000,3765.000000,2052.000000,46435.000000
20764.000000,3646.000000,1880.000000,46341.000000
20762.000000,3632.000000,1866.000000,46328.000000
20742.000000,3601.000000,1864.000000,46311.000000
20630.000000,3490.000000,1707.000000,46239.000000
20603.000000,3507.000000,1707.000000,46204.000000
20591.000000,3474.000000,1694.000000,46211.000000
20542.000000,3444.000000,1630.000000,46177.000000
20464.000000,3396.000000,1531.000000,46137.000000
20398.000000,3330.000000,1459.000000,46102.000000
20368.000000,3293.000000,1402.000000,46058.000000
20331.000000,3278.000000,1381.000000,46026.000000
20263.000000,3241.000000,1328.000000,46039.000000
20232.000000,3217.000000,1306.000000,45970.000000
20188.000000,3187.000000,1222.000000,45956.000000
20147.000000,3133.000000,1189.000000,45928.000000
20096.000000,3072.000000,1149.000000,45915.000000
20103.000000,3080.000000,1118.000000,45904.000000
20089.000000,3099.000000,1124.000000,45910.000000
20111.000000,3089.000000,1171.000000,45922.000000
20153.000000,3167.000000,1229.000000,45950.000000
20236.000000,3235.000000,1282.000000,45981.000000
20245.000000,3269.000000,1384.000000,46044.000000
20374.000000,3345.000000,1493.000000,46090.000000
20457.000000,3417.000000,1589.000000,46189.000000
20644.000000,3546.000000,1790.000000,46254.000000
20748.000000,3621.000000,1908.000000,46357.000000
20850.000000,3721.000000,2047.000000,46421.000000
20995.000000,3797.000000,2186.000000,46482.000000
21130.000000,3921.000000,2323.000000,46606.000000
21241.000000,4026.000000,2459.000000,46661.000000
21308.000000,4106.000000,2607.000000,46701.000000
21413.000000,4208.000000,2753.000000,46793.000000
21507.000000,4277.000000,2840.000000,46851.000000
21622.000000,4356.000000,2946.000000,46901.000000
21696.000000,4410.000000,3009.000000,46922.000000
21656.000000,4401.000000,2975.000000,46906.000000
21644.000000,4383.000000,2929.000000,46907.000000
21623.000000,4359.000000,2955.000000,46901.000000
21596.000000,4326.000000,2863.000000,46865.000000
21547.000000,4314.000000,2815.000000,46837.000000
21520.000000,4309.000000,2808.000000,46790.000000
21509.000000,4260.000000,2756.000000,46823.000000
21428.000000,4232.000000,2710.000000,46770.000000
21415.000000,4210.000000,2679.000000,46737.000000
21421.000000,4160.000000,2613.000000,46737.000000
21349.000000,4155.000000,2594.000000,46713.000000
21265.000000,4100.000000,2498.000000,46647.000000
21267.000000,4032.000000,2481.000000,46685.000000
21248.000000,4063.000000,2472.000000,46658.000000
21213.000000,4058.000000,2464.000000,46631.000000
21178.000000,4032.000000,2406.000000,46600.000000
21095.000000,3960.000000,2357.000000,46548.000000
21110.000000,3965.000000,2310.000000,46516.000000
21045.000000,3897.000000,2245.000000,46487.000000
20969.000000,3870.000000,2190.000000,46461.000000
20901.000000,3809.000000,2179.000000,46475.000000
20894.000000,3810.000000,2129.000000,46418.000000
20841.000000,3786.000000,2082.000000,46415.000000
20806.000000,3739.000000,1987.000000,46386.000000
20790.000000,3700.000000,1967.000000,46342.000000
20727.000000,3641.000000,1921.000000,46321.000000
20677.000000,3592.000000,1874.000000,46297.000000
20635.000000,3601.000000,1814.000000,46284.000000
20592.000000,3549.000000,1794.000000,46234.000000
20582.000000,3505.000000,1738.000000,46196.000000
20528.000000,3459.000000,1700.000000,46201.000000
20480.000000,3469.000000,1666.000000,46171.000000
20444.000000,3428.000000,1600.000000,46147.000000
20371.000000,3367.000000,1554.000000,46110.000000
20367.000000,3373.000000,1509.000000,46099.000000
20304.000000,3303.000000,1441.000000,46066.000000
20266.000000,3264.000000,1370.000000,46031.000000
20222.000000,3290.000000,1365.000000,46040.000000
20222.000000,3253.000000,1348.000000,46006.000000
20162.000000,3207.000000,1323.000000,46013.000000
20211.000000,3238.000000,1325.000000,46006.000000
20243.000000,3286.000000,1386.000000,46040.000000
20251.000000,3266.000000,1414.000000,46078.000000
20249.000000,3314.000000,1428.000000,46048.000000
20306.000000,3372.000000,1540.000000,46130.000000
20372.000000,3434.000000,1606.000000,46187.000000
20497.000000,3487.000000,1722.000000,46223.000000
20577.000000,3558.000000,1813.000000,46273.000000
20705.000000,3636.000000,1969.000000,46354.000000
20806.000000,3766.000000,2062.000000,46441.000000
20887.000000,3823.000000,2169.000000,46492.000000
21032.000000,3914.000000,2296.000000,46564.000000
21126.000000,3992.000000,2448.000000,46636.000000
21237.000000,4067.000000,2595.000000,46719.000000
21358.000000,4200.000000,2665.000000,46788.000000
21457.000000,4263.000000,2795.000000,46838.000000
21553.000000,4313.000000,2915.000000,46909.000000
21571.000000,4374.000000,2943.000000,46902.000000
21582.000000,4357.000000,2988.000000,46911.000000
21558.000000,4367.000000,2896.000000,46889.000000
21558.000000,4354.000000,2920.000000,46892.000000
21497.000000,4295.000000,2865.000000,46854.000000
21452.000000,4255.000000,2783.000000,46833.000000
21443.000000,4244.000000,2760.000000,46807.000000
21364.000000,4231.000000,2726.000000,46780.000000
21342.000000,4201.000000,2694.000000,46767.000000
21308.000000,4162.000000,2627.000000,46674.000000
21236.000000,4130.000000,2587.000000,46700.000000
21222.000000,4066.000000,2506.000000,46658.000000
21151.000000,4049.000000,2493.000000,46659.000000
21147.000000,4058.000000,2456.000000,46624.000000
21105.000000,3978.000000,2437.000000,46625.000000
21073.000000,3961.000000,2364.000000,46616.000000
21007.000000,3959.000000,2338.000000,46537.000000
21018.000000,3887.000000,2307.000000,46522.000000
20974.000000,3881.000000,2240.000000,46496.000000
20859.000000,3806.000000,2183.000000,46463.000000
20866.000000,3817.000000,2167.000000,46500.000000
20855.000000,3825.000000,2138.000000,46443.000000
20830.000000,3764.000000,2104.000000,46406.000000
20803.000000,3743.000000,2077.000000,46420.000000
20747.000000,3721.000000,2004.000000,46374.000000
20735.000000,3701.000000,1992.000000,46378.000000
20684.000000,3637.000000,1916.000000,46347.000000
20624.000000,3608.000000,1869.000000,46300.000000
20537.000000,3553.000000,1801.000000,46265.000000
20495.000000,3529.000000,1774.000000,46242.000000
20490.000000,3491.000000,1707.000000,46208.000000
20437.000000,3461.000000,1659.000000,46196.000000
20366.000000,3408.000000,1625.000000,46185.000000
20344.000000,3392.000000,1571.000000,46132.000000
20312.000000,3341.000000,1542.000000,46112.000000
20256.000000,3311.000000,1509.000000,46075.000000
20237.000000,3298.000000,1440.000000,46070.000000
20193.000000,3244.000000,1368.000000,46034.000000
20143.000000,3258.000000,1322.000000,45989.000000
20109.000000,3238.000000,1327.000000,45971.000000
20124.000000,3240.000000,1315.000000,46001.000000
20124.000000,3223.000000,1321.000000,46013.000000
20162.000000,3240.000000,1418.000000,46043.000000
20217.000000,3297.000000,1444.000000,46073.000000
20315.000000,3370.000000,1547.000000,46125.000000
20384.000000,3439.000000,1656.000000,46153.000000
20477.000000,3513.000000,1784.000000,46263.000000
20602.000000,3593.000000,1891.000000,46313.000000
20728.000000,3704.000000,2040.000000,46437.000000
20857.000000,3802.000000,2203.000000,46482.000000
20966.000000,3897.000000,2330.000000,46571.000000
21088.000000,4036.000000,2500.000000,46662.000000
21221.000000,4110.000000,2638.000000,46749.000000
21314.000000,4215.000000,2784.000000,46857.000000
21458.000000,4318.000000,2957.000000,46910.000000
21557.000000,4406.000000,3035.000000,46946.000000
21649.000000,4477.000000,3149.000000,47008.000000
21687.000000,4529.000000,3164.000000,47005.000000
21712.000000,4492.000000,3157.000000,47042.000000
21646.000000,4522.000000,3155.000000,47013.000000
21645.000000,4480.000000,3115.000000,46982.000000
21648.000000,4453.000000,3064.000000,46971.000000
21584.000000,4431.000000,3088.000000,46953.000000
21567.000000,4436.000000,3004.000000,46925.000000
21501.000000,4368.000000,2963.000000,46882.000000
21445.000000,4359.000000,2907.000000,46914.000000
21412.000000,4332.000000,2846.000000,46868.000000
21384.000000,4266.000000,2784.000000,46807.000000
21318.000000,4229.000000,2732.000000,46786.000000
21274.000000,4162.000000,2705.000000,46746.000000
21201.000000,4145.000000,2640.000000,46735.000000
21196.000000,4111.000000,2574.000000,46686.000000
21112.000000,4032.000000,2497.000000,46664.000000
21061.000000,4024.000000,2469.000000,46627.000000
21002.000000,3983.000000,2400.000000,46589.000000
20991.000000,3916.000000,2395.000000,46608.000000
20934.000000,3922.000000,2284.000000,46529.000000
20885.000000,3872.000000,2235.000000,46490.000000
20815.000000,3804.000000,2184.000000,46455.000000
20756.000000,3741.000000,2122.000000,46460.000000
20694.000000,3743.000000,2038.000000,46425.000000
20638.000000,3681.000000,1961.000000,46366.000000
20585.000000,3624.000000,1914.000000,46327.000000
20534.000000,3598.000000,1865.000000,46315.000000
20464.000000,3498.000000,1789.000000,46253.000000
20429.000000,3516.000000,1739.000000,46230.000000
20390.000000,3471.000000,1665.000000,46201.000000
20318.000000,3419.000000,1617.000000,46167.000000
20290.000000,3337.000000,1584.000000,46160.000000
20197.000000,3359.000000,1525.000000,46116.000000
20162.000000,3276.000000,1459.000000,46080.000000
20113.000000,3227.000000,1413.000000,46047.000000
20064.000000,3227.000000,1325.000000,45999.000000
20065.000000,3150.000000,1276.000000,45982.000000
20065.000000,3225.000000,1371.000000,46035.000000
20060.000000,3235.000000,1383.000000,46031.000000
20103.000000,3221.000000,1424.000000,46042.000000
20203.000000,3337.000000,1515.000000,46138.000000
20278.000000,3398.000000,1639.000000,46174.000000
20403.000000,3492.000000,1778.000000,46271.000000
20515.000000,3588.000000,1886.000000,46327.000000
20679.000000,3716.000000,2106.000000,46453.000000
20867.000000,3857.000000,2291.000000,46548.000000
20951.000000,3945.000000,2435.000000,46634.000000
21100.000000,4069.000000,2574.000000,46739.000000
21248.000000,4154.000000,2732.000000,46794.000000
21345.000000,4248.000000,2860.000000,46856.000000
21470.000000,4332.000000,3043.000000,46915.000000
21578.000000,4408.000000,3146.000000,47004.000000
21652.000000,4503.000000,3202.000000,47042.000000
21647.000000,4561.000000,3231.000000,47036.000000
21644.000000,4569.000000,3233.000000,47068.000000
21662.000000,4515.000000,3190.000000,47023.000000
21641.000000,4497.000000,3170.000000,47005.000000
21589.000000,4485.000000,3095.000000,46987.000000
21547.000000,4426.000000,3082.000000,46997.000000
21528.000000,4404.000000,3038.000000,46957.000000
21499.000000,4410.000000,3032.000000,46906.000000
21462.000000,4358.000000,2948.000000,46894.000000
21416.000000,4305.000000,2903.000000,46876.000000
21391.000000,4318.000000,2896.000000,46858.000000
21370.000000,4281.000000,2870.000000,46839.000000
21347.000000,4269.000000,2841.000000,46839.000000
21292.000000,4220.000000,2764.000000,46776.000000
21290.000000,4244.000000,2738.000000,46815.000000
21252.000000,4205.000000,2749.000000,46751.000000
21217.000000,4183.000000,2750.000000,46775.000000
21187.000000,4167.000000,2702.000000,46758.000000
21171.000000,4152.000000,2682.000000,46760.000000
21163.000000,4166.000000,2654.000000,46738.000000
21153.000000,4142.000000,2653.000000,46724.000000
21100.000000,4140.000000,2609.000000,46732.000000
21104.000000,4105.000000,2574.000000,46695.000000
21041.000000,4113.000000,2550.000000,46665.000000
21042.000000,4054.000000,2479.000000,46637.000000
20950.000000,4014.000000,2441.000000,46611.000000
20940.000000,3999.000000,2407.000000,46609.000000
20912.000000,3997.000000,2392.000000,46572.000000
20862.000000,3932.000000,2336.000000,46559.000000
20857.000000,3934.000000,2289.000000,46526.000000
20812.000000,3894.000000,2268.000000,46523.000000
20794.000000,3856.000000,2248.000000,46504.000000
20786.000000,3836.000000,2181.000000,46486.000000
20652.000000,3814.000000,2197.000000,46457.000000
20662.000000,3782.000000,2119.000000,46412.000000
20637.000000,3730.000000,2047.000000,46405.000000
20533.000000,3720.000000,1992.000000,46370.000000
20497.000000,3649.000000,1951.000000,46351.000000
20417.000000,3612.000000,1900.000000,46317.000000
20421.000000,3575.000000,1872.000000,46315.000000
20413.000000,3566.000000,1856.000000,46288.000000
20396.000000,3573.000000,1851.000000,46308.000000
20441.000000,3618.000000,1929.000000,46339.000000
20517.000000,3664.000000,1997.000000,46368.000000
20595.000000,3712.000000,2082.000000,46414.000000
20674.000000,3821.000000,2186.000000,46507.000000
20730.000000,3879.000000,2288.000000,46539.000000
20839.000000,3973.000000,2413.000000,46623.000000
20954.000000,4027.000000,2484.000000,46660.000000
21036.000000,4115.000000,2678.000000,46760.000000
21183.000000,4233.000000,2767.000000,46802.000000
21273.000000,4301.000000,2861.000000,46877.000000
21381.000000,4363.000000,2996.000000,46982.000000
21468.000000,4442.000000,3131.000000,47047.000000
21590.000000,4512.000000,3227.000000,47066.000000
21666.000000,4584.000000,3306.000000,47134.000000
21728.000000,4648.000000,3412.000000,47140.000000
21800.000000,4678.000000,3466.000000,47208.000000
21795.000000,4696.000000,3423.000000,47158.000000
21782.000000,4658.000000,3380.000000,47150.000000
21751.000000,4658.000000,3373.000000,47121.000000
21652.000000,4529.000000,3246.000000,47083.000000
21620.000000,4570.000000,3195.000000,47056.000000
21605.000000,4530.000000,3211.000000,47062.000000
21551.000000,4481.000000,3115.000000,47005.000000
21510.000000,4425.000000,3073.000000,46984.000000
21486.000000,4416.000000,3027.000000,46972.000000
21406.000000,4367.000000,2968.000000,46901.000000
21363.000000,4293.000000,2907.000000,46898.000000
21287.000000,4272.000000,2814.000000,46880.000000
21254.000000,4223.000000,2754.000000,46834.000000
21184.000000,4178.000000,2719.000000,46810.000000
21137.000000,4143.000000,2641.000000,46762.000000
21086.000000,4082.000000,2617.000000,46726.000000
21015.000000,4037.000000,2525.000000,46684.000000
20939.000000,3982.000000,2455.000000,46636.000000
20915.000000,3935.000000,2385.000000,46654.000000
20858.000000,3889.000000,2367.000000,46591.000000
20823.000000,3872.000000,2265.000000,46558.000000
20767.000000,3825.000000,2269.000000,46535.000000
20721.000000,3784.000000,2178.000000,46480.000000
20689.000000,3754.000000,2135.000000,46445.000000
20633.000000,3678.000000,2065.000000,46417.000000
20577.000000,3641.000000,2015.000000,46422.000000
20508.000000,3611.000000,1942.000000,46394.000000
20465.000000,3588.000000,1920.000000,46365.000000
20416.000000,3556.000000,1874.000000,46329.000000
20359.000000,3523.000000,1824.000000,46325.000000
20343.000000,3468.000000,1789.000000,46285.000000
20311.000000,3451.000000,1753.000000,46240.000000
20288.000000,3450.000000,1730.000000,46226.000000
20247.000000,3417.000000,1714.000000,46224.000000
20246.000000,3395.000000,1664.000000,46198.000000
20180.000000,3396.000000,1643.000000,46205.000000
20162.000000,3350.000000,1634.000000,46180.000000
20159.000000,3346.000000,1585.000000,46171.000000
20090.000000,3308.000000,1528.000000,46172.000000
20107.000000,3282.000000,1559.000000,46175.000000
20151.000000,3338.000000,1570.000000,46132.000000
20128.000000,3369.000000,1647.000000,46152.000000
20208.000000,3413.000000,1690.000000,46258.000000
20247.000000,3466.000000,1781.000000,46274.000000
20372.000000,3534.000000,1917.000000,46331.000000
20437.000000,3612.000000,2012.000000,46402.000000
20556.000000,3716.000000,2114.000000,46469.000000
20669.000000,3773.000000,2247.000000,46554.000000
20812.000000,3892.000000,2374.000000,46617.000000
20914.000000,3978.000000,2496.000000,46658.000000
21012.000000,4052.000000,2648.000000,46749.000000
21124.000000,4168.000000,2759.000000,46832.000000
21176.000000,4205.000000,2798.000000,46878.000000
21265.000000,4268.000000,2952.000000,46917.000000
21486.000000,4443.000000,3157.000000,47058.000000
21503.000000,4468.000000,3210.000000,47087.000000
21543.000000,4510.000000,3199.000000,47077.000000
21580.000000,4526.000000,3250.000000,47102.000000
21611.000000,4531.000000,3286.000000,47087.000000
21568.000000,4517.000000,3250.000000,47084.000000
21558.000000,4501.000000,3239.000000,47061.000000
21498.000000,4503.000000,3166.000000,47029.000000
21468.000000,4430.000000,3155.000000,47000.000000
21419.000000,4425.000000,3073.000000,46966.000000
21439.000000,4362.000000,3014.000000,46957.000000
21348.000000,4330.000000,2986.000000,46942.000000
21315.000000,4341.000000,2952.000000,46937.000000
21291.000000,4325.000000,2906.000000,46902.000000
21297.000000,4279.000000,2899.000000,46881.000000
21277.000000,4261.000000,2844.000000,46837.000000
21185.000000,4227.000000,2810.000000,46856.000000
21124.000000,4202.000000,2760.000000,46782.000000
21123.000000,4136.000000,2681.000000,46777.000000
21072.000000,4080.000000,2656.000000,46745.000000
20993.000000,4082.000000,2605.000000,46709.000000
20970.000000,4048.000000,2533.000000,46680.000000
20950.000000,3990.000000,2491.000000,46670.000000
20886.000000,3982.000000,2441.000000,46632.000000
20813.000000,3934.000000,2382.000000,46611.000000
20807.000000,3867.000000,2341.000000,46580.000000
20667.000000,3787.000000,2219.000000,46512.000000
20646.000000,3781.000000,2209.000000,46496.000000
20655.000000,3763.000000,2164.000000,46482.000000
20584.000000,3721.000000,2093.000000,46422.000000
20555.000000,3661.000000,2047.000000,46407.000000
20488.000000,3622.000000,2003.000000,46416.000000
20434.000000,3598.000000,1959.000000,46369.000000
20435.000000,3563.000000,1920.000000,46348.000000
20391.000000,3525.000000,1890.000000,46341.000000
20343.000000,3507.000000,1840.000000,46344.000000
20285.000000,3496.000000,1825.000000,46301.000000
20276.000000,3449.000000,1776.000000,46241.000000
20250.000000,3438.000000,1760.000000,46257.000000
20203.000000,3439.000000,1754.000000,46245.000000
20203.000000,3417.000000,1739.000000,46244.000000
20240.000000,3460.000000,1739.000000,46245.000000
20238.000000,3473.000000,1812.000000,46268.000000
20316.000000,3502.000000,1899.000000,46309.000000
20394.000000,3567.000000,1945.000000,46356.000000
20483.000000,3628.000000,2064.000000,46445.000000
20576.000000,3732.000000,2188.000000,46488.000000
20661.000000,3822.000000,2276.000000,46553.000000
20822.000000,3923.000000,2442.000000,46637.000000
20942.000000,4013.000000,2563.000000,46698.000000
21056.000000,4103.000000,2669.000000,46787.000000
21170.000000,4188.000000,2845.000000,46875.000000
21314.000000,4315.000000,3001.000000,46969.000000
21408.000000,4422.000000,3131.000000,47026.000000
21529.000000,4465.000000,3220.000000,47093.000000
21644.000000,4574.000000,3353.000000,47171.000000
21754.000000,4653.000000,3445.000000,47204.000000
21779.000000,4719.000000,3521.000000,47250.000000
21844.000000,4789.000000,3595.000000,47284.000000
21911.000000,4809.000000,3596.000000,47264.000000
21866.000000,4790.000000,3553.000000,47248.000000
21791.000000,4757.000000,3546.000000,47236.000000
21768.000000,4704.000000,3512.000000,47202.000000
21748.000000,4694.000000,3461.000000,47153.000000
21683.000000,4660.000000,3415.000000,47189.000000
21700.000000,4657.000000,3342.000000,47130.000000
21614.000000,4596.000000,3262.000000,47105.000000
21572.000000,4554.000000,3275.000000,47074.000000
21525.000000,4493.000000,3207.000000,47053.000000
21493.000000,4475.000000,3139.000000,47024.000000
21448.000000,4466.000000,3126.000000,46993.000000
21403.000000,4397.000000,3059.000000,46950.000000
21354.000000,4371.000000,2990.000000,46939.000000
21281.000000,4315.000000,2949.000000,46880.000000
21250.000000,4273.000000,2857.000000,46864.000000
21186.000000,4227.000000,2820.000000,46841.000000
21151.000000,4173.000000,2733.000000,46814.000000
21058.000000,4138.000000,2653.000000,46767.000000
21014.000000,4082.000000,2604.000000,46718.000000
20934.000000,3995.000000,2524.000000,46693.000000
20857.000000,3968.000000,2458.000000,46657.000000
20848.000000,3933.000000,2397.000000,46603.000000
20763.000000,3861.000000,2301.000000,46568.000000
20747.000000,3784.000000,2252.000000,46554.000000
20610.000000,3755.000000,2167.000000,46505.000000
20604.000000,3715.000000,2112.000000,46449.000000
20499.000000,3664.000000,2043.000000,46440.000000
20462.000000,3593.000000,1991.000000,46407.000000
20377.000000,3568.000000,1946.000000,46365.000000
20318.000000,3529.000000,1864.000000,46324.000000
20319.000000,3501.000000,1819.000000,46306.000000
20191.000000,3416.000000,1742.000000,46245.000000
20177.000000,3401.000000,1718.000000,46245.000000
20175.000000,3396.000000,1703.000000,46211.000000
20165.000000,3352.000000,1630.000000,46200.000000
20096.000000,3298.000000,1628.000000,46206.000000
20122.000000,3315.000000,1615.000000,46175.000000
20117.000000,3340.000000,1643.000000,46210.000000
20185.000000,3403.000000,1707.000000,46281.000000
20262.000000,3465.000000,1815.000000,46311.000000
20356.000000,3552.000000,1923.000000,46369.000000
20473.000000,3608.000000,2022.000000,46394.000000
20538.000000,3691.000000,2155.000000,46489.000000
20689.000000,3795.000000,2259.000000,46568.000000
20810.000000,3890.000000,2419.000000,46644.000000
20975.000000,4020.000000,2583.000000,46699.000000
21089.000000,4121.000000,2711.000000,46808.000000
21191.000000,4229.000000,2862.000000,46901.000000
21309.000000,4349.000000,3045.000000,46986.000000
21428.000000,4399.000000,3137.000000,47066.000000
21566.000000,4514.000000,3249.000000,47100.000000
21672.000000,4606.000000,3415.000000,47202.000000
21758.000000,4680.000000,3489.000000,47211.000000
21833.000000,4764.000000,3577.000000,47265.000000
21826.000000,4764.000000,3605.000000,47241.000000
21829.000000,4759.000000,3607.000000,47279.000000
21815.000000,4765.000000,3576.000000,47265.000000
21820.000000,4751.000000,3517.000000,47244.000000
21735.000000,4694.000000,3445.000000,47197.000000
21682.000000,4659.000000,3420.000000,47166.000000
21651.000000,4628.000000,3390.000000,47158.000000
21600.000000,4622.000000,3338.000000,47128.000000
21600.000000,4567.000000,3267.000000,47092.000000
21568.000000,4517.000000,3231.000000,47068.000000
21529.000000,4487.000000,3179.000000,47055.000000
21485.000000,4458.000000,3149.000000,47034.000000
21438.000000,4418.000000,3123.000000,47012.000000
21393.000000,4401.000000,3091.000000,46979.000000
21378.000000,4371.000000,3011.000000,46940.000000
21274.000000,4329.000000,2957.000000,46916.000000
21279.000000,4293.000000,2948.000000,46964.000000
21244.000000,4281.000000,2925.000000,46912.000000
21197.000000,4238.000000,2870.000000,46883.000000
21182.000000,4211.000000,2809.000000,46806.000000
21138.000000,4172.000000,2752.000000,46797.000000
21083.000000,4134.000000,2672.000000,46774.000000
21042.000000,4083.000000,2639.000000,46742.000000
20981.000000,4076.000000,2613.000000,46731.000000
20928.000000,4029.000000,2533.000000,46698.000000
20941.000000,4024.000000,2508.000000,46683.000000
20875.000000,3978.000000,2437.000000,46643.000000
20877.000000,3916.000000,2398.000000,46618.000000
20790.000000,3892.000000,2411.000000,46611.000000
20759.000000,3901.000000,2321.000000,46586.000000
20708.000000,3831.000000,2260.000000,46542.000000
20647.000000,3795.000000,2226.000000,46527.000000
20614.000000,3757.000000,2154.000000,46507.000000
20578.000000,3722.000000,2152.000000,46453.000000
20556.000000,3709.000000,2094.000000,46447.000000
20467.000000,3661.000000,2086.000000,46463.000000
20458.000000,3661.000000,2046.000000,46438.000000
20409.000000,3616.000000,2011.000000,46409.000000
20410.000000,3609.000000,1977.000000,46384.000000
20410.000000,3601.000000,1974.000000,46395.000000
20406.000000,3578.000000,1987.000000,46398.000000
20467.000000,3655.000000,2019.000000,46422.000000
20469.000000,3649.000000,2063.000000,46453.000000
20560.000000,3737.000000,2181.000000,46477.000000
20650.000000,3763.000000,2267.000000,46569.000000
20737.000000,3856.000000,2363.000000,46610.000000
20841.000000,3960.000000,2519.000000,46703.000000
20944.000000,4057.000000,2643.000000,46757.000000
21065.000000,4149.000000,2761.000000,46832.000000
21191.000000,4212.000000,2883.000000,46882.000000
21298.000000,4324.000000,3036.000000,46972.000000
21395.000000,4431.000000,3167.000000,47082.000000
21531.000000,4508.000000,3277.000000,47153.000000
21609.000000,4594.000000,3420.000000,47221.000000
21735.000000,4710.000000,3546.000000,47245.000000
21847.000000,4814.000000,3618.000000,47300.000000
21938.000000,4866.000000,3771.000000,47406.000000
21994.000000,4892.000000,3804.000000,47418.000000
22050.000000,4971.000000,3838.000000,47436.000000
22071.000000,4975.000000,3870.000000,47413.000000
22033.000000,4961.000000,3830.000000,47393.000000
21974.000000,4923.000000,3791.000000,47389.000000
21951.000000,4890.000000,3735.000000,47370.000000
21909.000000,4849.000000,3666.000000,47335.000000
21858.000000,4847.000000,3644.000000,47284.000000
21836.000000,4793.000000,3586.000000,47230.000000
21796.000000,4743.000000,3555.000000,47248.000000
21788.000000,4727.000000,3491.000000,47195.000000
21713.000000,4690.000000,3456.000000,47201.000000
21631.000000,4650.000000,3413.000000,47166.000000
21631.000000,4601.000000,3370.000000,47108.000000
21596.000000,4568.000000,3333.000000,47117.000000
21533.000000,4526.000000,3302.000000,47113.000000
21529.000000,4525.000000,3247.000000,47047.000000
21476.000000,4518.000000,3211.000000,47065.000000
21453.000000,4425.000000,3104.000000,47000.000000
21370.000000,4390.000000,3058.000000,46968.000000
21320.000000,4368.000000,2996.000000,46942.000000
21279.000000,4344.000000,2955.000000,46963.000000
21230.000000,4309.000000,2937.000000,46896.000000
21250.000000,4256.000000,2891.000000,46892.000000
21156.000000,4246.000000,2844.000000,46852.000000
21142.000000,4186.000000,2765.000000,46823.000000
21087.000000,4167.000000,2709.000000,46799.000000
21035.000000,4062.000000,2649.000000,46764.000000
20982.000000,4094.000000,2617.000000,46736.000000
20937.000000,4023.000000,2534.000000,46698.000000
20885.000000,3988.000000,2499.000000,46680.000000
20841.000000,3947.000000,2432.000000,46619.000000
20757.000000,3880.000000,2374.000000,46602.000000
20741.000000,3896.000000,2391.000000,46605.000000
20694.000000,3822.000000,2271.000000,46559.000000
20624.000000,3795.000000,2230.000000,46541.000000
20625.000000,3756.000000,2213.000000,46486.000000
20569.000000,3759.000000,2182.000000,46523.000000
20583.000000,3719.000000,2169.000000,46525.000000
20509.000000,3711.000000,2121.000000,46474.000000
20520.000000,3695.000000,2104.000000,46465.000000
20541.000000,3718.000000,2153.000000,46464.000000
20570.000000,3738.000000,2161.000000,46499.000000
20627.000000,3785.000000,2244.000000,46526.000000
20686.000000,3811.000000,2301.000000,46544.000000
20746.000000,3895.000000,2386.000000,46624.000000
20842.000000,3976.000000,2482.000000,46690.000000
20974.000000,3996.000000,2611.000000,46727.000000
21039.000000,4109.000000,2700.000000,46802.000000
21133.000000,4193.000000,2774.000000,46820.000000
21232.000000,4254.000000,2928.000000,46942.000000
21371.000000,4386.000000,3082.000000,47008.000000
21394.000000,4409.000000,3119.000000,46998.000000
21569.000000,4532.000000,3312.000000,47141.000000
21706.000000,4639.000000,3465.000000,47213.000000
21785.000000,4740.000000,3557.000000,47265.000000
21872.000000,4776.000000,3640.000000,47334.000000
21877.000000,4814.000000,3625.000000,47307.000000
21859.000000,4801.000000,3576.000000,47268.000000
21789.000000,4760.000000,3531.000000,47256.000000
21788.000000,4711.000000,3503.000000,47193.000000
21714.000000,4665.000000,3446.000000,47172.000000
21667.000000,4616.000000,3378.000000,47155.000000
21614.000000,4595.000000,3341.000000,47139.000000
21576.000000,4579.000000,3303.000000,47108.000000
21558.000000,4501.000000,3234.000000,47054.000000
21472.000000,4479.000000,3194.000000,47029.000000
21441.000000,4462.000000,3149.000000,47019.000000
21425.000000,4406.000000,3130.000000,47015.000000
21361.000000,4389.000000,3046.000000,46971.000000
21352.000000,4362.000000,3015.000000,46978.000000
21265.000000,4309.000000,2974.000000,46914.000000
21240.000000,4284.000000,2888.000000,46891.000000
21175.000000,4237.000000,2823.000000,46814.000000
21154.000000,4212.000000,2805.000000,46824.000000
21102.000000,4156.000000,2734.000000,46800.000000
21050.000000,4139.000000,2689.000000,46794.000000
21026.000000,4103.000000,2645.000000,46764.000000
20974.000000,4065.000000,2580.000000,46712.000000
20942.000000,4000.000000,2496.000000,46664.000000
20871.000000,3979.000000,2455.000000,46635.000000
20803.000000,3934.000000,2361.000000,46611.000000
20742.000000,3835.000000,2329.000000,46569.000000
20699.000000,3835.000000,2306.000000,46567.000000
20660.000000,3792.000000,2233.000000,46534.000000
20617.000000,3703.000000,2189.000000,46501.000000
20574.000000,3677.000000,2152.000000,46485.000000
20544.000000,3677.000000,2092.000000,46451.000000
20505.000000,3641.000000,2061.000000,46444.000000
20454.000000,3636.000000,2024.000000,46414.000000
20469.000000,3613.000000,2010.000000,46431.000000
20453.000000,3619.000000,2014.000000,46422.000000
20403.000000,3624.000000,2023.000000,46414.000000
20420.000000,3587.000000,1966.000000,46381.000000
20416.000000,3568.000000,1953.000000,46382.000000
20445.000000,3558.000000,1995.000000,46408.000000
20449.000000,3630.000000,2020.000000,46413.000000
20492.000000,3627.000000,2040.000000,46468.000000
20549.000000,3715.000000,2161.000000,46512.000000
20615.000000,3780.000000,2245.000000,46557.000000
20743.000000,3882.000000,2361.000000,46600.000000
20851.000000,3941.000000,2481.000000,46654.000000
20971.000000,4024.000000,2611.000000,46722.000000
21036.000000,4119.000000,2743.000000,46819.000000
21123.000000,4198.000000,2847.000000,46876.000000
21245.000000,4298.000000,2956.000000,46937.000000
21354.000000,4393.000000,3077.000000,47023.000000
21438.000000,4427.000000,3132.000000,47032.000000
21534.000000,4501.000000,3251.000000,47144.000000
21618.000000,4562.000000,3351.000000,47153.000000
21719.000000,4658.000000,3452.000000,47201.000000
21791.000000,4695.000000,3526.000000,47267.000000
21835.000000,4776.000000,3593.000000,47288.000000
21871.000000,4810.000000,3630.000000,47287.000000
21889.000000,4775.000000,3610.000000,47288.000000
21820.000000,4726.000000,3542.000000,47252.000000
21791.000000,4721.000000,3545.000000,47279.000000
21773.000000,4706.000000,3529.000000,47206.000000
21721.000000,4660.000000,3418.000000,47193.000000
21679.000000,4621.000000,3408.000000,47173.000000
21626.000000,4574.000000,3358.000000,47133.000000
21599.000000,4557.000000,3280.000000,47115.000000
21563.000000,4515.000000,3236.000000,47083.000000
21496.000000,4454.000000,3138.000000,47041.000000
21418.000000,4392.000000,3105.000000,46982.000000
21377.000000,4371.000000,3058.000000,46975.000000
21292.000000,4329.000000,2960.000000,46917.000000
21251.000000,4255.000000,2917.000000,46907.000000
21192.000000,4240.000000,2823.000000,46857.000000
21147.000000,4177.000000,2766.000000,46836.000000
21076.000000,4114.000000,2704.000000,46775.000000
21036.000000,4109.000000,2645.000000,46758.000000
20975.000000,4023.000000,2561.000000,46708.000000
20925.000000,3960.000000,2519.000000,46697.000000
20864.000000,3936.000000,2435.000000,46671.000000
20837.000000,3878.000000,2370.000000,46607.000000
20760.000000,3824.000000,2328.000000,46574.000000
20684.000000,3786.000000,2278.000000,46575.000000
20659.000000,3759.000000,2208.000000,46517.000000
20635.000000,3728.000000,2218.000000,46486.000000
20603.000000,3649.000000,2129.000000,46483.000000
20577.000000,3682.000000,2142.000000,46463.000000
20551.000000,3659.000000,2105.000000,46476.000000
20513.000000,3633.000000,2037.000000,46398.000000
20460.000000,3613.000000,1972.000000,46408.000000
20457.000000,3571.000000,1986.000000,46389.000000
20384.000000,3545.000000,1959.000000,46362.000000
20398.000000,3564.000000,1913.000000,46355.000000
20383.000000,3481.000000,1904.000000,46348.000000
20319.000000,3487.000000,1837.000000,46331.000000
20287.000000,3428.000000,1761.000000,46278.000000
20250.000000,3395.000000,1772.000000,46272.000000
20217.000000,3409.000000,1735.000000,46270.000000
20199.000000,3382.000000,1739.000000,46270.000000
20232.000000,3412.000000,1745.000000,46258.000000
20261.000000,3419.000000,1793.000000,46297.000000
20344.000000,3505.000000,1906.000000,46325.000000
20391.000000,3561.000000,1962.000000,46387.000000
20500.000000,3647.000000,2053.000000,46490.000000
20598.000000,3745.000000,2191.000000,46523.000000
20743.000000,3846.000000,2306.000000,46607.000000
20901.000000,3981.000000,2494.000000,46672.000000
21109.000000,4163.000000,2753.000000,46841.000000
21167.000000,4206.000000,2799.000000,46861.000000
21181.000000,4206.000000,2880.000000,46846.000000
21383.000000,4355.000000,3047.000000,46974.000000
21514.000000,4447.000000,3185.000000,47078.000000
21587.000000,4526.000000,3288.000000,47117.000000
21702.000000,4641.000000,3402.000000,47201.000000
21780.000000,4694.000000,3502.000000,47235.000000
21861.000000,4749.000000,3589.000000,47242.000000
21906.000000,4794.000000,3629.000000,47267.000000
21864.000000,4787.000000,3601.000000,47256.000000
21802.000000,4782.000000,3538.000000,47224.000000
21799.000000,4749.000000,3510.000000,47179.000000
21801.000000,4734.000000,3501.000000,47235.000000
21723.000000,4695.000000,3473.000000,47194.000000
21697.000000,4662.000000,3407.000000,47158.000000
21652.000000,4605.000000,3345.000000,47150.000000
21594.000000,4528.000000,3259.000000,47096.000000
21571.000000,4530.000000,3304.000000,47093.000000
21530.000000,4502.000000,3212.000000,47020.000000
21488.000000,4499.000000,3141.000000,47009.000000
21483.000000,4419.000000,3114.000000,47019.000000
21385.000000,4387.000000,3072.000000,46975.000000
21351.000000,4341.000000,3004.000000,46955.000000
21296.000000,4300.000000,2957.000000,46904.000000
21268.000000,4282.000000,2933.000000,46889.000000
21243.000000,4258.000000,2848.000000,46896.000000
21166.000000,4230.000000,2856.000000,46839.000000
21169.000000,4207.000000,2784.000000,46819.000000
21111.000000,4165.000000,2722.000000,46799.000000
21076.000000,4126.000000,2723.000000,46779.000000
21039.000000,4101.000000,2625.000000,46737.000000
20991.000000,4041.000000,2579.000000,46722.000000
20958.000000,4021.000000,2552.000000,46693.000000
20870.000000,3972.000000,2529.000000,46669.000000
20886.000000,3979.000000,2431.000000,46621.000000
20842.000000,3939.000000,2426.000000,46613.000000
20775.000000,3842.000000,2353.000000,46595.000000
20714.000000,3820.000000,2328.000000,46561.000000
20695.000000,3817.000000,2278.000000,46536.000000
20656.000000,3792.000000,2236.000000,46519.000000
20606.000000,3780.000000,2158.000000,46484.000000
20553.000000,3719.000000,2160.000000,46482.000000
20528.000000,3686.000000,2089.000000,46447.000000
20483.000000,3695.000000,2090.000000,46418.000000
20477.000000,3653.000000,2069.000000,46448.000000
20447.000000,3636.000000,2010.000000,46406.000000
20461.000000,3643.000000,2053.000000,46405.000000
20471.000000,3678.000000,2081.000000,46424.000000
20531.000000,3722.000000,2170.000000,46480.000000
20644.000000,3816.000000,2288.000000,46535.000000
20806.000000,3914.000000,2406.000000,46611.000000
20882.000000,3983.000000,2506.000000,46693.000000
20996.000000,4128.000000,2650.000000,46786.000000
21106.000000,4209.000000,2835.000000,46857.000000
21259.000000,4312.000000,2989.000000,46976.000000
21455.000000,4515.000000,3203.000000,47057.000000
21582.000000,4522.000000,3358.000000,47149.000000
21729.000000,4714.000000,3512.000000,47236.000000
21766.000000,4736.000000,3541.000000,47238.000000
21916.000000,4838.000000,3690.000000,47365.000000
21978.000000,4910.000000,3780.000000,47384.000000
22044.000000,4961.000000,3867.000000,47439.000000
22022.000000,4962.000000,3797.000000,47384.000000
21945.000000,4887.000000,3725.000000,47358.000000
21849.000000,4835.000000,3644.000000,47297.000000
21785.000000,4773.000000,3562.000000,47242.000000
21755.000000,4742.000000,3512.000000,47215.000000
21698.000000,4676.000000,3456.000000,47191.000000
21640.000000,4574.000000,3379.000000,47141.000000
21577.000000,4546.000000,3285.000000,47113.000000
21457.000000,4481.000000,3147.000000,47019.000000
21430.000000,4443.000000,3139.000000,47011.000000
21427.000000,4488.000000,3132.000000,47019.000000
21341.000000,4352.000000,3062.000000,46967.000000
21222.000000,4291.000000,2927.000000,46900.000000
21229.000000,4314.000000,2893.000000,46904.000000
21215.000000,4280.000000,2894.000000,46856.000000
21160.000000,4210.000000,2838.000000,46845.000000
21090.000000,4105.000000,2738.000000,46804.000000
21021.000000,4115.000000,2711.000000,46774.000000
20973.000000,4047.000000,2609.000000,46743.000000
20907.000000,4028.000000,2555.000000,46702.000000
20843.000000,3948.000000,2463.000000,46660.000000
20778.000000,3919.000000,2402.000000,46610.000000
20682.000000,3812.000000,2277.000000,46538.000000
20678.000000,3804.000000,2281.000000,46535.000000
20653.000000,3792.000000,2231.000000,46531.000000
20603.000000,3751.000000,2219.000000,46504.000000
20538.000000,3673.000000,2144.000000,46468.000000
20468.000000,3636.000000,2044.000000,46406.000000
20417.000000,3572.000000,1968.000000,46390.000000
20370.000000,3571.000000,1932.000000,46345.000000
20323.000000,3496.000000,1849.000000,46312.000000
20240.000000,3460.000000,1819.000000,46315.000000
20256.000000,3449.000000,1816.000000,46293.000000
20238.000000,3454.000000,1769.000000,46309.000000
20289.000000,3488.000000,1883.000000,46296.000000
20350.000000,3555.000000,1958.000000,46390.000000
20436.000000,3625.000000,2064.000000,46440.000000
20542.000000,3688.000000,2170.000000,46511.000000
20605.000000,3807.000000,2268.000000,46555.000000
20741.000000,3859.000000,2372.000000,46614.000000
20847.000000,3932.000000,2503.000000,46685.000000
20934.000000,4022.000000,2615.000000,46756.000000
21070.000000,4119.000000,2766.000000,46832.000000
21173.000000,4192.000000,2865.000000,46883.000000
21312.000000,4284.000000,3015.000000,46970.000000
21409.000000,4369.000000,3139.000000,47070.000000
21547.000000,4463.000000,3271.000000,47100.000000
21532.000000,4509.000000,3267.000000,47142.000000
21592.000000,4540.000000,3343.000000,47153.000000
21634.000000,4603.000000,3357.000000,47136.000000
21627.000000,4545.000000,3343.000000,47147.000000
21559.000000,4523.000000,3308.000000,47141.000000
21523.000000,4548.000000,3302.000000,47103.000000
21511.000000,4477.000000,3239.000000,47073.000000
21488.000000,4486.000000,3193.000000,47067.000000
21455.000000,4471.000000,3187.000000,47033.000000
21432.000000,4408.000000,3143.000000,47030.000000
21392.000000,4400.000000,3085.000000,46988.000000
21333.000000,4364.000000,3042.000000,46960.000000
21275.000000,4322.000000,2994.000000,46937.000000
21243.000000,4284.000000,2953.000000,46897.000000
21172.000000,4228.000000,2869.000000,46897.000000
21162.000000,4221.000000,2843.000000,46858.000000
21143.000000,4211.000000,2763.000000,46835.000000
21089.000000,4139.000000,2766.000000,46842.000000
21017.000000,4140.000000,2729.000000,46819.000000
21011.000000,4097.000000,2692.000000,46777.000000
20947.000000,4032.000000,2660.000000,46747.000000
20927.000000,3998.000000,2579.000000,46692.000000
20834.000000,3942.000000,2482.000000,46676.000000
20840.000000,3938.000000,2481.000000,46665.000000
20764.000000,3883.000000,2406.000000,46643.000000
20733.000000,3842.000000,2377.000000,46601.000000
20681.000000,3810.000000,2312.000000,46583.000000
20659.000000,3791.000000,2280.000000,46530.000000
20607.000000,3715.000000,2245.000000,46549.000000
20535.000000,3769.000000,2181.000000,46507.000000
20537.000000,3720.000000,2147.000000,46482.000000
20498.000000,3682.000000,2090.000000,46460.000000
20463.000000,3624.000000,2069.000000,46417.000000
20453.000000,3602.000000,2084.000000,46414.000000
20406.000000,3615.000000,2056.000000,46445.000000
20387.000000,3608.000000,1969.000000,46378.000000
20336.000000,3577.000000,1990.000000,46392.000000
20357.000000,3572.000000,1951.000000,46356.000000
20278.000000,3523.000000,1883.000000,46333.000000
20273.000000,3497.000000,1886.000000,46314.000000
20245.000000,3496.000000,1848.000000,46319.000000
20253.000000,3495.000000,1860.000000,46356.000000
20305.000000,3533.000000,1906.000000,46347.000000
20353.000000,3561.000000,1990.000000,46406.000000
20483.000000,3677.000000,2093.000000,46473.000000
20618.000000,3807.000000,2276.000000,46560.000000
20744.000000,3899.000000,2405.000000,46608.000000
20984.000000,4115.000000,2711.000000,46802.000000
21021.000000,4124.000000,2762.000000,46808.000000
21071.000000,4198.000000,2810.000000,46846.000000
21203.000000,4288.000000,3009.000000,46927.000000
21439.000000,4477.000000,3241.000000,47087.000000
21486.000000,4517.000000,3277.000000,47091.000000
21621.000000,4640.000000,3457.000000,47183.000000
21675.000000,4658.000000,3510.000000,47239.000000
21740.000000,4719.000000,3547.000000,47255.000000
21723.000000,4713.000000,3584.000000,47238.000000
21755.000000,4750.000000,3569.000000,47232.000000
21687.000000,4687.000000,3507.000000,47215.000000
21659.000000,4631.000000,3451.000000,47155.000000
21584.000000,4616.000000,3416.000000,47173.000000
21589.000000,4589.000000,3371.000000,47123.000000
21502.000000,4555.000000,3281.000000,47096.000000
21460.000000,4511.000000,3280.000000,47100.000000
21405.000000,4478.000000,3203.000000,47070.000000
21374.000000,4445.000000,3171.000000,47030.000000
21354.000000,4419.000000,3128.000000,47018.000000
21320.000000,4340.000000,3065.000000,46995.000000
21215.000000,4334.000000,3017.000000,46944.000000
21210.000000,4297.000000,2945.000000,46922.000000
21151.000000,4251.000000,2917.000000,46882.000000
21109.000000,4208.000000,2837.000000,46855.000000
21039.000000,4173.000000,2785.000000,46836.000000
20996.000000,4118.000000,2742.000000,46796.000000
20970.000000,4081.000000,2670.000000,46765.000000
20886.000000,4020.000000,2614.000000,46779.000000
20859.000000,3988.000000,2544.000000,46702.000000
20808.000000,3955.000000,2525.000000,46697.000000
20787.000000,3896.000000,2476.000000,46655.000000
20744.000000,3886.000000,2437.000000,46648.000000
20680.000000,3859.000000,2380.000000,46607.000000
20648.000000,3793.000000,2323.000000,46574.000000
20610.000000,3798.000000,2288.000000,46571.000000
20580.000000,3776.000000,2257.000000,46526.000000
20527.000000,3724.000000,2202.000000,46505.000000
20555.000000,3704.000000,2170.000000,46502.000000
20464.000000,3667.000000,2108.000000,46477.000000
20431.000000,3651.000000,2118.000000,46444.000000
20387.000000,3613.000000,2083.000000,46463.000000
20376.000000,3599.000000,2018.000000,46425.000000
20290.000000,3556.000000,1968.000000,46392.000000
20291.000000,3499.000000,1909.000000,46346.000000
20225.000000,3487.000000,1849.000000,46320.000000
20181.000000,3440.000000,1820.000000,46284.000000
20155.000000,3422.000000,1808.000000,46284.000000
20133.000000,3385.000000,1769.000000,46278.000000
20149.000000,3430.000000,1825.000000,46294.000000
20173.000000,3443.000000,1863.000000,46327.000000
20244.000000,3510.000000,1903.000000,46363.000000
20276.000000,3564.000000,1984.000000,46399.000000
20391.000000,3629.000000,2077.000000,46429.000000
20479.000000,3685.000000,2217.000000,46538.000000
20624.000000,3814.000000,2370.000000,46635.000000
20773.000000,3944.000000,2504.000000,46687.000000
20871.000000,4000.000000,2641.000000,46787.000000
21020.000000,4151.000000,2783.000000,46828.000000
21130.000000,4259.000000,2963.000000,46914.000000
21249.000000,4351.000000,3094.000000,47014.000000
21453.000000,4443.000000,3246.000000,47093.000000
21522.000000,4519.000000,3352.000000,47141.000000
21601.000000,4619.000000,3455.000000,47201.000000
21651.000000,4630.000000,3477.000000,47216.000000
21627.000000,4638.000000,3495.000000,47207.000000
21582.000000,4590.000000,3426.000000,47193.000000
21570.000000,4613.000000,3414.000000,47187.000000
21581.000000,4596.000000,3406.000000,47154.000000
21522.000000,4555.000000,3357.000000,47118.000000
21488.000000,4509.000000,3365.000000,47154.000000
21501.000000,4517.000000,3301.000000,47090.000000
21431.000000,4513.000000,3275.000000,47105.000000
21413.000000,4447.000000,3233.000000,47046.000000
21352.000000,4420.000000,3191.000000,47044.000000
21313.000000,4392.000000,3158.000000,47036.000000
21270.000000,4372.000000,3094.000000,47000.000000
21223.000000,4307.000000,3062.000000,46995.000000
21184.000000,4307.000000,3020.000000,46934.000000
21174.000000,4299.000000,2978.000000,46919.000000
21074.000000,4227.000000,2928.000000,46923.000000
21102.000000,4224.000000,2874.000000,46854.000000
21048.000000,4196.000000,2826.000000,46830.000000
20997.000000,4148.000000,2784.000000,46833.000000
20951.000000,4120.000000,2713.000000,46823.000000
20904.000000,4099.000000,2676.000000,46767.000000
20862.000000,4038.000000,2606.000000,46741.000000
20820.000000,3964.000000,2584.000000,46711.000000
20764.000000,3986.000000,2547.000000,46671.000000
20770.000000,3919.000000,2459.000000,46673.000000
20676.000000,3886.000000,2405.000000,46631.000000
20635.000000,3856.000000,2346.000000,46613.000000
20597.000000,3825.000000,2322.000000,46558.000000
20549.000000,3767.000000,2277.000000,46544.000000
20516.000000,3748.000000,2245.000000,46530.000000
20490.000000,3734.000000,2219.000000,46513.000000
20460.000000,3705.000000,2154.000000,46506.000000
20414.000000,3655.000000,2113.000000,46481.000000
20356.000000,3652.000000,2100.000000,46480.000000
20330.000000,3640.000000,2075.000000,46451.000000
20339.000000,3605.000000,2039.000000,46431.000000
20263.000000,3565.000000,2018.000000,46401.000000
20251.000000,3547.000000,1964.000000,46370.000000
20222.000000,3512.000000,1915.000000,46349.000000
20224.000000,3552.000000,1948.000000,46399.000000
20229.000000,3551.000000,1966.000000,46372.000000
20267.000000,3556.000000,2031.000000,46395.000000
20322.000000,3608.000000,2076.000000,46420.000000
20359.000000,3669.000000,2106.000000,46466.000000
20442.000000,3744.000000,2234.000000,46523.000000
20544.000000,3815.000000,2354.000000,46597.000000
20559.000000,3846.000000,2334.000000,46600.000000
20778.000000,4014.000000,2598.000000,46736.000000
20836.000000,4018.000000,2650.000000,46773.000000
20842.000000,4048.000000,2692.000000,46765.000000
21076.000000,4205.000000,2858.000000,46878.000000
21153.000000,4278.000000,2978.000000,46939.000000
21258.000000,4369.000000,3123.000000,47043.000000
21343.000000,4447.000000,3238.000000,47094.000000
21429.000000,4492.000000,3310.000000,47113.000000
21459.000000,4523.000000,3318.000000,47110.000000
21397.000000,4501.000000,3277.000000,47109.000000
21419.000000,4512.000000,3265.000000,47095.000000
21353.000000,4464.000000,3226.000000,47081.000000
21325.000000,4389.000000,3151.000000,47048.000000
21278.000000,4351.000000,3106.000000,47018.000000
21247.000000,4340.000000,3058.000000,46970.000000
21171.000000,4317.000000,3004.000000,46981.000000
21139.000000,4297.000000,2920.000000,46928.000000
21106.000000,4232.000000,2925.000000,46920.000000
21070.000000,4200.000000,2834.000000,46882.000000
20993.000000,4145.000000,2812.000000,46887.000000
21016.000000,4135.000000,2796.000000,46859.000000
20980.000000,4099.000000,2747.000000,46818.000000
20922.000000,4095.000000,2692.000000,46785.000000
20872.000000,4045.000000,2677.000000,46781.000000
20877.000000,4063.000000,2637.000000,46758.000000
20814.000000,4005.000000,2567.000000,46713.000000
20776.000000,3968.000000,2532.000000,46692.000000
20756.000000,3942.000000,2492.000000,46676.000000
20651.000000,3927.000000,2465.000000,46635.000000
20638.000000,3847.000000,2384.000000,46632.000000
20601.000000,3827.000000,2372.000000,46588.000000
20566.000000,3779.000000,2303.000000,46572.000000
20479.000000,3757.000000,2265.000000,46557.000000
20474.000000,3736.000000,2216.000000,46525.000000
20463.000000,3697.000000,2151.000000,46470.000000
20356.000000,3669.000000,2114.000000,46441.000000
20368.000000,3615.000000,2115.000000,46486.000000
20330.000000,3627.000000,2081.000000,46437.000000
20297.000000,3614.000000,2050.000000,46428.000000
20282.000000,3563.000000,1993.000000,46403.000000
20219.000000,3543.000000,1967.000000,46346.000000
20194.000000,3504.000000,1942.000000,46348.000000
20170.000000,3470.000000,1892.000000,46326.000000
20130.000000,3466.000000,1859.000000,46319.000000
20174.000000,3484.000000,1863.000000,46315.000000
20177.000000,3493.000000,1888.000000,46315.000000
20232.000000,3543.000000,1942.000000,46346.000000
20259.000000,3587.000000,2015.000000,46411.000000
20326.000000,3663.000000,2137.000000,46462.000000
20428.000000,3750.000000,2219.000000,46512.000000
20566.000000,3816.000000,2347.000000,46552.000000
20657.000000,3889.000000,2447.000000,46644.000000
20767.000000,4025.000000,2578.000000,46721.000000
20871.000000,4079.000000,2692.000000,46784.000000
20968.000000,4184.000000,2812.000000,46864.000000
21069.000000,4272.000000,2984.000000,46938.000000
21234.000000,4369.000000,3114.000000,47037.000000
21351.000000,4463.000000,3252.000000,47082.000000
21379.000000,4482.000000,3258.000000,47103.000000
21589.000000,4635.000000,3464.000000,47227.000000
21584.000000,4627.000000,3517.000000,47218.000000
21604.000000,4645.000000,3528.000000,47238.000000
21656.000000,4715.000000,3556.000000,47238.000000
21639.000000,4732.000000,3542.000000,47210.000000
21606.000000,4661.000000,3512.000000,47189.000000
21566.000000,4606.000000,3478.000000,47190.000000
21524.000000,4603.000000,3438.000000,47162.000000
21488.000000,4588.000000,3413.000000,47163.000000
21445.000000,4543.000000,3348.000000,47147.000000
21403.000000,4519.000000,3312.000000,47087.000000
21356.000000,4487.000000,3260.000000,47085.000000
21320.000000,4470.000000,3229.000000,47059.000000
21271.000000,4419.000000,3142.000000,47043.000000
21229.000000,4385.000000,3113.000000,46991.000000
21161.000000,4337.000000,3091.000000,46984.000000
21157.000000,4313.000000,3006.000000,46939.000000
21083.000000,4272.000000,2977.000000,46906.000000
21028.000000,4230.000000,2898.000000,46881.000000
21042.000000,4201.000000,2856.000000,46865.000000
20983.000000,4152.000000,2837.000000,46827.000000
20911.000000,4106.000000,2766.000000,46826.000000
20889.000000,4089.000000,2677.000000,46779.000000
20832.000000,4035.000000,2654.000000,46789.000000
20827.000000,4015.000000,2625.000000,46722.000000
20750.000000,3993.000000,2606.000000,46720.000000
20727.000000,3957.000000,2526.000000,46687.000000
20690.000000,3937.000000,2493.000000,46659.000000
20660.000000,3901.000000,2470.000000,46636.000000
20618.000000,3878.000000,2399.000000,46622.000000
20586.000000,3845.000000,2362.000000,46605.000000
20553.000000,3804.000000,2360.000000,46575.000000
20505.000000,3805.000000,2302.000000,46548.000000
20457.000000,3746.000000,2254.000000,46551.000000
20424.000000,3714.000000,2232.000000,46505.000000
20418.000000,3708.000000,2182.000000,46458.000000
20346.000000,3668.000000,2085.000000,46453.000000
20289.000000,3611.000000,2052.000000,46438.000000
20225.000000,3565.000000,2022.000000,46399.000000
20194.000000,3518.000000,1938.000000,46359.000000
20208.000000,3520.000000,1963.000000,46350.000000
20140.000000,3493.000000,1909.000000,46318.000000
20116.000000,3459.000000,1896.000000,46349.000000
20138.000000,3525.000000,1906.000000,46330.000000
20195.000000,3546.000000,1941.000000,46395.000000
20245.000000,3578.000000,2003.000000,46406.000000
20321.000000,3646.000000,2075.000000,46428.000000
20417.000000,3747.000000,2205.000000,46489.000000
20573.000000,3849.000000,2376.000000,46637.000000
20582.000000,3868.000000,2371.000000,46624.000000
20628.000000,3868.000000,2451.000000,46670.000000
20734.000000,3933.000000,2551.000000,46698.000000
20869.000000,4095.000000,2722.000000,46793.000000
20989.000000,4186.000000,2833.000000,46872.000000
21103.000000,4275.000000,3008.000000,46940.000000
21215.000000,4388.000000,3120.000000,47020.000000
21345.000000,4425.000000,3265.000000,47090.000000
21449.000000,4557.000000,3358.000000,47150.000000
21573.000000,4638.000000,3469.000000,47228.000000
21637.000000,4695.000000,3530.000000,47290.000000
21638.000000,4678.000000,3573.000000,47259.000000
21614.000000,4657.000000,3527.000000,47203.000000
21581.000000,4625.000000,3510.000000,47217.000000
21511.000000,4621.000000,3432.000000,47173.000000
21506.000000,4593.000000,3431.000000,47159.000000
21446.000000,4535.000000,3365.000000,47154.000000
21419.000000,4540.000000,3350.000000,47124.000000
21388.000000,4527.000000,3299.000000,47119.000000
21368.000000,4512.000000,3262.000000,47065.000000
21338.000000,4454.000000,3210.000000,47060.000000
21317.000000,4429.000000,3182.000000,47061.000000
21255.000000,4409.000000,3143.000000,47057.000000
21200.000000,4404.000000,3133.000000,47038.000000
21180.000000,4354.000000,3099.000000,46998.000000
21149.000000,4322.000000,3052.000000,46968.000000
21134.000000,4276.000000,2968.000000,46940.000000
21064.000000,4250.000000,2927.000000,46896.000000
21046.000000,4205.000000,2893.000000,46893.000000
21002.000000,4224.000000,2857.000000,46878.000000
20988.000000,4191.000000,2834.000000,46846.000000
20948.000000,4118.000000,2810.000000,46832.000000
20905.000000,4099.000000,2746.000000,46768.000000
20873.000000,4104.000000,2725.000000,46781.000000
20842.000000,4074.000000,2672.000000,46759.000000
20810.000000,3997.000000,2640.000000,46748.000000
20730.000000,3998.000000,2613.000000,46690.000000
20703.000000,3920.000000,2495.000000,46667.000000
20643.000000,3933.000000,2499.000000,46648.000000
20610.000000,3893.000000,2421.000000,46580.000000
20573.000000,3864.000000,2380.000000,46597.000000
20520.000000,3810.000000,2359.000000,46590.000000
20497.000000,3797.000000,2367.000000,46574.000000
20377.000000,3740.000000,2228.000000,46491.000000
20377.000000,3716.000000,2175.000000,46449.000000
20356.000000,3710.000000,2202.000000,46479.000000
20272.000000,3666.000000,2103.000000,46418.000000
20256.000000,3608.000000,2113.000000,46438.000000
20314.000000,3679.000000,2096.000000,46441.000000
20308.000000,3684.000000,2158.000000,46469.000000
20519.000000,3885.000000,2426.000000,46612.000000
20590.000000,3871.000000,2457.000000,46675.000000
20600.000000,3935.000000,2478.000000,46672.000000
20785.000000,4020.000000,2650.000000,46718.000000
20909.000000,4142.000000,2796.000000,46821.000000
21017.000000,4256.000000,2931.000000,46873.000000
21175.000000,4357.000000,3141.000000,47013.000000
21296.000000,4452.000000,3264.000000,47040.000000
21418.000000,4560.000000,3396.000000,47137.000000
21511.000000,4666.000000,3509.000000,47216.000000
21665.000000,4751.000000,3670.000000,47270.000000
21762.000000,4802.000000,3744.000000,47367.000000
21859.000000,4881.000000,3853.000000,47392.000000
21844.000000,4891.000000,3856.000000,47394.000000
21804.000000,4873.000000,3777.000000,47368.000000
21718.000000,4829.000000,3687.000000,47296.000000
21696.000000,4795.000000,3677.000000,47308.000000
21687.000000,4791.000000,3672.000000,47288.000000
21643.000000,4766.000000,3635.000000,47313.000000
21635.000000,4735.000000,3593.000000,47242.000000
21586.000000,4689.000000,3549.000000,47214.000000
21574.000000,4684.000000,3502.000000,47183.000000
21507.000000,4644.000000,3462.000000,47184.000000
21479.000000,4622.000000,3400.000000,47121.000000
21433.000000,4588.000000,3373.000000,47117.000000
21382.000000,4533.000000,3321.000000,47070.000000
21355.000000,4487.000000,3267.000000,47076.000000
21308.000000,4482.000000,3226.000000,47079.000000
21255.000000,4416.000000,3183.000000,47019.000000
21234.000000,4381.000000,3182.000000,47045.000000
21231.000000,4388.000000,3127.000000,46985.000000
21179.000000,4375.000000,3066.000000,46960.000000
21122.000000,4353.000000,3041.000000,46944.000000
21099.000000,4290.000000,3009.000000,46945.000000
21053.000000,4303.000000,3007.000000,46921.000000
21041.000000,4248.000000,2944.000000,46881.000000
21000.000000,4193.000000,2860.000000,46862.000000
20966.000000,4197.000000,2846.000000,46856.000000
20876.000000,4163.000000,2778.000000,46799.000000
20834.000000,4112.000000,2769.000000,46759.000000
20800.000000,4039.000000,2677.000000,46736.000000
20713.000000,4009.000000,2608.000000,46738.000000
20694.000000,3974.000000,2548.000000,46669.000000
20651.000000,3916.000000,2512.000000,46637.000000
20591.000000,3920.000000,2452.000000,46644.000000
20542.000000,3841.000000,2415.000000,46611.000000
20497.000000,3798.000000,2346.000000,46564.000000
20453.000000,3796.000000,2258.000000,46510.000000
20391.000000,3755.000000,2198.000000,46480.000000
20351.000000,3707.000000,2204.000000,46440.000000
20318.000000,3690.000000,2155.000000,46486.000000
20301.000000,3695.000000,2150.000000,46447.000000
20317.000000,3698.000000,2192.000000,46501.000000
20361.000000,3727.000000,2232.000000,46508.000000
20420.000000,3779.000000,2298.000000,46553.000000
20507.000000,3830.000000,2352.000000,46586.000000
20559.000000,3886.000000,2429.000000,46622.000000
20657.000000,3952.000000,2524.000000,46670.000000
20749.000000,4006.000000,2631.000000,46734.000000
20846.000000,4074.000000,2712.000000,46768.000000
20902.000000,4141.000000,2811.000000,46862.000000
21030.000000,4241.000000,2969.000000,46898.000000
21104.000000,4318.000000,3053.000000,46969.000000
21226.000000,4374.000000,3139.000000,47025.000000
21292.000000,4472.000000,3241.000000,47097.000000
21369.000000,4536.000000,3348.000000,47142.000000
21458.000000,4594.000000,3421.000000,47186.000000
21489.000000,4603.000000,3456.000000,47215.000000
21459.000000,4624.000000,3431.000000,47166.000000
21453.000000,4599.000000,3393.000000,47138.000000
21382.000000,4538.000000,3368.000000,47121.000000
21349.000000,4504.000000,3272.000000,47107.000000
21336.000000,4437.000000,3213.000000,47091.000000
21271.000000,4410.000000,3165.000000,47040.000000
21209.000000,4388.000000,3141.000000,47030.000000
21214.000000,4338.000000,3092.000000,46991.000000
21170.000000,4336.000000,3108.000000,47010.000000
21173.000000,4348.000000,3072.000000,46982.000000
21121.000000,4309.000000,3012.000000,46981.000000
21127.000000,4291.000000,2953.000000,46962.000000
21062.000000,4236.000000,2926.000000,46942.000000
21040.000000,4204.000000,2901.000000,46906.000000
21011.000000,4188.000000,2867.000000,46871.000000
20963.000000,4181.000000,2852.000000,46856.000000
20880.000000,4117.000000,2744.000000,46809.000000
20859.000000,4057.000000,2699.000000,46806.000000
20860.000000,4085.000000,2695.000000,46793.000000
20810.000000,4020.000000,2637.000000,46750.000000
20758.000000,3974.000000,2598.000000,46727.000000
