660nm,730nm,850nm,940nm
20786.000000,14948.000000,26808.000000,62366.000000
20822.000000,14940.000000,26825.000000,62352.000000
20772.000000,14907.000000,26836.000000,62374.000000
20801.000000,14947.000000,26808.000000,62365.000000
20789.000000,14931.000000,26787.000000,62353.000000
20803.000000,14946.000000,26801.000000,62367.000000
20763.000000,14919.000000,26776.000000,62346.000000
20788.000000,14900.000000,26755.000000,62338.000000
20750.000000,14922.000000,26768.000000,62368.000000
20765.000000,14941.000000,26770.000000,62342.000000
20787.000000,14909.000000,26756.000000,62313.000000
20768.000000,14899.000000,26744.000000,62337.000000
20759.000000,14905.000000,26773.000000,62325.000000
20739.000000,14888.000000,26734.000000,62319.000000
20770.000000,14896.000000,26721.000000,62308.000000
20781.000000,14899.000000,26694.000000,62316.000000
20757.000000,14901.000000,26704.000000,62296.000000
20755.000000,14878.000000,26712.000000,62306.000000
20722.000000,14855.000000,26639.000000,62286.000000
20718.000000,14854.000000,26675.000000,62260.000000
20711.000000,14874.000000,26642.000000,62296.000000
20715.000000,14861.000000,26673.000000,62294.000000
20695.000000,14853.000000,26583.000000,62290.000000
20682.000000,14845.000000,26620.000000,62283.000000
20689.000000,14854.000000,26635.000000,62274.000000
20674.000000,14834.000000,26626.000000,62249.000000
20678.000000,14858.000000,26596.000000,62243.000000
20650.000000,14844.000000,26569.000000,62232.000000
20680.000000,14805.000000,26600.000000,62219.000000
20656.000000,14829.000000,26587.000000,62248.000000
20650.000000,14794.000000,26578.000000,62239.000000
20673.000000,14814.000000,26574.000000,62222.000000
20619.000000,14824.000000,26554.000000,62239.000000
20635.000000,14787.000000,26537.000000,62252.000000
20657.000000,14749.000000,26495.000000,62182.000000
20657.000000,14798.000000,26509.000000,62198.000000
20593.000000,14760.000000,26482.000000,62163.000000
20619.000000,14716.000000,26453.000000,62198.000000
20585.000000,14710.000000,26443.000000,62183.000000
20571.000000,14707.000000,26434.000000,62186.000000
20585.000000,14713.000000,26426.000000,62170.000000
20558.000000,14716.000000,26373.000000,62132.000000
20524.000000,14680.000000,26365.000000,62157.000000
20523.000000,14683.000000,26359.000000,62160.000000
20501.000000,14706.000000,26373.000000,62150.000000
20523.000000,14705.000000,26368.000000,62170.000000
20531.000000,14678.000000,26362.000000,62112.000000
20501.000000,14670.000000,26339.000000,62127.000000
20528.000000,14677.000000,26359.000000,62108.000000
20491.000000,14648.000000,26353.000000,62100.000000
20505.000000,14644.000000,26343.000000,62126.000000
20488.000000,14666.000000,26325.000000,62136.000000
20476.000000,14659.000000,26358.000000,62137.000000
20497.000000,14664.000000,26326.000000,62130.000000
20512.000000,14673.000000,26356.000000,62108.000000
20459.000000,14670.000000,26355.000000,62167.000000
20492.000000,14739.000000,26362.000000,62152.000000
20488.000000,14720.000000,26382.000000,62152.000000
20495.000000,14705.000000,26375.000000,62152.000000
20518.000000,14718.000000,26405.000000,62158.000000
20524.000000,14765.000000,26442.000000,62141.000000
20538.000000,14740.000000,26471.000000,62192.000000
20553.000000,14758.000000,26471.000000,62211.000000
20558.000000,14783.000000,26489.000000,62255.000000
20558.000000,14772.000000,26534.000000,62230.000000
20591.000000,14803.000000,26567.000000,62250.000000
20613.000000,14826.000000,26635.000000,62298.000000
20617.000000,14848.000000,26661.000000,62310.000000
20652.000000,14911.000000,26727.000000,62327.000000
20661.000000,14935.000000,26780.000000,62333.000000
20738.000000,14919.000000,26824.000000,62380.000000
20772.000000,14987.000000,26894.000000,62391.000000
20804.000000,14970.000000,26884.000000,62403.000000
20830.000000,14996.000000,26942.000000,62399.000000
20842.000000,15016.000000,26931.000000,62430.000000
20874.000000,15032.000000,26923.000000,62418.000000
20912.000000,14997.000000,26898.000000,62429.000000
20928.000000,15012.000000,26927.000000,62431.000000
20943.000000,15017.000000,26937.000000,62446.000000
20961.000000,15014.000000,26955.000000,62429.000000
20928.000000,15034.000000,26947.000000,62405.000000
20936.000000,14991.000000,26949.000000,62442.000000
20945.000000,15019.000000,26954.000000,62435.000000
20941.000000,15010.000000,26936.000000,62418.000000
20930.000000,15009.000000,26927.000000,62430.000000
20949.000000,15030.000000,26931.000000,62427.000000
20992.000000,14993.000000,26920.000000,62412.000000
20960.000000,15030.000000,26924.000000,62421.000000
20969.000000,15013.000000,26931.000000,62405.000000
20953.000000,15028.000000,26914.000000,62425.000000
20967.000000,14978.000000,26931.000000,62430.000000
20962.000000,15015.000000,26927.000000,62415.000000
20966.000000,15008.000000,26930.000000,62413.000000
20948.000000,15015.000000,26924.000000,62436.000000
20937.000000,15021.000000,26901.000000,62398.000000
20940.000000,15023.000000,26914.000000,62422.000000
20938.000000,15017.000000,26898.000000,62407.000000
20937.000000,15004.000000,26920.000000,62396.000000
20936.000000,15005.000000,26885.000000,62422.000000
20938.000000,15000.000000,26919.000000,62407.000000
20931.000000,14994.000000,26926.000000,62435.000000
20931.000000,14996.000000,26909.000000,62416.000000
20929.000000,15006.000000,26890.000000,62402.000000
20931.000000,14985.000000,26878.000000,62409.000000
20952.000000,14984.000000,26889.000000,62395.000000
20928.000000,14976.000000,26862.000000,62404.000000
20956.000000,14979.000000,26867.000000,62401.000000
20908.000000,14971.000000,26848.000000,62391.000000
20934.000000,14984.000000,26852.000000,62383.000000
20914.000000,14972.000000,26813.000000,62390.000000
20924.000000,14955.000000,26828.000000,62379.000000
20900.000000,14989.000000,26844.000000,62392.000000
20940.000000,14943.000000,26812.000000,62369.000000
20914.000000,14951.000000,26812.000000,62373.000000
20899.000000,14946.000000,26794.000000,62372.000000
20943.000000,14943.000000,26785.000000,62363.000000
20906.000000,14972.000000,26781.000000,62357.000000
20857.000000,14951.000000,26783.000000,62342.000000
20882.000000,14962.000000,26785.000000,62334.000000
20884.000000,14919.000000,26730.000000,62345.000000
20878.000000,14894.000000,26679.000000,62322.000000
20868.000000,14863.000000,26631.000000,62282.000000
20864.000000,14872.000000,26639.000000,62307.000000
20853.000000,14871.000000,26644.000000,62263.000000
20806.000000,14868.000000,26585.000000,62224.000000
20826.000000,14830.000000,26570.000000,62278.000000
20783.000000,14813.000000,26538.000000,62240.000000
20771.000000,14861.000000,26532.000000,62217.000000
20773.000000,14805.000000,26500.000000,62212.000000
20774.000000,14804.000000,26514.000000,62219.000000
20721.000000,14757.000000,26467.000000,62204.000000
20748.000000,14792.000000,26473.000000,62193.000000
20720.000000,14780.000000,26425.000000,62171.000000
20756.000000,14777.000000,26440.000000,62178.000000
20709.000000,14754.000000,26440.000000,62174.000000
20691.000000,14729.000000,26420.000000,62180.000000
20704.000000,14706.000000,26337.000000,62153.000000
20669.000000,14692.000000,26330.000000,62160.000000
20698.000000,14674.000000,26344.000000,62124.000000
20679.000000,14709.000000,26318.000000,62146.000000
20631.000000,14672.000000,26279.000000,62092.000000
20638.000000,14676.000000,26295.000000,62080.000000
20621.000000,14650.000000,26272.000000,62080.000000
20615.000000,14668.000000,26272.000000,62092.000000
20562.000000,14657.000000,26257.000000,62107.000000
20559.000000,14659.000000,26255.000000,62113.000000
20589.000000,14651.000000,26273.000000,62100.000000
20569.000000,14680.000000,26296.000000,62134.000000
20580.000000,14689.000000,26302.000000,62157.000000
20579.000000,14663.000000,26294.000000,62114.000000
20578.000000,14745.000000,26364.000000,62162.000000
20592.000000,14701.000000,26413.000000,62152.000000
20620.000000,14761.000000,26435.000000,62192.000000
20613.000000,14761.000000,26387.000000,62186.000000
20631.000000,14812.000000,26445.000000,62191.000000
20648.000000,14771.000000,26471.000000,62215.000000
20653.000000,14791.000000,26473.000000,62212.000000
20696.000000,14811.000000,26498.000000,62198.000000
20708.000000,14822.000000,26526.000000,62255.000000
20723.000000,14857.000000,26568.000000,62276.000000
20741.000000,14859.000000,26610.000000,62294.000000
20763.000000,14904.000000,26616.000000,62293.000000
20791.000000,14917.000000,26669.000000,62332.000000
20800.000000,14982.000000,26829.000000,62414.000000
20853.000000,14998.000000,26875.000000,62426.000000
20867.000000,15033.000000,26927.000000,62447.000000
20905.000000,15057.000000,26974.000000,62454.000000
21001.000000,15066.000000,26995.000000,62492.000000
20990.000000,15073.000000,27001.000000,62484.000000
21044.000000,15078.000000,26988.000000,62484.000000
21075.000000,15084.000000,26991.000000,62473.000000
21072.000000,15121.000000,27006.000000,62485.000000
21085.000000,15100.000000,26997.000000,62523.000000
21129.000000,15101.000000,27020.000000,62487.000000
21104.000000,15132.000000,27006.000000,62473.000000
21117.000000,15083.000000,26988.000000,62464.000000
21116.000000,15075.000000,26990.000000,62476.000000
21115.000000,15109.000000,27027.000000,62475.000000
21144.000000,15138.000000,27005.000000,62498.000000
21097.000000,15125.000000,26981.000000,62475.000000
21121.000000,15118.000000,26991.000000,62467.000000
21128.000000,15132.000000,26989.000000,62494.000000
21131.000000,15086.000000,26987.000000,62474.000000
21105.000000,15145.000000,27008.000000,62491.000000
21126.000000,15083.000000,26990.000000,62483.000000
21123.000000,15099.000000,26980.000000,62450.000000
21132.000000,15099.000000,26995.000000,62472.000000
21098.000000,15072.000000,26966.000000,62469.000000
21115.000000,15085.000000,26974.000000,62449.000000
21099.000000,15084.000000,26969.000000,62456.000000
21108.000000,15056.000000,26930.000000,62451.000000
21116.000000,15071.000000,26918.000000,62448.000000
21098.000000,15072.000000,26955.000000,62442.000000
21101.000000,15076.000000,26938.000000,62440.000000
21079.000000,15062.000000,26946.000000,62417.000000
21117.000000,15055.000000,26947.000000,62434.000000
21079.000000,15042.000000,26910.000000,62422.000000
21076.000000,15052.000000,26910.000000,62442.000000
21083.000000,15033.000000,26929.000000,62418.000000
21089.000000,15061.000000,26910.000000,62444.000000
21062.000000,15046.000000,26936.000000,62439.000000
21072.000000,15044.000000,26874.000000,62449.000000
21061.000000,15031.000000,26884.000000,62417.000000
21049.000000,15026.000000,26883.000000,62416.000000
21069.000000,15059.000000,26869.000000,62411.000000
21074.000000,15017.000000,26857.000000,62422.000000
21029.000000,15013.000000,26863.000000,62404.000000
21043.000000,15025.000000,26850.000000,62411.000000
21040.000000,15001.000000,26810.000000,62411.000000
21047.000000,14998.000000,26833.000000,62407.000000
21015.000000,14999.000000,26816.000000,62404.000000
21043.000000,15001.000000,26817.000000,62392.000000
21043.000000,14985.000000,26816.000000,62389.000000
21000.000000,14995.000000,26809.000000,62349.000000
21006.000000,14994.000000,26787.000000,62378.000000
20992.000000,14997.000000,26752.000000,62332.000000
20993.000000,14969.000000,26768.000000,62343.000000
20990.000000,14943.000000,26738.000000,62332.000000
20979.000000,14954.000000,26696.000000,62343.000000
20981.000000,14955.000000,26703.000000,62373.000000
20991.000000,14947.000000,26698.000000,62333.000000
20950.000000,14943.000000,26688.000000,62329.000000
20948.000000,14942.000000,26677.000000,62321.000000
20936.000000,14913.000000,26649.000000,62296.000000
20907.000000,14945.000000,26651.000000,62290.000000
20897.000000,14905.000000,26638.000000,62300.000000
20918.000000,14921.000000,26605.000000,62297.000000
20888.000000,14876.000000,26591.000000,62272.000000
20903.000000,14870.000000,26593.000000,62269.000000
20880.000000,14864.000000,26601.000000,62292.000000
20863.000000,14905.000000,26596.000000,62281.000000
20885.000000,14884.000000,26597.000000,62276.000000
20860.000000,14941.000000,26578.000000,62273.000000
20868.000000,14885.000000,26558.000000,62265.000000
20824.000000,14882.000000,26538.000000,62243.000000
20830.000000,14885.000000,26544.000000,62274.000000
20862.000000,14833.000000,26509.000000,62209.000000
20851.000000,14846.000000,26496.000000,62198.000000
20870.000000,14816.000000,26490.000000,62206.000000
20816.000000,14794.000000,26480.000000,62226.000000
20818.000000,14837.000000,26483.000000,62230.000000
20749.000000,14822.000000,26452.000000,62202.000000
20778.000000,14853.000000,26462.000000,62223.000000
20758.000000,14801.000000,26444.000000,62222.000000
20785.000000,14826.000000,26440.000000,62220.000000
20761.000000,14836.000000,26450.000000,62201.000000
20761.000000,14834.000000,26419.000000,62185.000000
20783.000000,14826.000000,26435.000000,62180.000000
20769.000000,14825.000000,26433.000000,62185.000000
20789.000000,14799.000000,26415.000000,62186.000000
20782.000000,14790.000000,26428.000000,62180.000000
20748.000000,14779.000000,26416.000000,62204.000000
20761.000000,14762.000000,26385.000000,62165.000000
20751.000000,14758.000000,26366.000000,62155.000000
20708.000000,14745.000000,26380.000000,62152.000000
20734.000000,14766.000000,26346.000000,62141.000000
20690.000000,14681.000000,26334.000000,62145.000000
20702.000000,14764.000000,26331.000000,62134.000000
20718.000000,14753.000000,26354.000000,62157.000000
20731.000000,14726.000000,26294.000000,62168.000000
20697.000000,14721.000000,26324.000000,62135.000000
20680.000000,14744.000000,26301.000000,62121.000000
20681.000000,14697.000000,26281.000000,62137.000000
20667.000000,14689.000000,26311.000000,62128.000000
20643.000000,14686.000000,26279.000000,62134.000000
20637.000000,14683.000000,26291.000000,62155.000000
20613.000000,14684.000000,26278.000000,62108.000000
20615.000000,14694.000000,26255.000000,62123.000000
20616.000000,14680.000000,26275.000000,62111.000000
20646.000000,14728.000000,26280.000000,62131.000000
20642.000000,14695.000000,26282.000000,62118.000000
20622.000000,14724.000000,26317.000000,62087.000000
20607.000000,14723.000000,26321.000000,62140.000000
20624.000000,14696.000000,26326.000000,62142.000000
20617.000000,14749.000000,26326.000000,62175.000000
20653.000000,14765.000000,26397.000000,62194.000000
20629.000000,14764.000000,26428.000000,62202.000000
20666.000000,14800.000000,26446.000000,62207.000000
20652.000000,14800.000000,26441.000000,62220.000000
20681.000000,14782.000000,26478.000000,62230.000000
20703.000000,14853.000000,26543.000000,62258.000000
20702.000000,14883.000000,26558.000000,62258.000000
20723.000000,14887.000000,26609.000000,62312.000000
20748.000000,14891.000000,26634.000000,62287.000000
20817.000000,14927.000000,26711.000000,62336.000000
20841.000000,14963.000000,26750.000000,62382.000000
20843.000000,14973.000000,26777.000000,62377.000000
20894.000000,15042.000000,26913.000000,62462.000000
20926.000000,15063.000000,26964.000000,62469.000000
20956.000000,15086.000000,26993.000000,62479.000000
20947.000000,15116.000000,27033.000000,62498.000000
21062.000000,15098.000000,27020.000000,62469.000000
21090.000000,15116.000000,26994.000000,62471.000000
21099.000000,15103.000000,27012.000000,62495.000000
21138.000000,15112.000000,27035.000000,62485.000000
21122.000000,15092.000000,27010.000000,62498.000000
21125.000000,15103.000000,27008.000000,62493.000000
21133.000000,15126.000000,27017.000000,62488.000000
21130.000000,15121.000000,27003.000000,62486.000000
21103.000000,15105.000000,26991.000000,62476.000000
21118.000000,15117.000000,26999.000000,62471.000000
21109.000000,15065.000000,27000.000000,62492.000000
21129.000000,15115.000000,26994.000000,62473.000000
21146.000000,15108.000000,27013.000000,62475.000000
21099.000000,15114.000000,26995.000000,62460.000000
21106.000000,15086.000000,27026.000000,62479.000000
21067.000000,15097.000000,27015.000000,62509.000000
21114.000000,15085.000000,26996.000000,62469.000000
21126.000000,15120.000000,27007.000000,62480.000000
21083.000000,15106.000000,27003.000000,62480.000000
21079.000000,15104.000000,26953.000000,62475.000000
21067.000000,15089.000000,26995.000000,62445.000000
21101.000000,15093.000000,26972.000000,62435.000000
21062.000000,15079.000000,26946.000000,62438.000000
21080.000000,15095.000000,26956.000000,62453.000000
21059.000000,15083.000000,26955.000000,62429.000000
21081.000000,15084.000000,26957.000000,62451.000000
21094.000000,15054.000000,26917.000000,62457.000000
21086.000000,15060.000000,26962.000000,62452.000000
21075.000000,15062.000000,26948.000000,62440.000000
21085.000000,15040.000000,26941.000000,62450.000000
21069.000000,15056.000000,26943.000000,62458.000000
21044.000000,15037.000000,26929.000000,62450.000000
21058.000000,15055.000000,26941.000000,62448.000000
21082.000000,15040.000000,26951.000000,62436.000000
21056.000000,15032.000000,26932.000000,62425.000000
21057.000000,15033.000000,26920.000000,62426.000000
21043.000000,15054.000000,26905.000000,62407.000000
21057.000000,15039.000000,26876.000000,62408.000000
21040.000000,15018.000000,26891.000000,62403.000000
21037.000000,15044.000000,26861.000000,62413.000000
21058.000000,15036.000000,26857.000000,62402.000000
21024.000000,15023.000000,26876.000000,62420.000000
21025.000000,15024.000000,26830.000000,62385.000000
20986.000000,14975.000000,26839.000000,62386.000000
21009.000000,15031.000000,26861.000000,62372.000000
20988.000000,14963.000000,26832.000000,62380.000000
21004.000000,14981.000000,26836.000000,62375.000000
20949.000000,14967.000000,26826.000000,62398.000000
20976.000000,15006.000000,26783.000000,62378.000000
20995.000000,14968.000000,26764.000000,62355.000000
20958.000000,14972.000000,26743.000000,62313.000000
20948.000000,14968.000000,26737.000000,62357.000000
20941.000000,14962.000000,26741.000000,62339.000000
20938.000000,14968.000000,26740.000000,62330.000000
20956.000000,14955.000000,26705.000000,62335.000000
20936.000000,14925.000000,26719.000000,62328.000000
20931.000000,14925.000000,26712.000000,62341.000000
20902.000000,14972.000000,26707.000000,62338.000000
20926.000000,14949.000000,26701.000000,62328.000000
20905.000000,14908.000000,26658.000000,62334.000000
20897.000000,14917.000000,26688.000000,62334.000000
20927.000000,14944.000000,26644.000000,62284.000000
20898.000000,14892.000000,26644.000000,62302.000000
20895.000000,14897.000000,26656.000000,62306.000000
20883.000000,14887.000000,26646.000000,62291.000000
20860.000000,14899.000000,26637.000000,62273.000000
20880.000000,14895.000000,26621.000000,62285.000000
20843.000000,14889.000000,26626.000000,62255.000000
20824.000000,14898.000000,26615.000000,62248.000000
20841.000000,14919.000000,26587.000000,62261.000000
20826.000000,14880.000000,26594.000000,62284.000000
20806.000000,14909.000000,26603.000000,62255.000000
20845.000000,14867.000000,26590.000000,62247.000000
20819.000000,14900.000000,26575.000000,62237.000000
20797.000000,14845.000000,26567.000000,62249.000000
20845.000000,14842.000000,26560.000000,62232.000000
20804.000000,14849.000000,26518.000000,62226.000000
20824.000000,14840.000000,26522.000000,62240.000000
20792.000000,14857.000000,26494.000000,62215.000000
20798.000000,14852.000000,26482.000000,62238.000000
20765.000000,14859.000000,26525.000000,62202.000000
20780.000000,14815.000000,26500.000000,62195.000000
20767.000000,14830.000000,26489.000000,62221.000000
20783.000000,14838.000000,26497.000000,62208.000000
20773.000000,14836.000000,26484.000000,62200.000000
20728.000000,14800.000000,26462.000000,62178.000000
20738.000000,14779.000000,26430.000000,62196.000000
20708.000000,14776.000000,26395.000000,62178.000000
20731.000000,14790.000000,26403.000000,62150.000000
20728.000000,14757.000000,26387.000000,62163.000000
20643.000000,14786.000000,26372.000000,62158.000000
20652.000000,14757.000000,26395.000000,62157.000000
20675.000000,14775.000000,26414.000000,62180.000000
20666.000000,14772.000000,26378.000000,62136.000000
20663.000000,14795.000000,26408.000000,62155.000000
20688.000000,14772.000000,26377.000000,62154.000000
20689.000000,14770.000000,26395.000000,62163.000000
20657.000000,14772.000000,26428.000000,62167.000000
20651.000000,14799.000000,26409.000000,62162.000000
20675.000000,14799.000000,26434.000000,62181.000000
20670.000000,14755.000000,26437.000000,62153.000000
20683.000000,14780.000000,26430.000000,62167.000000
20695.000000,14821.000000,26469.000000,62198.000000
20707.000000,14789.000000,26488.000000,62232.000000
20704.000000,14789.000000,26471.000000,62197.000000
20707.000000,14804.000000,26513.000000,62239.000000
20736.000000,14864.000000,26528.000000,62255.000000
20713.000000,14879.000000,26584.000000,62260.000000
20745.000000,14899.000000,26603.000000,62297.000000
20738.000000,14934.000000,26609.000000,62295.000000
20752.000000,14899.000000,26655.000000,62296.000000
20824.000000,14956.000000,26692.000000,62336.000000
20843.000000,15006.000000,26828.000000,62390.000000
20835.000000,15019.000000,26861.000000,62425.000000
20883.000000,15079.000000,26923.000000,62432.000000
20922.000000,15110.000000,27004.000000,62451.000000
21004.000000,15113.000000,26989.000000,62463.000000
21029.000000,15133.000000,27005.000000,62475.000000
21061.000000,15103.000000,27014.000000,62468.000000
21093.000000,15146.000000,27022.000000,62499.000000
21122.000000,15139.000000,27049.000000,62499.000000
21132.000000,15141.000000,27071.000000,62510.000000
21141.000000,15148.000000,27086.000000,62512.000000
21130.000000,15153.000000,27076.000000,62496.000000
21129.000000,15159.000000,27024.000000,62490.000000
21145.000000,15155.000000,27031.000000,62478.000000
21148.000000,15132.000000,27039.000000,62464.000000
21146.000000,15140.000000,27053.000000,62537.000000
21143.000000,15125.000000,27046.000000,62469.000000
21109.000000,15116.000000,27036.000000,62497.000000
21146.000000,15142.000000,27048.000000,62470.000000
21136.000000,15150.000000,27035.000000,62481.000000
21147.000000,15137.000000,27019.000000,62490.000000
21107.000000,15095.000000,27026.000000,62486.000000
21118.000000,15116.000000,27027.000000,62504.000000
21118.000000,15096.000000,27027.000000,62471.000000
21128.000000,15140.000000,27024.000000,62468.000000
21128.000000,15110.000000,27036.000000,62480.000000
21134.000000,15130.000000,27005.000000,62469.000000
21111.000000,15118.000000,26983.000000,62446.000000
21113.000000,15162.000000,27017.000000,62468.000000
21100.000000,15133.000000,26954.000000,62446.000000
21084.000000,15100.000000,26989.000000,62468.000000
21117.000000,15116.000000,26969.000000,62481.000000
21096.000000,15123.000000,26964.000000,62476.000000
21128.000000,15108.000000,26963.000000,62476.000000
21134.000000,15101.000000,26935.000000,62457.000000
21113.000000,15102.000000,26976.000000,62431.000000
21079.000000,15096.000000,26979.000000,62460.000000
21108.000000,15085.000000,26964.000000,62448.000000
21098.000000,15103.000000,26947.000000,62432.000000
21086.000000,15082.000000,26936.000000,62446.000000
21069.000000,15077.000000,26943.000000,62428.000000
21092.000000,15082.000000,26929.000000,62407.000000
21116.000000,15063.000000,26908.000000,62412.000000
21071.000000,15055.000000,26880.000000,62374.000000
21103.000000,15030.000000,26890.000000,62403.000000
21104.000000,15040.000000,26903.000000,62409.000000
21082.000000,15049.000000,26879.000000,62402.000000
21082.000000,15038.000000,26850.000000,62415.000000
21022.000000,15017.000000,26844.000000,62390.000000
21052.000000,15021.000000,26840.000000,62372.000000
21064.000000,15011.000000,26822.000000,62370.000000
21022.000000,15002.000000,26805.000000,62364.000000
21010.000000,15045.000000,26767.000000,62345.000000
21036.000000,14991.000000,26742.000000,62360.000000
21018.000000,15024.000000,26713.000000,62350.000000
21026.000000,15012.000000,26786.000000,62377.000000
21023.000000,15000.000000,26765.000000,62327.000000
20981.000000,15001.000000,26747.000000,62328.000000
20976.000000,14972.000000,26728.000000,62325.000000
20970.000000,14938.000000,26721.000000,62330.000000
20952.000000,14998.000000,26704.000000,62316.000000
20981.000000,14953.000000,26709.000000,62304.000000
20957.000000,14927.000000,26671.000000,62306.000000
20966.000000,14966.000000,26676.000000,62295.000000
20948.000000,14954.000000,26653.000000,62296.000000
20937.000000,14928.000000,26667.000000,62289.000000
20906.000000,14925.000000,26618.000000,62292.000000
20925.000000,14934.000000,26641.000000,62289.000000
20949.000000,14930.000000,26596.000000,62267.000000
20887.000000,14900.000000,26611.000000,62268.000000
20950.000000,14908.000000,26617.000000,62254.000000
20930.000000,14926.000000,26603.000000,62250.000000
20909.000000,14905.000000,26585.000000,62277.000000
20882.000000,14892.000000,26586.000000,62267.000000
20925.000000,14895.000000,26564.000000,62269.000000
20884.000000,14880.000000,26564.000000,62234.000000
20887.000000,14899.000000,26573.000000,62252.000000
20869.000000,14898.000000,26546.000000,62244.000000
20854.000000,14826.000000,26538.000000,62236.000000
20838.000000,14865.000000,26536.000000,62255.000000
20831.000000,14883.000000,26517.000000,62226.000000
20865.000000,14867.000000,26510.000000,62240.000000
20843.000000,14850.000000,26498.000000,62221.000000
20810.000000,14836.000000,26489.000000,62206.000000
20811.000000,14822.000000,26465.000000,62192.000000
20824.000000,14832.000000,26452.000000,62172.000000
20820.000000,14841.000000,26448.000000,62161.000000
20760.000000,14817.000000,26475.000000,62191.000000
20793.000000,14802.000000,26435.000000,62174.000000
20790.000000,14784.000000,26381.000000,62183.000000
20743.000000,14797.000000,26410.000000,62172.000000
20743.000000,14764.000000,26418.000000,62167.000000
20762.000000,14810.000000,26404.000000,62164.000000
20753.000000,14776.000000,26392.000000,62123.000000
20714.000000,14786.000000,26402.000000,62134.000000
20707.000000,14775.000000,26382.000000,62146.000000
20709.000000,14772.000000,26357.000000,62170.000000
20739.000000,14748.000000,26388.000000,62150.000000
20706.000000,14781.000000,26404.000000,62165.000000
20714.000000,14813.000000,26407.000000,62202.000000
20756.000000,14826.000000,26432.000000,62177.000000
20736.000000,14812.000000,26448.000000,62186.000000
20731.000000,14814.000000,26425.000000,62204.000000
20732.000000,14825.000000,26471.000000,62173.000000
20798.000000,14825.000000,26488.000000,62197.000000
20763.000000,14842.000000,26492.000000,62192.000000
20791.000000,14843.000000,26480.000000,62226.000000
20793.000000,14887.000000,26566.000000,62260.000000
20801.000000,14870.000000,26579.000000,62292.000000
20817.000000,14907.000000,26606.000000,62290.000000
20847.000000,14929.000000,26635.000000,62300.000000
20838.000000,14924.000000,26696.000000,62338.000000
20857.000000,14969.000000,26683.000000,62357.000000
20902.000000,14962.000000,26735.000000,62349.000000
20879.000000,15008.000000,26791.000000,62382.000000
20945.000000,15017.000000,26821.000000,62387.000000
20948.000000,15034.000000,26872.000000,62418.000000
20976.000000,15078.000000,26925.000000,62457.000000
21017.000000,15163.000000,27074.000000,62474.000000
21012.000000,15182.000000,27117.000000,62512.000000
21052.000000,15193.000000,27101.000000,62509.000000
21057.000000,15189.000000,27153.000000,62547.000000
21195.000000,15212.000000,27165.000000,62541.000000
21222.000000,15226.000000,27152.000000,62544.000000
21205.000000,15229.000000,27151.000000,62540.000000
21228.000000,15186.000000,27147.000000,62578.000000
21255.000000,15207.000000,27179.000000,62547.000000
21231.000000,15225.000000,27140.000000,62535.000000
21230.000000,15214.000000,27124.000000,62540.000000
21235.000000,15157.000000,27136.000000,62547.000000
21252.000000,15183.000000,27148.000000,62536.000000
21217.000000,15206.000000,27149.000000,62543.000000
21230.000000,15210.000000,27163.000000,62527.000000
21230.000000,15188.000000,27126.000000,62520.000000
21202.000000,15188.000000,27116.000000,62540.000000
21238.000000,15188.000000,27115.000000,62518.000000
21226.000000,15170.000000,27111.000000,62552.000000
21215.000000,15169.000000,27109.000000,62520.000000
21193.000000,15189.000000,27123.000000,62517.000000
21207.000000,15178.000000,27128.000000,62500.000000
21217.000000,15176.000000,27103.000000,62518.000000
21219.000000,15205.000000,27074.000000,62517.000000
21194.000000,15155.000000,27077.000000,62516.000000
21191.000000,15176.000000,27078.000000,62505.000000
21200.000000,15175.000000,27080.000000,62492.000000
21184.000000,15171.000000,27079.000000,62503.000000
21201.000000,15194.000000,27054.000000,62500.000000
21202.000000,15165.000000,27090.000000,62503.000000
21210.000000,15170.000000,27079.000000,62495.000000
21200.000000,15131.000000,27056.000000,62481.000000
21206.000000,15177.000000,27061.000000,62519.000000
21191.000000,15193.000000,27077.000000,62502.000000
21223.000000,15160.000000,27037.000000,62485.000000
21188.000000,15169.000000,27063.000000,62507.000000
21178.000000,15164.000000,27051.000000,62490.000000
21194.000000,15163.000000,27016.000000,62463.000000
21163.000000,15141.000000,27020.000000,62506.000000
21133.000000,15183.000000,27038.000000,62475.000000
21155.000000,15105.000000,27001.000000,62470.000000
21164.000000,15158.000000,27029.000000,62506.000000
21187.000000,15142.000000,27050.000000,62475.000000
21151.000000,15120.000000,27021.000000,62471.000000
21140.000000,15120.000000,27007.000000,62471.000000
21152.000000,15131.000000,26979.000000,62447.000000
21133.000000,15119.000000,26948.000000,62430.000000
21152.000000,15091.000000,26966.000000,62447.000000
21154.000000,15120.000000,26984.000000,62416.000000
21124.000000,15097.000000,26948.000000,62423.000000
21138.000000,15088.000000,26942.000000,62423.000000
21110.000000,15081.000000,26921.000000,62426.000000
21125.000000,15042.000000,26931.000000,62431.000000
21121.000000,15069.000000,26931.000000,62426.000000
21082.000000,15074.000000,26862.000000,62399.000000
21056.000000,15070.000000,26878.000000,62410.000000
21062.000000,15050.000000,26836.000000,62389.000000
21093.000000,15015.000000,26849.000000,62374.000000
21063.000000,15057.000000,26841.000000,62368.000000
21039.000000,15026.000000,26833.000000,62377.000000
21018.000000,15032.000000,26825.000000,62365.000000
21027.000000,15034.000000,26820.000000,62346.000000
21026.000000,15014.000000,26796.000000,62384.000000
21016.000000,15018.000000,26787.000000,62336.000000
20997.000000,15002.000000,26781.000000,62352.000000
20984.000000,14999.000000,26757.000000,62344.000000
20990.000000,14985.000000,26774.000000,62348.000000
20971.000000,15017.000000,26746.000000,62349.000000
20975.000000,15006.000000,26725.000000,62313.000000
20979.000000,14957.000000,26703.000000,62331.000000
20972.000000,14971.000000,26716.000000,62326.000000
20952.000000,14986.000000,26720.000000,62320.000000
20990.000000,14991.000000,26731.000000,62336.000000
20956.000000,14965.000000,26692.000000,62310.000000
20948.000000,14959.000000,26655.000000,62275.000000
20930.000000,14915.000000,26639.000000,62276.000000
20956.000000,14919.000000,26646.000000,62262.000000
20934.000000,14925.000000,26632.000000,62281.000000
20946.000000,14925.000000,26631.000000,62257.000000
20920.000000,14921.000000,26576.000000,62230.000000
20896.000000,14906.000000,26573.000000,62232.000000
20885.000000,14899.000000,26545.000000,62187.000000
20875.000000,14889.000000,26553.000000,62218.000000
20865.000000,14878.000000,26487.000000,62180.000000
20880.000000,14841.000000,26476.000000,62199.000000
20824.000000,14875.000000,26479.000000,62192.000000
20814.000000,14862.000000,26462.000000,62177.000000
20813.000000,14812.000000,26460.000000,62186.000000
20803.000000,14849.000000,26481.000000,62191.000000
20805.000000,14843.000000,26477.000000,62232.000000
20790.000000,14842.000000,26473.000000,62202.000000
20797.000000,14865.000000,26506.000000,62218.000000
20758.000000,14881.000000,26492.000000,62214.000000
20762.000000,14851.000000,26507.000000,62206.000000
20776.000000,14884.000000,26513.000000,62201.000000
20758.000000,14865.000000,26550.000000,62237.000000
20803.000000,14867.000000,26563.000000,62262.000000
20801.000000,14880.000000,26549.000000,62280.000000
20801.000000,14860.000000,26553.000000,62261.000000
20807.000000,14914.000000,26611.000000,62262.000000
20859.000000,14930.000000,26576.000000,62283.000000
20826.000000,14907.000000,26617.000000,62271.000000
20858.000000,14916.000000,26632.000000,62293.000000
20864.000000,14972.000000,26651.000000,62311.000000
20878.000000,14971.000000,26709.000000,62318.000000
20885.000000,15014.000000,26729.000000,62359.000000
20881.000000,15015.000000,26819.000000,62387.000000
20882.000000,15070.000000,26873.000000,62420.000000
20919.000000,15088.000000,26929.000000,62432.000000
20927.000000,15100.000000,26964.000000,62435.000000
21005.000000,15181.000000,27090.000000,62522.000000
21032.000000,15187.000000,27112.000000,62533.000000
21058.000000,15199.000000,27104.000000,62523.000000
21113.000000,15235.000000,27157.000000,62534.000000
21157.000000,15205.000000,27194.000000,62502.000000
21203.000000,15217.000000,27153.000000,62534.000000
21210.000000,15217.000000,27179.000000,62533.000000
21216.000000,15224.000000,27135.000000,62557.000000
21204.000000,15230.000000,27139.000000,62528.000000
21244.000000,15242.000000,27171.000000,62537.000000
21206.000000,15218.000000,27143.000000,62535.000000
21208.000000,15200.000000,27143.000000,62523.000000
21237.000000,15233.000000,27169.000000,62543.000000
21236.000000,15189.000000,27129.000000,62511.000000
21231.000000,15196.000000,27167.000000,62494.000000
21213.000000,15221.000000,27150.000000,62527.000000
21206.000000,15197.000000,27151.000000,62517.000000
21211.000000,15207.000000,27135.000000,62502.000000
21246.000000,15219.000000,27142.000000,62521.000000
21227.000000,15199.000000,27124.000000,62507.000000
21216.000000,15222.000000,27136.000000,62501.000000
21207.000000,15222.000000,27151.000000,62527.000000
21229.000000,15226.000000,27129.000000,62506.000000
21199.000000,15221.000000,27141.000000,62521.000000
21201.000000,15209.000000,27135.000000,62537.000000
21212.000000,15212.000000,27120.000000,62543.000000
21207.000000,15209.000000,27117.000000,62490.000000
21191.000000,15220.000000,27121.000000,62497.000000
21191.000000,15226.000000,27141.000000,62501.000000
21212.000000,15193.000000,27117.000000,62504.000000
21215.000000,15222.000000,27095.000000,62513.000000
21216.000000,15167.000000,27123.000000,62508.000000
21202.000000,15216.000000,27110.000000,62519.000000
21235.000000,15236.000000,27107.000000,62493.000000
21209.000000,15222.000000,27093.000000,62501.000000
21199.000000,15197.000000,27117.000000,62493.000000
21169.000000,15184.000000,27065.000000,62503.000000
21205.000000,15206.000000,27070.000000,62500.000000
21202.000000,15228.000000,27095.000000,62481.000000
21188.000000,15208.000000,27069.000000,62462.000000
21200.000000,15198.000000,27070.000000,62490.000000
21210.000000,15182.000000,27059.000000,62487.000000
21185.000000,15182.000000,27061.000000,62486.000000
21215.000000,15179.000000,27074.000000,62471.000000
21181.000000,15190.000000,27080.000000,62451.000000
21143.000000,15183.000000,27057.000000,62466.000000
21204.000000,15184.000000,27070.000000,62480.000000
21187.000000,15174.000000,27050.000000,62476.000000
21193.000000,15190.000000,27041.000000,62487.000000
21142.000000,15159.000000,27037.000000,62444.000000
21153.000000,15181.000000,27066.000000,62466.000000
21177.000000,15175.000000,27025.000000,62447.000000
21146.000000,15149.000000,27010.000000,62470.000000
21171.000000,15129.000000,27012.000000,62448.000000
21176.000000,15121.000000,26995.000000,62450.000000
21170.000000,15156.000000,26952.000000,62460.000000
21165.000000,15138.000000,26993.000000,62436.000000
21112.000000,15131.000000,26954.000000,62437.000000
21126.000000,15114.000000,26964.000000,62413.000000
21131.000000,15124.000000,26949.000000,62414.000000
21136.000000,15127.000000,26948.000000,62426.000000
21126.000000,15113.000000,26935.000000,62413.000000
21138.000000,15104.000000,26939.000000,62419.000000
21103.000000,15109.000000,26901.000000,62421.000000
21128.000000,15093.000000,26906.000000,62398.000000
21102.000000,15087.000000,26901.000000,62401.000000
21093.000000,15097.000000,26894.000000,62408.000000
21092.000000,15095.000000,26875.000000,62408.000000
21082.000000,15104.000000,26869.000000,62400.000000
21067.000000,15074.000000,26864.000000,62411.000000
21095.000000,15069.000000,26852.000000,62387.000000
21051.000000,15047.000000,26836.000000,62385.000000
21085.000000,15066.000000,26855.000000,62375.000000
21087.000000,15039.000000,26824.000000,62365.000000
21057.000000,15034.000000,26821.000000,62347.000000
21022.000000,15067.000000,26834.000000,62367.000000
21033.000000,15064.000000,26819.000000,62391.000000
21045.000000,15047.000000,26765.000000,62347.000000
20999.000000,15041.000000,26779.000000,62308.000000
21002.000000,15000.000000,26760.000000,62334.000000
21022.000000,15014.000000,26716.000000,62291.000000
20994.000000,14984.000000,26735.000000,62320.000000
21013.000000,14996.000000,26755.000000,62308.000000
20963.000000,14959.000000,26758.000000,62309.000000
20970.000000,15009.000000,26672.000000,62314.000000
20955.000000,14978.000000,26655.000000,62275.000000
20931.000000,14981.000000,26652.000000,62268.000000
20936.000000,14968.000000,26668.000000,62281.000000
20949.000000,14970.000000,26618.000000,62264.000000
20948.000000,14971.000000,26586.000000,62269.000000
20953.000000,14951.000000,26599.000000,62285.000000
20928.000000,14910.000000,26601.000000,62275.000000
20936.000000,14948.000000,26604.000000,62260.000000
20907.000000,14919.000000,26580.000000,62265.000000
20882.000000,14924.000000,26588.000000,62250.000000
20849.000000,14932.000000,26588.000000,62273.000000
20889.000000,14936.000000,26609.000000,62244.000000
20877.000000,14955.000000,26569.000000,62236.000000
20887.000000,14960.000000,26594.000000,62250.000000
20857.000000,14937.000000,26593.000000,62249.000000
20870.000000,14932.000000,26613.000000,62298.000000
20904.000000,14936.000000,26630.000000,62298.000000
20882.000000,14939.000000,26635.000000,62300.000000
20903.000000,14982.000000,26665.000000,62269.000000
20906.000000,14965.000000,26627.000000,62306.000000
20892.000000,14953.000000,26667.000000,62285.000000
20937.000000,14981.000000,26667.000000,62294.000000
20947.000000,14983.000000,26687.000000,62313.000000
20955.000000,14995.000000,26684.000000,62339.000000
20947.000000,15026.000000,26804.000000,62355.000000
20948.000000,15031.000000,26837.000000,62382.000000
20951.000000,15058.000000,26875.000000,62415.000000
21013.000000,15081.000000,26909.000000,62426.000000
21034.000000,15114.000000,26970.000000,62429.000000
21075.000000,15163.000000,26975.000000,62456.000000
21039.000000,15172.000000,27014.000000,62499.000000
21086.000000,15207.000000,27047.000000,62483.000000
21130.000000,15253.000000,27104.000000,62500.000000
21142.000000,15259.000000,27125.000000,62537.000000
21184.000000,15269.000000,27149.000000,62519.000000
21209.000000,15323.000000,27240.000000,62582.000000
21278.000000,15321.000000,27230.000000,62542.000000
21269.000000,15328.000000,27256.000000,62570.000000
21271.000000,15317.000000,27252.000000,62561.000000
21337.000000,15316.000000,27227.000000,62579.000000
21321.000000,15323.000000,27239.000000,62548.000000
21330.000000,15351.000000,27251.000000,62568.000000
21333.000000,15320.000000,27193.000000,62551.000000
21337.000000,15291.000000,27244.000000,62564.000000
21365.000000,15287.000000,27234.000000,62577.000000
21336.000000,15279.000000,27217.000000,62577.000000
21345.000000,15288.000000,27249.000000,62537.000000
21341.000000,15320.000000,27253.000000,62567.000000
21337.000000,15304.000000,27242.000000,62539.000000
21347.000000,15306.000000,27222.000000,62561.000000
21332.000000,15267.000000,27204.000000,62549.000000
21328.000000,15274.000000,27230.000000,62524.000000
21336.000000,15291.000000,27227.000000,62553.000000
21315.000000,15349.000000,27219.000000,62561.000000
21310.000000,15254.000000,27223.000000,62576.000000
21349.000000,15291.000000,27245.000000,62563.000000
21336.000000,15303.000000,27195.000000,62547.000000
21310.000000,15318.000000,27196.000000,62562.000000
21338.000000,15273.000000,27189.000000,62540.000000
21312.000000,15273.000000,27181.000000,62528.000000
21316.000000,15279.000000,27180.000000,62540.000000
21316.000000,15276.000000,27172.000000,62539.000000
21266.000000,15287.000000,27178.000000,62559.000000
21264.000000,15289.000000,27165.000000,62514.000000
21309.000000,15262.000000,27170.000000,62556.000000
21281.000000,15277.000000,27180.000000,62558.000000
21305.000000,15266.000000,27203.000000,62531.000000
21288.000000,15287.000000,27174.000000,62518.000000
21294.000000,15278.000000,27157.000000,62516.000000
21308.000000,15258.000000,27152.000000,62538.000000
21302.000000,15264.000000,27154.000000,62507.000000
21282.000000,15264.000000,27153.000000,62522.000000
21306.000000,15223.000000,27134.000000,62490.000000
21256.000000,15285.000000,27154.000000,62493.000000
21290.000000,15250.000000,27154.000000,62526.000000
21309.000000,15247.000000,27161.000000,62512.000000
21284.000000,15222.000000,27127.000000,62512.000000
21283.000000,15270.000000,27155.000000,62529.000000
21251.000000,15245.000000,27099.000000,62528.000000
21267.000000,15240.000000,27106.000000,62488.000000
21281.000000,15265.000000,27120.000000,62502.000000
21282.000000,15190.000000,27089.000000,62497.000000
21260.000000,15233.000000,27110.000000,62460.000000
21277.000000,15229.000000,27041.000000,62487.000000
21287.000000,15220.000000,27064.000000,62501.000000
21225.000000,15195.000000,27038.000000,62497.000000
21254.000000,15183.000000,27005.000000,62454.000000
21225.000000,15196.000000,27039.000000,62497.000000
21223.000000,15215.000000,27046.000000,62483.000000
21230.000000,15182.000000,27022.000000,62446.000000
21224.000000,15180.000000,26965.000000,62436.000000
21217.000000,15202.000000,27006.000000,62438.000000
21219.000000,15193.000000,26978.000000,62434.000000
21204.000000,15173.000000,26956.000000,62472.000000
21207.000000,15187.000000,26958.000000,62451.000000
21193.000000,15193.000000,26949.000000,62441.000000
21181.000000,15125.000000,26940.000000,62410.000000
21179.000000,15127.000000,26917.000000,62427.000000
21167.000000,15135.000000,26911.000000,62389.000000
21154.000000,15130.000000,26904.000000,62379.000000
21143.000000,15104.000000,26896.000000,62371.000000
21161.000000,15072.000000,26869.000000,62379.000000
21137.000000,15120.000000,26849.000000,62400.000000
21153.000000,15090.000000,26878.000000,62363.000000
21132.000000,15086.000000,26817.000000,62367.000000
21094.000000,15087.000000,26828.000000,62365.000000
21123.000000,15065.000000,26811.000000,62364.000000
21098.000000,15072.000000,26792.000000,62353.000000
21111.000000,15081.000000,26782.000000,62323.000000
21094.000000,15063.000000,26717.000000,62345.000000
21081.000000,15043.000000,26772.000000,62357.000000
21111.000000,15063.000000,26768.000000,62344.000000
21095.000000,15048.000000,26725.000000,62338.000000
21077.000000,15029.000000,26709.000000,62282.000000
21063.000000,15025.000000,26694.000000,62318.000000
21051.000000,15001.000000,26674.000000,62286.000000
21032.000000,15029.000000,26674.000000,62306.000000
21046.000000,15036.000000,26661.000000,62275.000000
21068.000000,15005.000000,26651.000000,62267.000000
21035.000000,14987.000000,26623.000000,62277.000000
21035.000000,14966.000000,26627.000000,62257.000000
20993.000000,14945.000000,26634.000000,62264.000000
20984.000000,14975.000000,26590.000000,62256.000000
20993.000000,14949.000000,26589.000000,62235.000000
21000.000000,14960.000000,26579.000000,62233.000000
20993.000000,14956.000000,26587.000000,62237.000000
20985.000000,14989.000000,26605.000000,62270.000000
21002.000000,14986.000000,26578.000000,62253.000000
20938.000000,14955.000000,26552.000000,62230.000000
20965.000000,14916.000000,26591.000000,62274.000000
20929.000000,14953.000000,26575.000000,62241.000000
20980.000000,14979.000000,26594.000000,62248.000000
20978.000000,14966.000000,26593.000000,62258.000000
20949.000000,14970.000000,26603.000000,62238.000000
20946.000000,15002.000000,26644.000000,62273.000000
20975.000000,14980.000000,26636.000000,62294.000000
21003.000000,15015.000000,26682.000000,62294.000000
20995.000000,15034.000000,26671.000000,62292.000000
21007.000000,15026.000000,26671.000000,62317.000000
21041.000000,15065.000000,26690.000000,62327.000000
21041.000000,15103.000000,26803.000000,62378.000000
21082.000000,15093.000000,26839.000000,62371.000000
21082.000000,15121.000000,26841.000000,62383.000000
21079.000000,15122.000000,26876.000000,62422.000000
21134.000000,15156.000000,26915.000000,62436.000000
21128.000000,15185.000000,26978.000000,62483.000000
21165.000000,15227.000000,27028.000000,62521.000000
21217.000000,15233.000000,27067.000000,62506.000000
21244.000000,15293.000000,27087.000000,62553.000000
21266.000000,15316.000000,27162.000000,62537.000000
21296.000000,15347.000000,27214.000000,62571.000000
21320.000000,15385.000000,27250.000000,62591.000000
21376.000000,15364.000000,27244.000000,62595.000000
21405.000000,15373.000000,27289.000000,62612.000000
21437.000000,15404.000000,27282.000000,62574.000000
21505.000000,15402.000000,27296.000000,62587.000000
21442.000000,15373.000000,27288.000000,62607.000000
21495.000000,15395.000000,27269.000000,62613.000000
21507.000000,15388.000000,27260.000000,62578.000000
21513.000000,15377.000000,27268.000000,62580.000000
21508.000000,15380.000000,27291.000000,62600.000000
21469.000000,15389.000000,27259.000000,62567.000000
21481.000000,15372.000000,27268.000000,62578.000000
21480.000000,15375.000000,27250.000000,62564.000000
21467.000000,15374.000000,27249.000000,62568.000000
21488.000000,15350.000000,27231.000000,62572.000000
21497.000000,15349.000000,27272.000000,62584.000000
21489.000000,15342.000000,27254.000000,62601.000000
21496.000000,15363.000000,27263.000000,62596.000000
21499.000000,15357.000000,27245.000000,62592.000000
21496.000000,15389.000000,27226.000000,62571.000000
21484.000000,15356.000000,27237.000000,62565.000000
21455.000000,15358.000000,27208.000000,62564.000000
21475.000000,15360.000000,27205.000000,62576.000000
21473.000000,15344.000000,27237.000000,62566.000000
21471.000000,15361.000000,27238.000000,62582.000000
21462.000000,15356.000000,27177.000000,62563.000000
21462.000000,15350.000000,27202.000000,62577.000000
21460.000000,15336.000000,27176.000000,62558.000000
21477.000000,15352.000000,27196.000000,62548.000000
21456.000000,15301.000000,27168.000000,62530.000000
21440.000000,15287.000000,27149.000000,62520.000000
21434.000000,15340.000000,27148.000000,62535.000000
21440.000000,15276.000000,27114.000000,62522.000000
21394.000000,15301.000000,27125.000000,62530.000000
21409.000000,15292.000000,27096.000000,62530.000000
21400.000000,15280.000000,27116.000000,62514.000000
21411.000000,15259.000000,27103.000000,62512.000000
21391.000000,15304.000000,27106.000000,62528.000000
21392.000000,15275.000000,27091.000000,62529.000000
21401.000000,15294.000000,27090.000000,62528.000000
21392.000000,15299.000000,27092.000000,62511.000000
21394.000000,15258.000000,27058.000000,62509.000000
21387.000000,15284.000000,27030.000000,62472.000000
21391.000000,15282.000000,27049.000000,62496.000000
21350.000000,15232.000000,27018.000000,62482.000000
21366.000000,15228.000000,27030.000000,62475.000000
21351.000000,15247.000000,27026.000000,62460.000000
21356.000000,15227.000000,27041.000000,62464.000000
21353.000000,15203.000000,26947.000000,62442.000000
21327.000000,15196.000000,26945.000000,62449.000000
21351.000000,15235.000000,26951.000000,62464.000000
21299.000000,15210.000000,26947.000000,62445.000000
21324.000000,15198.000000,26929.000000,62449.000000
21294.000000,15201.000000,26936.000000,62394.000000
21305.000000,15163.000000,26900.000000,62400.000000
21280.000000,15145.000000,26870.000000,62426.000000
21305.000000,15131.000000,26890.000000,62433.000000
21275.000000,15156.000000,26877.000000,62390.000000
21260.000000,15123.000000,26852.000000,62391.000000
21252.000000,15149.000000,26857.000000,62373.000000
21258.000000,15153.000000,26855.000000,62363.000000
21243.000000,15118.000000,26824.000000,62372.000000
21271.000000,15136.000000,26865.000000,62372.000000
21235.000000,15127.000000,26811.000000,62384.000000
21243.000000,15097.000000,26818.000000,62375.000000
21227.000000,15110.000000,26787.000000,62360.000000
21230.000000,15086.000000,26810.000000,62384.000000
21211.000000,15092.000000,26787.000000,62346.000000
21202.000000,15079.000000,26766.000000,62354.000000
21208.000000,15124.000000,26767.000000,62348.000000
21201.000000,15077.000000,26759.000000,62347.000000
21192.000000,15065.000000,26770.000000,62352.000000
21182.000000,15069.000000,26738.000000,62366.000000
21195.000000,15060.000000,26753.000000,62358.000000
21178.000000,15071.000000,26740.000000,62340.000000
21142.000000,15050.000000,26711.000000,62325.000000
21166.000000,15038.000000,26738.000000,62318.000000
21151.000000,15080.000000,26717.000000,62323.000000
21205.000000,15061.000000,26722.000000,62306.000000
21157.000000,15045.000000,26701.000000,62318.000000
21141.000000,15063.000000,26679.000000,62304.000000
21150.000000,15056.000000,26673.000000,62288.000000
21140.000000,15043.000000,26633.000000,62283.000000
21131.000000,15013.000000,26652.000000,62272.000000
21103.000000,14998.000000,26665.000000,62260.000000
21083.000000,15010.000000,26614.000000,62285.000000
21091.000000,15010.000000,26606.000000,62280.000000
21062.000000,14999.000000,26601.000000,62278.000000
21074.000000,14977.000000,26596.000000,62275.000000
21062.000000,14991.000000,26563.000000,62266.000000
21061.000000,14992.000000,26599.000000,62260.000000
21041.000000,14980.000000,26570.000000,62238.000000
21047.000000,14973.000000,26553.000000,62239.000000
21034.000000,14965.000000,26584.000000,62258.000000
21009.000000,14961.000000,26569.000000,62231.000000
21044.000000,14996.000000,26555.000000,62209.000000
21018.000000,14969.000000,26554.000000,62252.000000
21036.000000,14995.000000,26579.000000,62264.000000
21061.000000,14994.000000,26581.000000,62270.000000
21077.000000,14974.000000,26616.000000,62281.000000
21031.000000,15001.000000,26606.000000,62243.000000
21041.000000,15009.000000,26599.000000,62256.000000
21070.000000,14992.000000,26632.000000,62286.000000
21069.000000,15042.000000,26642.000000,62311.000000
21070.000000,15043.000000,26726.000000,62311.000000
21064.000000,15038.000000,26718.000000,62335.000000
21082.000000,15055.000000,26707.000000,62318.000000
21097.000000,15080.000000,26760.000000,62364.000000
21118.000000,15108.000000,26752.000000,62372.000000
21141.000000,15108.000000,26817.000000,62345.000000
21115.000000,15156.000000,26882.000000,62426.000000
21160.000000,15194.000000,26942.000000,62457.000000
21169.000000,15238.000000,27005.000000,62480.000000
21193.000000,15261.000000,27038.000000,62495.000000
21262.000000,15276.000000,27077.000000,62511.000000
21295.000000,15257.000000,27087.000000,62536.000000
21284.000000,15316.000000,27175.000000,62535.000000
21328.000000,15408.000000,27267.000000,62618.000000
21366.000000,15437.000000,27311.000000,62633.000000
21392.000000,15430.000000,27319.000000,62618.000000
21418.000000,15460.000000,27330.000000,62620.000000
21520.000000,15457.000000,27331.000000,62612.000000
21538.000000,15475.000000,27328.000000,62642.000000
21551.000000,15435.000000,27340.000000,62642.000000
21547.000000,15444.000000,27339.000000,62635.000000
21550.000000,15448.000000,27325.000000,62628.000000
21576.000000,15415.000000,27318.000000,62612.000000
21574.000000,15390.000000,27334.000000,62655.000000
21564.000000,15440.000000,27331.000000,62638.000000
21564.000000,15384.000000,27316.000000,62611.000000
21601.000000,15431.000000,27323.000000,62613.000000
21536.000000,15428.000000,27321.000000,62617.000000
21563.000000,15405.000000,27305.000000,62583.000000
21549.000000,15427.000000,27307.000000,62609.000000
21533.000000,15406.000000,27325.000000,62617.000000
21531.000000,15425.000000,27301.000000,62566.000000
21538.000000,15395.000000,27284.000000,62604.000000
21491.000000,15373.000000,27281.000000,62599.000000
21518.000000,15407.000000,27282.000000,62632.000000
21536.000000,15371.000000,27289.000000,62609.000000
21538.000000,15389.000000,27252.000000,62618.000000
21495.000000,15389.000000,27283.000000,62597.000000
21489.000000,15401.000000,27269.000000,62571.000000
21494.000000,15379.000000,27269.000000,62593.000000
21519.000000,15349.000000,27250.000000,62579.000000
21484.000000,15375.000000,27298.000000,62552.000000
21504.000000,15400.000000,27230.000000,62572.000000
21518.000000,15380.000000,27235.000000,62593.000000
21481.000000,15387.000000,27249.000000,62595.000000
21508.000000,15400.000000,27252.000000,62587.000000
21493.000000,15390.000000,27254.000000,62570.000000
21485.000000,15389.000000,27215.000000,62570.000000
21500.000000,15344.000000,27238.000000,62566.000000
21468.000000,15386.000000,27238.000000,62567.000000
21484.000000,15370.000000,27215.000000,62588.000000
21452.000000,15355.000000,27208.000000,62577.000000
21463.000000,15366.000000,27206.000000,62524.000000
21475.000000,15366.000000,27205.000000,62558.000000
21471.000000,15372.000000,27208.000000,62561.000000
21475.000000,15365.000000,27179.000000,62542.000000
21485.000000,15356.000000,27225.000000,62546.000000
21453.000000,15341.000000,27144.000000,62542.000000
21421.000000,15346.000000,27139.000000,62532.000000
21444.000000,15322.000000,27146.000000,62547.000000
21432.000000,15349.000000,27153.000000,62538.000000
21422.000000,15294.000000,27149.000000,62516.000000
21410.000000,15314.000000,27149.000000,62496.000000
21405.000000,15320.000000,27124.000000,62526.000000
21410.000000,15295.000000,27108.000000,62535.000000
21427.000000,15307.000000,27109.000000,62537.000000
21419.000000,15268.000000,27039.000000,62475.000000
21420.000000,15258.000000,27046.000000,62488.000000
21410.000000,15267.000000,27019.000000,62493.000000
21404.000000,15243.000000,27034.000000,62487.000000
21337.000000,15229.000000,27014.000000,62474.000000
21347.000000,15243.000000,26991.000000,62502.000000
21351.000000,15264.000000,26982.000000,62461.000000
21336.000000,15227.000000,26998.000000,62462.000000
21343.000000,15238.000000,26988.000000,62451.000000
21315.000000,15239.000000,26974.000000,62488.000000
21308.000000,15236.000000,26992.000000,62432.000000
21329.000000,15226.000000,26957.000000,62450.000000
21313.000000,15247.000000,26936.000000,62394.000000
21285.000000,15207.000000,26955.000000,62402.000000
21309.000000,15211.000000,26936.000000,62431.000000
21289.000000,15221.000000,26941.000000,62444.000000
21307.000000,15186.000000,26929.000000,62420.000000
21310.000000,15174.000000,26917.000000,62427.000000
21267.000000,15181.000000,26907.000000,62403.000000
21261.000000,15176.000000,26883.000000,62413.000000
21235.000000,15187.000000,26913.000000,62376.000000
21254.000000,15177.000000,26851.000000,62410.000000
21235.000000,15166.000000,26880.000000,62387.000000
21232.000000,15173.000000,26844.000000,62367.000000
21234.000000,15120.000000,26815.000000,62376.000000
21224.000000,15121.000000,26812.000000,62335.000000
21144.000000,15097.000000,26812.000000,62390.000000
21197.000000,15121.000000,26780.000000,62355.000000
21223.000000,15102.000000,26797.000000,62352.000000
21220.000000,15086.000000,26747.000000,62340.000000
21184.000000,15122.000000,26777.000000,62338.000000
21180.000000,15107.000000,26730.000000,62307.000000
21182.000000,15065.000000,26714.000000,62321.000000
21179.000000,15064.000000,26676.000000,62331.000000
21155.000000,15068.000000,26702.000000,62325.000000
21144.000000,15093.000000,26688.000000,62308.000000
21107.000000,15051.000000,26684.000000,62323.000000
21113.000000,15066.000000,26717.000000,62299.000000
21105.000000,15048.000000,26635.000000,62283.000000
21125.000000,15065.000000,26686.000000,62282.000000
21122.000000,15026.000000,26701.000000,62311.000000
21138.000000,15063.000000,26710.000000,62346.000000
21114.000000,15092.000000,26691.000000,62329.000000
21113.000000,15107.000000,26746.000000,62337.000000
21143.000000,15087.000000,26738.000000,62314.000000
21130.000000,15115.000000,26781.000000,62350.000000
21151.000000,15105.000000,26793.000000,62348.000000
21167.000000,15120.000000,26795.000000,62357.000000
21156.000000,15124.000000,26828.000000,62370.000000
21193.000000,15149.000000,26845.000000,62384.000000
21213.000000,15134.000000,26835.000000,62410.000000
21186.000000,15163.000000,26878.000000,62457.000000
21206.000000,15173.000000,26897.000000,62417.000000
21232.000000,15201.000000,26939.000000,62441.000000
21228.000000,15231.000000,26991.000000,62453.000000
21257.000000,15236.000000,26983.000000,62484.000000
21258.000000,15253.000000,27029.000000,62498.000000
21335.000000,15339.000000,27066.000000,62529.000000
21309.000000,15324.000000,27185.000000,62537.000000
21352.000000,15394.000000,27154.000000,62577.000000
21373.000000,15389.000000,27253.000000,62561.000000
21392.000000,15406.000000,27308.000000,62610.000000
21440.000000,15476.000000,27380.000000,62643.000000
21503.000000,15520.000000,27397.000000,62654.000000
21498.000000,15489.000000,27393.000000,62664.000000
21512.000000,15500.000000,27423.000000,62666.000000
21611.000000,15503.000000,27414.000000,62620.000000
21620.000000,15496.000000,27424.000000,62664.000000
21601.000000,15491.000000,27422.000000,62648.000000
21600.000000,15508.000000,27414.000000,62662.000000
21615.000000,15540.000000,27392.000000,62655.000000
21611.000000,15532.000000,27401.000000,62656.000000
21636.000000,15536.000000,27370.000000,62637.000000
21611.000000,15507.000000,27406.000000,62661.000000
21636.000000,15493.000000,27393.000000,62635.000000
21614.000000,15505.000000,27401.000000,62644.000000
21647.000000,15474.000000,27371.000000,62639.000000
21644.000000,15518.000000,27370.000000,62637.000000
21606.000000,15488.000000,27400.000000,62617.000000
21608.000000,15500.000000,27390.000000,62628.000000
21595.000000,15459.000000,27387.000000,62635.000000
21630.000000,15511.000000,27347.000000,62642.000000
21639.000000,15503.000000,27358.000000,62648.000000
21619.000000,15498.000000,27348.000000,62654.000000
21634.000000,15484.000000,27355.000000,62664.000000
21619.000000,15478.000000,27353.000000,62660.000000
21601.000000,15451.000000,27372.000000,62641.000000
21587.000000,15507.000000,27345.000000,62628.000000
21570.000000,15464.000000,27332.000000,62630.000000
21590.000000,15514.000000,27333.000000,62644.000000
21583.000000,15443.000000,27330.000000,62635.000000
21612.000000,15494.000000,27335.000000,62610.000000
21591.000000,15448.000000,27337.000000,62624.000000
21614.000000,15451.000000,27332.000000,62632.000000
21583.000000,15474.000000,27320.000000,62614.000000
21603.000000,15412.000000,27299.000000,62610.000000
21557.000000,15471.000000,27313.000000,62616.000000
21593.000000,15430.000000,27303.000000,62605.000000
21564.000000,15455.000000,27299.000000,62608.000000
21593.000000,15468.000000,27294.000000,62611.000000
21558.000000,15425.000000,27287.000000,62578.000000
21543.000000,15431.000000,27249.000000,62568.000000
21583.000000,15435.000000,27262.000000,62615.000000
21572.000000,15406.000000,27263.000000,62574.000000
21564.000000,15443.000000,27246.000000,62576.000000
21510.000000,15383.000000,27224.000000,62577.000000
21525.000000,15387.000000,27232.000000,62571.000000
21548.000000,15415.000000,27206.000000,62562.000000
21512.000000,15407.000000,27236.000000,62557.000000
21509.000000,15369.000000,27230.000000,62574.000000
21518.000000,15381.000000,27222.000000,62564.000000
21501.000000,15375.000000,27211.000000,62548.000000
21490.000000,15362.000000,27187.000000,62552.000000
21486.000000,15354.000000,27186.000000,62543.000000
21505.000000,15362.000000,27137.000000,62508.000000
21505.000000,15358.000000,27148.000000,62509.000000
21486.000000,15360.000000,27119.000000,62525.000000
21462.000000,15356.000000,27117.000000,62502.000000
21461.000000,15308.000000,27068.000000,62520.000000
21479.000000,15319.000000,27106.000000,62508.000000
21465.000000,15314.000000,27084.000000,62517.000000
21458.000000,15340.000000,27101.000000,62508.000000
21449.000000,15309.000000,27080.000000,62539.000000
21429.000000,15319.000000,27046.000000,62489.000000
21430.000000,15341.000000,27067.000000,62477.000000
21384.000000,15301.000000,27047.000000,62471.000000
21405.000000,15348.000000,27036.000000,62477.000000
21398.000000,15295.000000,27021.000000,62488.000000
21418.000000,15251.000000,27002.000000,62475.000000
21408.000000,15274.000000,27024.000000,62470.000000
21387.000000,15288.000000,27019.000000,62459.000000
21417.000000,15277.000000,27039.000000,62449.000000
21370.000000,15289.000000,27001.000000,62436.000000
21391.000000,15272.000000,26997.000000,62450.000000
21370.000000,15271.000000,26996.000000,62465.000000
21365.000000,15274.000000,26984.000000,62442.000000
21354.000000,15238.000000,26956.000000,62447.000000
21402.000000,15238.000000,26966.000000,62433.000000
21361.000000,15252.000000,26952.000000,62433.000000
21329.000000,15223.000000,26960.000000,62423.000000
21354.000000,15231.000000,26940.000000,62414.000000
21311.000000,15230.000000,26923.000000,62441.000000
21288.000000,15210.000000,26869.000000,62424.000000
21345.000000,15209.000000,26907.000000,62372.000000
21302.000000,15230.000000,26883.000000,62408.000000
21312.000000,15164.000000,26887.000000,62410.000000
21302.000000,15161.000000,26873.000000,62406.000000
21262.000000,15176.000000,26846.000000,62357.000000
21289.000000,15180.000000,26814.000000,62368.000000
21257.000000,15188.000000,26827.000000,62377.000000
21289.000000,15139.000000,26786.000000,62391.000000
21278.000000,15166.000000,26784.000000,62377.000000
21258.000000,15137.000000,26807.000000,62394.000000
21255.000000,15167.000000,26809.000000,62366.000000
21182.000000,15172.000000,26818.000000,62392.000000
21203.000000,15155.000000,26836.000000,62362.000000
21214.000000,15166.000000,26801.000000,62381.000000
21243.000000,15149.000000,26820.000000,62360.000000
21236.000000,15179.000000,26839.000000,62398.000000
21204.000000,15202.000000,26814.000000,62375.000000
21242.000000,15195.000000,26877.000000,62375.000000
21270.000000,15172.000000,26871.000000,62411.000000
21232.000000,15179.000000,26882.000000,62400.000000
21241.000000,15202.000000,26884.000000,62416.000000
21292.000000,15252.000000,26919.000000,62382.000000
21290.000000,15254.000000,26915.000000,62408.000000
21263.000000,15245.000000,26974.000000,62465.000000
21277.000000,15289.000000,26995.000000,62500.000000
21281.000000,15314.000000,27047.000000,62485.000000
21324.000000,15332.000000,27071.000000,62512.000000
21346.000000,15372.000000,27116.000000,62529.000000
21366.000000,15336.000000,27137.000000,62532.000000
21384.000000,15395.000000,27195.000000,62528.000000
21388.000000,15409.000000,27203.000000,62582.000000
21441.000000,15504.000000,27352.000000,62617.000000
21473.000000,15512.000000,27402.000000,62662.000000
21520.000000,15543.000000,27410.000000,62669.000000
21524.000000,15561.000000,27434.000000,62665.000000
21610.000000,15561.000000,27468.000000,62662.000000
21659.000000,15571.000000,27467.000000,62676.000000
21669.000000,15579.000000,27443.000000,62684.000000
21689.000000,15574.000000,27481.000000,62669.000000
21687.000000,15565.000000,27466.000000,62688.000000
21728.000000,15593.000000,27459.000000,62717.000000
21707.000000,15560.000000,27514.000000,62667.000000
21734.000000,15553.000000,27461.000000,62683.000000
21675.000000,15560.000000,27442.000000,62676.000000
21705.000000,15600.000000,27412.000000,62665.000000
21685.000000,15566.000000,27491.000000,62705.000000
21708.000000,15605.000000,27460.000000,62674.000000
21711.000000,15558.000000,27450.000000,62656.000000
21701.000000,15573.000000,27457.000000,62674.000000
21682.000000,15576.000000,27444.000000,62672.000000
21703.000000,15558.000000,27468.000000,62686.000000
21679.000000,15581.000000,27424.000000,62687.000000
21703.000000,15561.000000,27454.000000,62676.000000
21679.000000,15576.000000,27452.000000,62675.000000
21719.000000,15558.000000,27388.000000,62666.000000
21681.000000,15541.000000,27418.000000,62677.000000
21656.000000,15546.000000,27446.000000,62681.000000
21689.000000,15572.000000,27421.000000,62654.000000
21680.000000,15512.000000,27429.000000,62652.000000
21654.000000,15571.000000,27374.000000,62642.000000
21705.000000,15570.000000,27361.000000,62676.000000
21683.000000,15537.000000,27358.000000,62637.000000
21682.000000,15526.000000,27367.000000,62623.000000
21705.000000,15539.000000,27344.000000,62644.000000
21666.000000,15539.000000,27363.000000,62619.000000
21681.000000,15519.000000,27332.000000,62607.000000
21671.000000,15480.000000,27347.000000,62637.000000
21628.000000,15489.000000,27340.000000,62616.000000
21635.000000,15524.000000,27325.000000,62587.000000
21639.000000,15533.000000,27357.000000,62623.000000
21609.000000,15495.000000,27291.000000,62624.000000
21635.000000,15493.000000,27306.000000,62616.000000
21645.000000,15512.000000,27270.000000,62580.000000
21613.000000,15475.000000,27253.000000,62565.000000
21608.000000,15417.000000,27255.000000,62591.000000
21626.000000,15438.000000,27236.000000,62569.000000
21614.000000,15446.000000,27242.000000,62577.000000
21603.000000,15421.000000,27226.000000,62576.000000
21605.000000,15442.000000,27234.000000,62550.000000
21592.000000,15411.000000,27182.000000,62552.000000
21558.000000,15377.000000,27173.000000,62574.000000
21587.000000,15401.000000,27133.000000,62511.000000
21573.000000,15396.000000,27120.000000,62550.000000
21569.000000,15379.000000,27133.000000,62548.000000
21549.000000,15380.000000,27125.000000,62574.000000
21548.000000,15388.000000,27110.000000,62553.000000
21525.000000,15382.000000,27105.000000,62525.000000
21513.000000,15347.000000,27073.000000,62482.000000
21530.000000,15346.000000,27076.000000,62519.000000
21469.000000,15353.000000,27080.000000,62503.000000
21472.000000,15406.000000,27075.000000,62469.000000
21484.000000,15321.000000,27027.000000,62498.000000
21488.000000,15323.000000,27034.000000,62493.000000
21498.000000,15319.000000,27019.000000,62465.000000
21499.000000,15304.000000,27026.000000,62474.000000
21447.000000,15314.000000,27012.000000,62436.000000
21445.000000,15311.000000,26992.000000,62467.000000
21459.000000,15287.000000,27023.000000,62479.000000
21456.000000,15268.000000,26985.000000,62465.000000
21450.000000,15303.000000,26976.000000,62433.000000
21438.000000,15293.000000,26942.000000,62428.000000
21423.000000,15271.000000,26935.000000,62431.000000
21428.000000,15272.000000,26946.000000,62434.000000
21418.000000,15286.000000,26928.000000,62438.000000
21428.000000,15260.000000,26928.000000,62440.000000
21417.000000,15278.000000,26913.000000,62414.000000
21411.000000,15298.000000,26913.000000,62406.000000
21405.000000,15253.000000,26875.000000,62393.000000
21389.000000,15226.000000,26890.000000,62415.000000
21385.000000,15235.000000,26854.000000,62406.000000
21385.000000,15250.000000,26855.000000,62399.000000
21339.000000,15213.000000,26856.000000,62384.000000
21386.000000,15249.000000,26843.000000,62385.000000
21374.000000,15227.000000,26835.000000,62398.000000
21315.000000,15217.000000,26802.000000,62385.000000
21341.000000,15230.000000,26812.000000,62384.000000
21309.000000,15185.000000,26789.000000,62364.000000
21364.000000,15177.000000,26772.000000,62366.000000
21258.000000,15194.000000,26795.000000,62345.000000
21304.000000,15166.000000,26801.000000,62366.000000
21318.000000,15223.000000,26819.000000,62390.000000
21320.000000,15206.000000,26829.000000,62395.000000
21301.000000,15215.000000,26847.000000,62393.000000
21311.000000,15210.000000,26783.000000,62368.000000
21318.000000,15214.000000,26845.000000,62386.000000
21323.000000,15220.000000,26866.000000,62404.000000
21363.000000,15226.000000,26851.000000,62391.000000
21333.000000,15229.000000,26878.000000,62401.000000
21397.000000,15222.000000,26887.000000,62414.000000
21386.000000,15263.000000,26899.000000,62432.000000
21361.000000,15294.000000,26914.000000,62426.000000
21359.000000,15313.000000,26972.000000,62469.000000
21375.000000,15313.000000,27014.000000,62484.000000
21405.000000,15326.000000,26999.000000,62501.000000
21353.000000,15345.000000,27090.000000,62482.000000
21485.000000,15352.000000,27099.000000,62524.000000
21470.000000,15409.000000,27129.000000,62560.000000
21500.000000,15442.000000,27204.000000,62583.000000
21529.000000,15457.000000,27271.000000,62613.000000
21552.000000,15571.000000,27373.000000,62652.000000
21547.000000,15588.000000,27460.000000,62671.000000
21608.000000,15599.000000,27474.000000,62684.000000
21618.000000,15618.000000,27489.000000,62690.000000
21721.000000,15615.000000,27490.000000,62702.000000
21726.000000,15618.000000,27532.000000,62719.000000
21786.000000,15617.000000,27515.000000,62724.000000
21777.000000,15646.000000,27547.000000,62705.000000
21794.000000,15620.000000,27542.000000,62716.000000
21778.000000,15626.000000,27481.000000,62690.000000
21795.000000,15626.000000,27521.000000,62687.000000
21793.000000,15633.000000,27503.000000,62689.000000
21792.000000,15605.000000,27548.000000,62709.000000
21805.000000,15617.000000,27508.000000,62725.000000
21831.000000,15621.000000,27486.000000,62738.000000
21839.000000,15621.000000,27510.000000,62718.000000
21833.000000,15640.000000,27498.000000,62721.000000
21826.000000,15626.000000,27516.000000,62681.000000
21808.000000,15627.000000,27509.000000,62734.000000
21805.000000,15634.000000,27507.000000,62710.000000
21848.000000,15605.000000,27492.000000,62674.000000
21805.000000,15603.000000,27481.000000,62687.000000
21792.000000,15588.000000,27481.000000,62727.000000
21795.000000,15610.000000,27462.000000,62671.000000
21838.000000,15622.000000,27488.000000,62701.000000
21782.000000,15621.000000,27464.000000,62699.000000
21786.000000,15596.000000,27492.000000,62674.000000
21781.000000,15615.000000,27466.000000,62676.000000
21777.000000,15621.000000,27453.000000,62657.000000
21758.000000,15580.000000,27422.000000,62665.000000
21782.000000,15610.000000,27450.000000,62688.000000
21801.000000,15619.000000,27438.000000,62676.000000
21779.000000,15603.000000,27438.000000,62656.000000
21790.000000,15592.000000,27446.000000,62663.000000
21742.000000,15570.000000,27407.000000,62658.000000
21777.000000,15579.000000,27383.000000,62644.000000
21771.000000,15573.000000,27422.000000,62667.000000
21782.000000,15581.000000,27402.000000,62666.000000
21761.000000,15585.000000,27398.000000,62666.000000
21767.000000,15577.000000,27386.000000,62644.000000
21775.000000,15570.000000,27381.000000,62652.000000
21782.000000,15581.000000,27411.000000,62658.000000
21733.000000,15577.000000,27368.000000,62642.000000
21740.000000,15560.000000,27341.000000,62615.000000
21729.000000,15581.000000,27333.000000,62619.000000
21706.000000,15571.000000,27320.000000,62656.000000
21747.000000,15550.000000,27332.000000,62632.000000
21738.000000,15558.000000,27330.000000,62620.000000
21734.000000,15543.000000,27298.000000,62640.000000
21733.000000,15533.000000,27321.000000,62605.000000
21750.000000,15548.000000,27320.000000,62596.000000
21727.000000,15545.000000,27305.000000,62592.000000
21723.000000,15489.000000,27267.000000,62581.000000
21713.000000,15492.000000,27249.000000,62617.000000
21726.000000,15502.000000,27248.000000,62579.000000
21722.000000,15514.000000,27236.000000,62595.000000
21676.000000,15478.000000,27242.000000,62590.000000
21696.000000,15437.000000,27191.000000,62577.000000
21684.000000,15516.000000,27220.000000,62580.000000
21657.000000,15448.000000,27201.000000,62568.000000
21684.000000,15415.000000,27143.000000,62574.000000
21639.000000,15446.000000,27205.000000,62563.000000
21658.000000,15456.000000,27162.000000,62561.000000
21655.000000,15443.000000,27136.000000,62537.000000
21648.000000,15389.000000,27132.000000,62534.000000
21640.000000,15387.000000,27136.000000,62513.000000
21622.000000,15401.000000,27117.000000,62519.000000
21609.000000,15424.000000,27111.000000,62496.000000
21589.000000,15438.000000,27076.000000,62510.000000
21581.000000,15414.000000,27105.000000,62518.000000
21585.000000,15367.000000,27089.000000,62535.000000
21593.000000,15404.000000,27078.000000,62516.000000
21592.000000,15357.000000,27078.000000,62512.000000
21543.000000,15373.000000,27032.000000,62465.000000
21573.000000,15384.000000,27055.000000,62458.000000
21527.000000,15407.000000,27033.000000,62486.000000
21526.000000,15348.000000,27005.000000,62462.000000
21579.000000,15366.000000,27010.000000,62498.000000
21537.000000,15352.000000,27015.000000,62498.000000
21588.000000,15372.000000,27015.000000,62470.000000
21555.000000,15356.000000,26962.000000,62477.000000
21515.000000,15331.000000,26996.000000,62448.000000
21524.000000,15343.000000,26960.000000,62440.000000
21543.000000,15329.000000,26953.000000,62458.000000
21504.000000,15296.000000,26906.000000,62450.000000
21513.000000,15295.000000,26920.000000,62426.000000
21536.000000,15320.000000,26922.000000,62447.000000
21503.000000,15294.000000,26913.000000,62398.000000
21455.000000,15275.000000,26873.000000,62392.000000
21465.000000,15269.000000,26879.000000,62402.000000
21455.000000,15282.000000,26859.000000,62406.000000
21466.000000,15249.000000,26857.000000,62374.000000
21429.000000,15269.000000,26845.000000,62381.000000
21446.000000,15237.000000,26873.000000,62397.000000
21409.000000,15257.000000,26809.000000,62396.000000
21419.000000,15260.000000,26866.000000,62398.000000
21403.000000,15255.000000,26839.000000,62381.000000
21414.000000,15250.000000,26850.000000,62371.000000
21431.000000,15240.000000,26821.000000,62396.000000
21435.000000,15268.000000,26821.000000,62402.000000
21384.000000,15239.000000,26872.000000,62407.000000
21398.000000,15221.000000,26825.000000,62400.000000
21394.000000,15212.000000,26867.000000,62366.000000
21372.000000,15263.000000,26848.000000,62372.000000
21390.000000,15282.000000,26909.000000,62434.000000
21352.000000,15268.000000,26916.000000,62435.000000
21415.000000,15292.000000,26920.000000,62428.000000
21391.000000,15308.000000,26927.000000,62443.000000
21416.000000,15311.000000,26928.000000,62416.000000
21428.000000,15315.000000,26935.000000,62448.000000
21453.000000,15349.000000,26967.000000,62463.000000
21437.000000,15382.000000,26973.000000,62459.000000
21478.000000,15362.000000,26995.000000,62456.000000
21496.000000,15407.000000,27109.000000,62513.000000
21508.000000,15451.000000,27167.000000,62560.000000
21527.000000,15495.000000,27218.000000,62599.000000
21525.000000,15506.000000,27219.000000,62593.000000
21601.000000,15575.000000,27374.000000,62666.000000
21612.000000,15620.000000,27419.000000,62713.000000
21669.000000,15611.000000,27486.000000,62673.000000
21671.000000,15665.000000,27515.000000,62696.000000
21753.000000,15679.000000,27532.000000,62791.000000
21810.000000,15697.000000,27595.000000,62758.000000
21848.000000,15677.000000,27582.000000,62762.000000
21830.000000,15695.000000,27598.000000,62740.000000
21884.000000,15693.000000,27568.000000,62736.000000
21889.000000,15712.000000,27622.000000,62749.000000
21898.000000,15702.000000,27591.000000,62737.000000
21908.000000,15719.000000,27611.000000,62753.000000
21908.000000,15692.000000,27601.000000,62759.000000
21938.000000,15709.000000,27576.000000,62759.000000
21898.000000,15697.000000,27603.000000,62736.000000
21908.000000,15686.000000,27570.000000,62749.000000
21925.000000,15708.000000,27570.000000,62752.000000
21877.000000,15711.000000,27553.000000,62773.000000
21909.000000,15681.000000,27577.000000,62764.000000
21886.000000,15680.000000,27555.000000,62729.000000
21861.000000,15685.000000,27563.000000,62762.000000
21907.000000,15658.000000,27565.000000,62716.000000
21866.000000,15701.000000,27549.000000,62737.000000
21865.000000,15659.000000,27547.000000,62715.000000
21899.000000,15688.000000,27551.000000,62712.000000
21877.000000,15683.000000,27555.000000,62715.000000
21895.000000,15649.000000,27534.000000,62723.000000
21875.000000,15673.000000,27521.000000,62715.000000
21879.000000,15680.000000,27536.000000,62715.000000
21883.000000,15659.000000,27544.000000,62734.000000
21888.000000,15677.000000,27530.000000,62728.000000
21849.000000,15648.000000,27505.000000,62711.000000
21870.000000,15678.000000,27541.000000,62695.000000
21862.000000,15671.000000,27467.000000,62726.000000
21867.000000,15624.000000,27492.000000,62721.000000
21894.000000,15664.000000,27523.000000,62703.000000
21874.000000,15665.000000,27503.000000,62725.000000
21866.000000,15644.000000,27470.000000,62690.000000
21843.000000,15645.000000,27514.000000,62706.000000
21833.000000,15638.000000,27450.000000,62704.000000
21844.000000,15661.000000,27469.000000,62676.000000
21855.000000,15637.000000,27453.000000,62661.000000
21839.000000,15646.000000,27462.000000,62675.000000
21843.000000,15650.000000,27478.000000,62686.000000
21818.000000,15621.000000,27451.000000,62702.000000
21834.000000,15644.000000,27470.000000,62721.000000
21824.000000,15638.000000,27435.000000,62690.000000
21817.000000,15631.000000,27426.000000,62682.000000
21827.000000,15621.000000,27443.000000,62685.000000
21815.000000,15634.000000,27419.000000,62674.000000
21830.000000,15617.000000,27432.000000,62682.000000
21784.000000,15608.000000,27418.000000,62628.000000
21829.000000,15592.000000,27377.000000,62654.000000
21806.000000,15595.000000,27362.000000,62613.000000
21784.000000,15606.000000,27359.000000,62650.000000
21804.000000,15554.000000,27360.000000,62625.000000
21766.000000,15584.000000,27346.000000,62627.000000
21755.000000,15604.000000,27336.000000,62633.000000
21734.000000,15539.000000,27309.000000,62627.000000
21739.000000,15562.000000,27327.000000,62628.000000
21705.000000,15551.000000,27312.000000,62614.000000
21736.000000,15573.000000,27280.000000,62625.000000
21730.000000,15539.000000,27272.000000,62583.000000
21710.000000,15553.000000,27253.000000,62588.000000
21700.000000,15516.000000,27277.000000,62562.000000
21731.000000,15516.000000,27255.000000,62574.000000
21699.000000,15471.000000,27214.000000,62523.000000
21725.000000,15506.000000,27188.000000,62586.000000
21725.000000,15491.000000,27201.000000,62547.000000
21704.000000,15506.000000,27181.000000,62542.000000
21661.000000,15474.000000,27209.000000,62546.000000
21668.000000,15502.000000,27168.000000,62557.000000
21661.000000,15478.000000,27135.000000,62556.000000
21676.000000,15487.000000,27172.000000,62533.000000
21682.000000,15458.000000,27129.000000,62537.000000
21659.000000,15467.000000,27113.000000,62528.000000
21640.000000,15454.000000,27120.000000,62510.000000
21638.000000,15415.000000,27084.000000,62495.000000
21621.000000,15458.000000,27089.000000,62529.000000
21633.000000,15468.000000,27071.000000,62503.000000
21614.000000,15463.000000,27090.000000,62515.000000
21619.000000,15419.000000,27061.000000,62485.000000
21581.000000,15380.000000,27052.000000,62474.000000
21605.000000,15377.000000,27021.000000,62456.000000
21594.000000,15378.000000,27040.000000,62496.000000
21594.000000,15351.000000,26980.000000,62473.000000
21572.000000,15355.000000,26968.000000,62472.000000
21574.000000,15309.000000,26972.000000,62451.000000
21568.000000,15340.000000,26948.000000,62437.000000
21531.000000,15320.000000,26943.000000,62402.000000
21526.000000,15351.000000,26913.000000,62407.000000
21473.000000,15305.000000,26900.000000,62404.000000
21503.000000,15302.000000,26888.000000,62381.000000
21511.000000,15314.000000,26866.000000,62407.000000
21473.000000,15310.000000,26900.000000,62402.000000
21445.000000,15292.000000,26870.000000,62401.000000
21438.000000,15294.000000,26852.000000,62393.000000
21478.000000,15311.000000,26871.000000,62387.000000
21461.000000,15305.000000,26863.000000,62399.000000
21439.000000,15301.000000,26900.000000,62417.000000
21487.000000,15299.000000,26879.000000,62410.000000
21455.000000,15316.000000,26891.000000,62395.000000
21512.000000,15325.000000,26908.000000,62390.000000
21484.000000,15321.000000,26897.000000,62405.000000
21499.000000,15300.000000,26885.000000,62440.000000
21483.000000,15331.000000,26961.000000,62415.000000
21514.000000,15351.000000,26996.000000,62452.000000
21492.000000,15434.000000,26982.000000,62443.000000
21464.000000,15410.000000,27028.000000,62469.000000
21513.000000,15376.000000,27040.000000,62488.000000
21523.000000,15418.000000,27060.000000,62492.000000
21548.000000,15445.000000,27074.000000,62518.000000
21569.000000,15453.000000,27128.000000,62546.000000
21548.000000,15516.000000,27188.000000,62545.000000
21609.000000,15507.000000,27207.000000,62570.000000
21593.000000,15538.000000,27177.000000,62585.000000
21637.000000,15549.000000,27258.000000,62596.000000
21639.000000,15613.000000,27380.000000,62628.000000
21661.000000,15619.000000,27408.000000,62678.000000
21719.000000,15649.000000,27437.000000,62689.000000
21711.000000,15676.000000,27534.000000,62722.000000
21846.000000,15692.000000,27554.000000,62735.000000
21854.000000,15728.000000,27592.000000,62737.000000
21848.000000,15722.000000,27621.000000,62750.000000
21886.000000,15696.000000,27616.000000,62742.000000
21906.000000,15715.000000,27603.000000,62757.000000
21960.000000,15728.000000,27624.000000,62746.000000
21984.000000,15709.000000,27625.000000,62770.000000
21952.000000,15732.000000,27602.000000,62733.000000
21965.000000,15717.000000,27613.000000,62749.000000
21968.000000,15734.000000,27608.000000,62764.000000
21980.000000,15721.000000,27619.000000,62740.000000
21981.000000,15728.000000,27594.000000,62746.000000
21951.000000,15710.000000,27586.000000,62727.000000
21918.000000,15721.000000,27595.000000,62746.000000
21956.000000,15747.000000,27587.000000,62726.000000
21984.000000,15709.000000,27602.000000,62731.000000
21950.000000,15717.000000,27563.000000,62754.000000
21940.000000,15711.000000,27592.000000,62756.000000
21941.000000,15711.000000,27576.000000,62747.000000
21922.000000,15701.000000,27579.000000,62756.000000
21963.000000,15720.000000,27577.000000,62738.000000
21958.000000,15709.000000,27578.000000,62734.000000
21935.000000,15707.000000,27553.000000,62726.000000
21935.000000,15701.000000,27576.000000,62738.000000
21918.000000,15687.000000,27553.000000,62748.000000
21947.000000,15720.000000,27561.000000,62738.000000
21911.000000,15726.000000,27572.000000,62717.000000
21963.000000,15699.000000,27559.000000,62713.000000
21939.000000,15686.000000,27542.000000,62705.000000
21940.000000,15689.000000,27495.000000,62731.000000
21923.000000,15645.000000,27516.000000,62684.000000
21947.000000,15696.000000,27502.000000,62694.000000
21955.000000,15702.000000,27512.000000,62719.000000
21912.000000,15689.000000,27529.000000,62692.000000
21952.000000,15655.000000,27484.000000,62703.000000
21912.000000,15673.000000,27475.000000,62696.000000
21909.000000,15666.000000,27447.000000,62661.000000
21883.000000,15659.000000,27447.000000,62672.000000
21887.000000,15662.000000,27415.000000,62680.000000
21886.000000,15658.000000,27451.000000,62686.000000
21910.000000,15655.000000,27418.000000,62681.000000
21908.000000,15655.000000,27428.000000,62695.000000
21909.000000,15635.000000,27428.000000,62686.000000
21871.000000,15636.000000,27411.000000,62660.000000
21885.000000,15644.000000,27391.000000,62697.000000
21865.000000,15640.000000,27391.000000,62670.000000
21854.000000,15615.000000,27380.000000,62661.000000
21860.000000,15625.000000,27351.000000,62618.000000
21858.000000,15604.000000,27353.000000,62652.000000
21855.000000,15600.000000,27344.000000,62643.000000
21856.000000,15601.000000,27301.000000,62631.000000
21828.000000,15572.000000,27348.000000,62638.000000
21835.000000,15606.000000,27304.000000,62604.000000
21850.000000,15599.000000,27288.000000,62611.000000
21812.000000,15608.000000,27260.000000,62622.000000
21800.000000,15583.000000,27288.000000,62590.000000
21780.000000,15591.000000,27288.000000,62611.000000
21779.000000,15539.000000,27263.000000,62585.000000
21786.000000,15547.000000,27219.000000,62585.000000
21764.000000,15549.000000,27206.000000,62584.000000
21764.000000,15555.000000,27247.000000,62561.000000
21754.000000,15557.000000,27215.000000,62571.000000
21755.000000,15522.000000,27187.000000,62542.000000
21736.000000,15538.000000,27184.000000,62569.000000
21737.000000,15490.000000,27164.000000,62584.000000
21743.000000,15534.000000,27144.000000,62541.000000
21715.000000,15507.000000,27118.000000,62536.000000
21697.000000,15508.000000,27125.000000,62525.000000
21727.000000,15481.000000,27078.000000,62509.000000
21703.000000,15465.000000,27081.000000,62501.000000
21717.000000,15470.000000,27066.000000,62508.000000
21718.000000,15460.000000,27082.000000,62490.000000
21673.000000,15464.000000,27052.000000,62534.000000
21707.000000,15423.000000,27045.000000,62532.000000
21683.000000,15432.000000,27029.000000,62506.000000
21653.000000,15451.000000,27025.000000,62469.000000
21685.000000,15412.000000,27018.000000,62480.000000
21648.000000,15440.000000,26985.000000,62465.000000
21637.000000,15439.000000,26972.000000,62465.000000
21649.000000,15381.000000,26948.000000,62463.000000
21648.000000,15377.000000,26971.000000,62442.000000
21639.000000,15405.000000,26931.000000,62436.000000
21602.000000,15390.000000,26919.000000,62454.000000
21611.000000,15390.000000,26938.000000,62423.000000
21620.000000,15371.000000,26928.000000,62425.000000
21597.000000,15389.000000,26922.000000,62428.000000
21578.000000,15357.000000,26917.000000,62410.000000
21578.000000,15386.000000,26943.000000,62471.000000
21604.000000,15394.000000,26953.000000,62448.000000
21606.000000,15394.000000,26930.000000,62432.000000
21575.000000,15363.000000,26947.000000,62435.000000
21554.000000,15377.000000,26949.000000,62462.000000
21599.000000,15394.000000,26962.000000,62443.000000
21593.000000,15398.000000,26981.000000,62464.000000
21599.000000,15415.000000,27020.000000,62474.000000
21609.000000,15413.000000,27031.000000,62478.000000
21596.000000,15461.000000,27014.000000,62492.000000
21605.000000,15444.000000,27062.000000,62467.000000
21605.000000,15447.000000,27046.000000,62499.000000
21651.000000,15480.000000,27046.000000,62506.000000
21655.000000,15496.000000,27108.000000,62528.000000
21663.000000,15502.000000,27142.000000,62552.000000
21661.000000,15499.000000,27127.000000,62554.000000
21667.000000,15532.000000,27166.000000,62556.000000
21648.000000,15538.000000,27208.000000,62568.000000
21708.000000,15568.000000,27247.000000,62608.000000
21714.000000,15613.000000,27258.000000,62607.000000
21739.000000,15608.000000,27313.000000,62601.000000
21766.000000,15624.000000,27349.000000,62647.000000
21779.000000,15602.000000,27391.000000,62652.000000
21839.000000,15663.000000,27441.000000,62699.000000
21834.000000,15672.000000,27546.000000,62721.000000
21878.000000,15740.000000,27622.000000,62769.000000
21893.000000,15784.000000,27632.000000,62786.000000
21905.000000,15767.000000,27652.000000,62792.000000
21949.000000,15771.000000,27657.000000,62802.000000
22044.000000,15761.000000,27667.000000,62778.000000
22034.000000,15797.000000,27663.000000,62753.000000
22079.000000,15790.000000,27656.000000,62768.000000
22074.000000,15780.000000,27651.000000,62805.000000
22033.000000,15781.000000,27661.000000,62800.000000
22081.000000,15763.000000,27629.000000,62793.000000
22077.000000,15772.000000,27629.000000,62788.000000
22048.000000,15776.000000,27632.000000,62765.000000
22038.000000,15775.000000,27638.000000,62791.000000
22049.000000,15790.000000,27654.000000,62781.000000
22040.000000,15760.000000,27622.000000,62773.000000
22068.000000,15765.000000,27614.000000,62770.000000
22068.000000,15758.000000,27601.000000,62759.000000
22065.000000,15766.000000,27617.000000,62767.000000
22053.000000,15763.000000,27649.000000,62770.000000
22050.000000,15751.000000,27587.000000,62727.000000
22063.000000,15762.000000,27589.000000,62772.000000
22007.000000,15758.000000,27610.000000,62744.000000
22035.000000,15766.000000,27584.000000,62759.000000
22014.000000,15766.000000,27603.000000,62742.000000
22043.000000,15736.000000,27564.000000,62768.000000
22006.000000,15770.000000,27560.000000,62754.000000
22053.000000,15754.000000,27566.000000,62741.000000
22034.000000,15772.000000,27545.000000,62741.000000
22027.000000,15764.000000,27545.000000,62754.000000
21994.000000,15735.000000,27542.000000,62744.000000
21987.000000,15739.000000,27543.000000,62757.000000
22009.000000,15736.000000,27495.000000,62713.000000
21980.000000,15691.000000,27529.000000,62696.000000
21985.000000,15691.000000,27453.000000,62732.000000
21998.000000,15687.000000,27481.000000,62686.000000
21972.000000,15701.000000,27467.000000,62675.000000
21990.000000,15685.000000,27400.000000,62676.000000
21991.000000,15698.000000,27398.000000,62663.000000
21959.000000,15683.000000,27413.000000,62659.000000
21938.000000,15669.000000,27358.000000,62648.000000
21898.000000,15684.000000,27362.000000,62662.000000
21909.000000,15653.000000,27329.000000,62648.000000
21920.000000,15651.000000,27333.000000,62614.000000
21899.000000,15638.000000,27336.000000,62635.000000
21882.000000,15617.000000,27309.000000,62656.000000
21865.000000,15603.000000,27310.000000,62621.000000
21911.000000,15612.000000,27295.000000,62596.000000
21864.000000,15610.000000,27268.000000,62591.000000
21865.000000,15614.000000,27255.000000,62585.000000
21839.000000,15583.000000,27267.000000,62602.000000
21857.000000,15592.000000,27257.000000,62592.000000
21827.000000,15599.000000,27227.000000,62596.000000
21825.000000,15565.000000,27195.000000,62574.000000
21821.000000,15568.000000,27210.000000,62587.000000
21814.000000,15557.000000,27191.000000,62573.000000
21844.000000,15584.000000,27181.000000,62570.000000
21807.000000,15524.000000,27140.000000,62545.000000
21769.000000,15500.000000,27142.000000,62532.000000
21761.000000,15545.000000,27129.000000,62538.000000
21771.000000,15517.000000,27069.000000,62487.000000
21762.000000,15497.000000,27084.000000,62512.000000
21743.000000,15495.000000,27065.000000,62507.000000
21721.000000,15483.000000,27043.000000,62493.000000
21730.000000,15511.000000,27030.000000,62487.000000
21719.000000,15444.000000,27014.000000,62492.000000
21701.000000,15466.000000,27005.000000,62477.000000
21721.000000,15421.000000,26973.000000,62456.000000
21686.000000,15465.000000,26975.000000,62430.000000
21683.000000,15415.000000,26927.000000,62440.000000
21684.000000,15424.000000,26905.000000,62433.000000
21669.000000,15402.000000,26925.000000,62458.000000
21628.000000,15425.000000,26932.000000,62417.000000
21634.000000,15395.000000,26917.000000,62437.000000
21652.000000,15413.000000,26929.000000,62456.000000
21607.000000,15423.000000,26931.000000,62442.000000
21647.000000,15351.000000,26928.000000,62454.000000
21644.000000,15417.000000,26954.000000,62451.000000
21630.000000,15457.000000,26986.000000,62470.000000
21610.000000,15469.000000,26981.000000,62454.000000
21646.000000,15468.000000,26972.000000,62473.000000
21655.000000,15469.000000,27037.000000,62485.000000
21667.000000,15481.000000,27008.000000,62468.000000
21701.000000,15461.000000,27023.000000,62493.000000
21702.000000,15481.000000,27051.000000,62549.000000
21697.000000,15547.000000,27185.000000,62573.000000
21690.000000,15569.000000,27224.000000,62595.000000
21731.000000,15621.000000,27276.000000,62605.000000
21709.000000,15608.000000,27281.000000,62624.000000
21795.000000,15640.000000,27337.000000,62636.000000
21805.000000,15652.000000,27366.000000,62626.000000
21844.000000,15718.000000,27513.000000,62734.000000
21869.000000,15735.000000,27514.000000,62747.000000
21894.000000,15751.000000,27592.000000,62783.000000
21931.000000,15770.000000,27635.000000,62807.000000
22028.000000,15806.000000,27642.000000,62815.000000
22022.000000,15817.000000,27681.000000,62780.000000
22072.000000,15842.000000,27694.000000,62779.000000
22088.000000,15810.000000,27677.000000,62808.000000
22131.000000,15859.000000,27694.000000,62830.000000
22155.000000,15846.000000,27702.000000,62785.000000
22132.000000,15817.000000,27681.000000,62808.000000
22153.000000,15845.000000,27681.000000,62827.000000
22150.000000,15836.000000,27688.000000,62813.000000
22159.000000,15844.000000,27686.000000,62822.000000
22204.000000,15820.000000,27688.000000,62792.000000
22172.000000,15834.000000,27686.000000,62812.000000
22152.000000,15819.000000,27644.000000,62804.000000
22199.000000,15820.000000,27643.000000,62793.000000
22151.000000,15838.000000,27653.000000,62770.000000
22146.000000,15813.000000,27653.000000,62783.000000
22174.000000,15838.000000,27667.000000,62786.000000
22154.000000,15807.000000,27640.000000,62795.000000
22179.000000,15830.000000,27659.000000,62790.000000
22147.000000,15793.000000,27636.000000,62771.000000
22141.000000,15803.000000,27627.000000,62772.000000
22121.000000,15793.000000,27628.000000,62775.000000
22152.000000,15795.000000,27605.000000,62777.000000
22134.000000,15810.000000,27636.000000,62761.000000
22148.000000,15809.000000,27606.000000,62774.000000
22135.000000,15779.000000,27637.000000,62793.000000
22110.000000,15784.000000,27607.000000,62790.000000
22118.000000,15838.000000,27601.000000,62759.000000
22098.000000,15767.000000,27610.000000,62757.000000
22118.000000,15817.000000,27607.000000,62755.000000
22115.000000,15773.000000,27586.000000,62741.000000
22108.000000,15749.000000,27571.000000,62750.000000
22100.000000,15781.000000,27592.000000,62756.000000
22082.000000,15759.000000,27555.000000,62753.000000
22114.000000,15792.000000,27570.000000,62771.000000
22078.000000,15764.000000,27543.000000,62734.000000
22099.000000,15751.000000,27536.000000,62715.000000
22078.000000,15751.000000,27508.000000,62711.000000
22091.000000,15727.000000,27501.000000,62732.000000
22073.000000,15748.000000,27509.000000,62744.000000
22096.000000,15789.000000,27512.000000,62718.000000
22085.000000,15735.000000,27472.000000,62716.000000
22074.000000,15730.000000,27442.000000,62700.000000
22049.000000,15731.000000,27432.000000,62688.000000
22034.000000,15717.000000,27424.000000,62701.000000
22039.000000,15720.000000,27427.000000,62697.000000
22071.000000,15713.000000,27413.000000,62706.000000
22028.000000,15672.000000,27358.000000,62650.000000
22007.000000,15676.000000,27390.000000,62669.000000
22040.000000,15696.000000,27351.000000,62647.000000
22031.000000,15686.000000,27370.000000,62643.000000
22011.000000,15670.000000,27274.000000,62652.000000
21997.000000,15654.000000,27296.000000,62617.000000
21974.000000,15641.000000,27282.000000,62631.000000
21952.000000,15633.000000,27265.000000,62630.000000
21951.000000,15643.000000,27270.000000,62595.000000
21943.000000,15637.000000,27280.000000,62601.000000
21952.000000,15625.000000,27243.000000,62597.000000
21931.000000,15623.000000,27265.000000,62608.000000
21920.000000,15630.000000,27230.000000,62617.000000
21936.000000,15583.000000,27209.000000,62570.000000
21943.000000,15617.000000,27188.000000,62572.000000
21914.000000,15622.000000,27163.000000,62587.000000
21903.000000,15605.000000,27170.000000,62557.000000
21929.000000,15599.000000,27154.000000,62566.000000
21917.000000,15596.000000,27142.000000,62537.000000
21903.000000,15579.000000,27117.000000,62527.000000
21892.000000,15592.000000,27120.000000,62507.000000
21868.000000,15545.000000,27088.000000,62524.000000
21849.000000,15565.000000,27094.000000,62554.000000
21866.000000,15559.000000,27061.000000,62510.000000
21871.000000,15563.000000,27057.000000,62489.000000
21834.000000,15513.000000,27060.000000,62515.000000
21832.000000,15503.000000,27045.000000,62523.000000
21845.000000,15525.000000,27038.000000,62497.000000
21833.000000,15536.000000,27018.000000,62478.000000
21841.000000,15526.000000,27061.000000,62491.000000
21828.000000,15520.000000,27024.000000,62490.000000
21856.000000,15510.000000,27025.000000,62516.000000
21827.000000,15516.000000,27013.000000,62513.000000
21805.000000,15539.000000,27016.000000,62490.000000
21804.000000,15490.000000,26979.000000,62507.000000
21828.000000,15497.000000,27010.000000,62485.000000
21799.000000,15481.000000,26995.000000,62523.000000
21810.000000,15505.000000,26968.000000,62461.000000
21808.000000,15516.000000,26954.000000,62475.000000
21800.000000,15462.000000,26982.000000,62464.000000
21797.000000,15477.000000,26947.000000,62452.000000
21751.000000,15421.000000,26959.000000,62436.000000
21765.000000,15472.000000,26898.000000,62420.000000
21775.000000,15450.000000,26913.000000,62428.000000
21769.000000,15457.000000,26903.000000,62446.000000
21717.000000,15466.000000,26947.000000,62442.000000
21707.000000,15431.000000,26913.000000,62420.000000
21739.000000,15394.000000,26872.000000,62447.000000
21691.000000,15428.000000,26904.000000,62453.000000
21701.000000,15374.000000,26912.000000,62433.000000
21720.000000,15416.000000,26906.000000,62433.000000
21714.000000,15431.000000,26920.000000,62438.000000
21708.000000,15400.000000,26898.000000,62433.000000
21713.000000,15413.000000,26910.000000,62444.000000
21724.000000,15448.000000,26894.000000,62426.000000
21661.000000,15407.000000,26910.000000,62470.000000
21694.000000,15419.000000,26913.000000,62454.000000
21728.000000,15460.000000,26942.000000,62463.000000
21712.000000,15439.000000,26913.000000,62437.000000
21687.000000,15443.000000,26939.000000,62447.000000
21725.000000,15444.000000,26992.000000,62473.000000
21706.000000,15456.000000,26987.000000,62481.000000
21754.000000,15516.000000,27002.000000,62494.000000
21718.000000,15510.000000,27002.000000,62493.000000
21746.000000,15513.000000,27030.000000,62512.000000
21739.000000,15546.000000,27100.000000,62543.000000
21764.000000,15576.000000,27129.000000,62543.000000
21812.000000,15558.000000,27141.000000,62557.000000
21782.000000,15627.000000,27237.000000,62641.000000
21816.000000,15645.000000,27248.000000,62655.000000
21845.000000,15630.000000,27341.000000,62657.000000
21849.000000,15664.000000,27346.000000,62676.000000
21897.000000,15693.000000,27380.000000,62677.000000
21935.000000,15710.000000,27429.000000,62723.000000
21973.000000,15770.000000,27510.000000,62728.000000
21988.000000,15822.000000,27680.000000,62813.000000
22039.000000,15832.000000,27699.000000,62818.000000
22032.000000,15881.000000,27768.000000,62867.000000
22092.000000,15934.000000,27768.000000,62837.000000
22205.000000,15904.000000,27771.000000,62878.000000
22231.000000,15887.000000,27726.000000,62835.000000
22260.000000,15893.000000,27746.000000,62841.000000
22286.000000,15853.000000,27725.000000,62844.000000
22252.000000,15881.000000,27745.000000,62862.000000
22252.000000,15878.000000,27719.000000,62833.000000
22233.000000,15830.000000,27739.000000,62853.000000
22206.000000,15855.000000,27722.000000,62835.000000
22232.000000,15860.000000,27699.000000,62827.000000
22220.000000,15831.000000,27707.000000,62832.000000
22206.000000,15857.000000,27697.000000,62843.000000
22217.000000,15852.000000,27692.000000,62827.000000
22200.000000,15851.000000,27672.000000,62776.000000
22217.000000,15812.000000,27648.000000,62820.000000
22196.000000,15831.000000,27638.000000,62809.000000
22212.000000,15826.000000,27649.000000,62789.000000
22233.000000,15831.000000,27630.000000,62794.000000
22189.000000,15799.000000,27613.000000,62785.000000
22183.000000,15804.000000,27607.000000,62774.000000
22192.000000,15811.000000,27611.000000,62790.000000
22159.000000,15814.000000,27597.000000,62769.000000
22161.000000,15809.000000,27577.000000,62767.000000
22170.000000,15791.000000,27558.000000,62772.000000
22143.000000,15802.000000,27594.000000,62788.000000
22143.000000,15796.000000,27572.000000,62753.000000
22157.000000,15802.000000,27547.000000,62737.000000
22178.000000,15760.000000,27542.000000,62748.000000
22159.000000,15765.000000,27533.000000,62772.000000
22127.000000,15760.000000,27533.000000,62760.000000
22134.000000,15768.000000,27516.000000,62757.000000
22130.000000,15742.000000,27461.000000,62702.000000
22110.000000,15726.000000,27451.000000,62730.000000
22117.000000,15717.000000,27498.000000,62713.000000
22106.000000,15733.000000,27463.000000,62681.000000
22075.000000,15729.000000,27464.000000,62695.000000
22114.000000,15684.000000,27399.000000,62699.000000
22057.000000,15697.000000,27426.000000,62705.000000
22074.000000,15711.000000,27428.000000,62725.000000
22068.000000,15704.000000,27407.000000,62692.000000
22054.000000,15700.000000,27374.000000,62722.000000
22029.000000,15673.000000,27378.000000,62646.000000
22026.000000,15686.000000,27375.000000,62680.000000
22012.000000,15673.000000,27343.000000,62622.000000
22003.000000,15665.000000,27351.000000,62664.000000
22000.000000,15668.000000,27328.000000,62645.000000
21992.000000,15664.000000,27296.000000,62618.000000
21952.000000,15654.000000,27292.000000,62648.000000
21920.000000,15663.000000,27311.000000,62605.000000
21924.000000,15650.000000,27247.000000,62602.000000
21951.000000,15623.000000,27302.000000,62626.000000
21942.000000,15612.000000,27255.000000,62605.000000
21925.000000,15641.000000,27286.000000,62623.000000
21945.000000,15609.000000,27231.000000,62602.000000
21952.000000,15605.000000,27267.000000,62586.000000
21893.000000,15634.000000,27221.000000,62601.000000
21900.000000,15617.000000,27200.000000,62556.000000
21925.000000,15605.000000,27210.000000,62576.000000
21885.000000,15603.000000,27158.000000,62608.000000
21889.000000,15581.000000,27170.000000,62586.000000
21888.000000,15581.000000,27163.000000,62558.000000
21880.000000,15586.000000,27208.000000,62578.000000
21856.000000,15588.000000,27126.000000,62552.000000
21838.000000,15583.000000,27191.000000,62561.000000
21858.000000,15564.000000,27134.000000,62547.000000
21872.000000,15603.000000,27138.000000,62580.000000
21854.000000,15561.000000,27131.000000,62528.000000
21848.000000,15561.000000,27136.000000,62538.000000
21829.000000,15552.000000,27121.000000,62528.000000
21831.000000,15575.000000,27100.000000,62568.000000
21810.000000,15564.000000,27120.000000,62547.000000
21828.000000,15560.000000,27114.000000,62523.000000
21817.000000,15545.000000,27085.000000,62559.000000
21801.000000,15522.000000,27075.000000,62527.000000
21805.000000,15514.000000,27070.000000,62542.000000
21813.000000,15525.000000,27053.000000,62513.000000
21814.000000,15511.000000,27052.000000,62495.000000
21783.000000,15494.000000,27037.000000,62486.000000
21773.000000,15461.000000,27024.000000,62490.000000
21740.000000,15485.000000,26996.000000,62512.000000
21739.000000,15486.000000,27019.000000,62493.000000
21740.000000,15433.000000,27015.000000,62517.000000
21733.000000,15511.000000,26989.000000,62455.000000
21723.000000,15478.000000,27009.000000,62477.000000
21719.000000,15494.000000,26993.000000,62495.000000
21681.000000,15498.000000,27013.000000,62453.000000
21724.000000,15462.000000,27008.000000,62478.000000
21725.000000,15480.000000,26997.000000,62475.000000
21654.000000,15465.000000,27005.000000,62481.000000
21701.000000,15480.000000,27034.000000,62491.000000
21701.000000,15484.000000,27003.000000,62502.000000
21699.000000,15481.000000,27008.000000,62507.000000
21698.000000,15485.000000,27013.000000,62473.000000
21703.000000,15515.000000,27011.000000,62499.000000
21709.000000,15503.000000,27028.000000,62485.000000
21693.000000,15478.000000,27028.000000,62500.000000
21704.000000,15505.000000,27076.000000,62509.000000
21726.000000,15509.000000,27074.000000,62501.000000
21723.000000,15555.000000,27054.000000,62544.000000
21746.000000,15497.000000,27067.000000,62523.000000
21751.000000,15510.000000,27124.000000,62533.000000
21776.000000,15546.000000,27139.000000,62548.000000
21787.000000,15586.000000,27180.000000,62575.000000
21760.000000,15603.000000,27236.000000,62592.000000
21781.000000,15618.000000,27251.000000,62584.000000
21811.000000,15631.000000,27259.000000,62634.000000
21836.000000,15635.000000,27298.000000,62661.000000
21872.000000,15637.000000,27332.000000,62635.000000
21914.000000,15688.000000,27369.000000,62688.000000
21903.000000,15733.000000,27452.000000,62709.000000
21931.000000,15786.000000,27587.000000,62776.000000
21977.000000,15815.000000,27649.000000,62828.000000
21977.000000,15810.000000,27715.000000,62824.000000
21995.000000,15867.000000,27716.000000,62850.000000
22098.000000,15906.000000,27715.000000,62859.000000
22160.000000,15873.000000,27791.000000,62840.000000
22202.000000,15912.000000,27759.000000,62841.000000
22219.000000,15899.000000,27762.000000,62865.000000
22229.000000,15888.000000,27773.000000,62863.000000
22243.000000,15877.000000,27781.000000,62886.000000
22254.000000,15908.000000,27774.000000,62869.000000
22263.000000,15916.000000,27776.000000,62855.000000
22248.000000,15880.000000,27761.000000,62851.000000
22258.000000,15883.000000,27776.000000,62835.000000
22226.000000,15890.000000,27760.000000,62873.000000
22221.000000,15870.000000,27765.000000,62842.000000
22212.000000,15867.000000,27728.000000,62843.000000
22245.000000,15835.000000,27717.000000,62837.000000
22208.000000,15863.000000,27707.000000,62810.000000
22233.000000,15883.000000,27744.000000,62823.000000
22229.000000,15856.000000,27732.000000,62835.000000
22226.000000,15851.000000,27731.000000,62830.000000
22235.000000,15814.000000,27700.000000,62809.000000
22206.000000,15815.000000,27681.000000,62799.000000
22208.000000,15812.000000,27714.000000,62807.000000
22201.000000,15835.000000,27653.000000,62775.000000
22184.000000,15825.000000,27677.000000,62811.000000
22199.000000,15827.000000,27657.000000,62783.000000
22165.000000,15812.000000,27653.000000,62746.000000
22155.000000,15807.000000,27637.000000,62781.000000
22144.000000,15798.000000,27632.000000,62799.000000
22146.000000,15793.000000,27644.000000,62786.000000
22141.000000,15777.000000,27633.000000,62787.000000
22128.000000,15767.000000,27621.000000,62759.000000
22128.000000,15782.000000,27585.000000,62757.000000
22136.000000,15786.000000,27570.000000,62737.000000
22108.000000,15762.000000,27569.000000,62754.000000
22111.000000,15760.000000,27568.000000,62781.000000
22113.000000,15737.000000,27473.000000,62752.000000
22104.000000,15733.000000,27508.000000,62754.000000
22083.000000,15736.000000,27541.000000,62730.000000
22123.000000,15742.000000,27507.000000,62712.000000
22038.000000,15724.000000,27478.000000,62713.000000
22056.000000,15716.000000,27490.000000,62714.000000
22041.000000,15710.000000,27452.000000,62737.000000
22005.000000,15717.000000,27440.000000,62688.000000
22028.000000,15703.000000,27411.000000,62696.000000
22001.000000,15691.000000,27429.000000,62667.000000
21996.000000,15708.000000,27400.000000,62663.000000
22000.000000,15679.000000,27414.000000,62678.000000
21990.000000,15663.000000,27399.000000,62658.000000
21984.000000,15680.000000,27378.000000,62651.000000
21949.000000,15649.000000,27372.000000,62676.000000
21948.000000,15670.000000,27400.000000,62676.000000
21981.000000,15677.000000,27390.000000,62652.000000
21966.000000,15649.000000,27336.000000,62641.000000
21965.000000,15662.000000,27318.000000,62633.000000
21947.000000,15627.000000,27298.000000,62628.000000
21934.000000,15635.000000,27314.000000,62611.000000
21932.000000,15645.000000,27275.000000,62625.000000
21917.000000,15646.000000,27287.000000,62613.000000
21877.000000,15634.000000,27267.000000,62626.000000
21881.000000,15630.000000,27252.000000,62599.000000
21874.000000,15614.000000,27241.000000,62594.000000
21876.000000,15629.000000,27223.000000,62612.000000
21869.000000,15598.000000,27243.000000,62596.000000
21883.000000,15659.000000,27227.000000,62574.000000
21866.000000,15622.000000,27262.000000,62593.000000
21870.000000,15587.000000,27210.000000,62562.000000
21832.000000,15587.000000,27193.000000,62579.000000
21861.000000,15551.000000,27210.000000,62570.000000
21828.000000,15573.000000,27201.000000,62581.000000
21816.000000,15590.000000,27200.000000,62550.000000
21824.000000,15606.000000,27175.000000,62569.000000
21810.000000,15583.000000,27169.000000,62588.000000
21832.000000,15593.000000,27165.000000,62565.000000
21827.000000,15566.000000,27168.000000,62539.000000
21807.000000,15578.000000,27141.000000,62539.000000
21788.000000,15553.000000,27135.000000,62539.000000
21799.000000,15551.000000,27124.000000,62522.000000
21808.000000,15559.000000,27122.000000,62528.000000
21778.000000,15549.000000,27134.000000,62523.000000
21767.000000,15546.000000,27102.000000,62522.000000
21758.000000,15551.000000,27070.000000,62519.000000
21746.000000,15518.000000,27084.000000,62520.000000
21777.000000,15541.000000,27052.000000,62478.000000
21758.000000,15543.000000,27064.000000,62497.000000
21750.000000,15556.000000,27091.000000,62526.000000
21740.000000,15532.000000,27067.000000,62516.000000
21741.000000,15549.000000,27063.000000,62510.000000
21690.000000,15547.000000,27077.000000,62528.000000
21718.000000,15570.000000,27077.000000,62521.000000
21732.000000,15540.000000,27046.000000,62521.000000
21735.000000,15513.000000,27065.000000,62528.000000
21721.000000,15544.000000,27067.000000,62533.000000
21732.000000,15589.000000,27112.000000,62498.000000
21709.000000,15535.000000,27118.000000,62533.000000
21728.000000,15578.000000,27122.000000,62531.000000
21740.000000,15606.000000,27130.000000,62582.000000
21777.000000,15601.000000,27157.000000,62597.000000
21763.000000,15593.000000,27196.000000,62582.000000
21756.000000,15603.000000,27209.000000,62592.000000
21782.000000,15641.000000,27228.000000,62589.000000
21804.000000,15625.000000,27209.000000,62592.000000
21802.000000,15613.000000,27260.000000,62630.000000
21800.000000,15643.000000,27249.000000,62663.000000
21820.000000,15641.000000,27277.000000,62604.000000
21824.000000,15634.000000,27299.000000,62659.000000
21835.000000,15699.000000,27297.000000,62635.000000
21831.000000,15716.000000,27385.000000,62690.000000
21869.000000,15738.000000,27413.000000,62678.000000
21875.000000,15724.000000,27477.000000,62726.000000
21911.000000,15735.000000,27471.000000,62732.000000
21926.000000,15741.000000,27545.000000,62739.000000
21952.000000,15765.000000,27539.000000,62735.000000
21965.000000,15773.000000,27577.000000,62759.000000
21988.000000,15796.000000,27607.000000,62782.000000
21998.000000,15815.000000,27694.000000,62806.000000
21997.000000,15870.000000,27735.000000,62802.000000
22033.000000,15870.000000,27762.000000,62837.000000
22041.000000,15905.000000,27795.000000,62879.000000
22090.000000,15905.000000,27817.000000,62883.000000
22138.000000,15940.000000,27828.000000,62867.000000
22182.000000,15951.000000,27805.000000,62871.000000
22188.000000,15926.000000,27809.000000,62868.000000
22196.000000,15922.000000,27826.000000,62885.000000
22166.000000,15945.000000,27845.000000,62904.000000
22196.000000,15933.000000,27792.000000,62841.000000
22225.000000,15919.000000,27808.000000,62865.000000
22201.000000,15929.000000,27810.000000,62855.000000
22201.000000,15938.000000,27850.000000,62874.000000
22208.000000,15922.000000,27801.000000,62868.000000
22212.000000,15931.000000,27814.000000,62900.000000
22264.000000,15935.000000,27796.000000,62882.000000
22227.000000,15904.000000,27780.000000,62841.000000
22251.000000,15938.000000,27799.000000,62835.000000
22273.000000,15899.000000,27781.000000,62871.000000
22249.000000,15919.000000,27767.000000,62858.000000
22252.000000,15892.000000,27778.000000,62843.000000
22254.000000,15875.000000,27776.000000,62831.000000
22245.000000,15902.000000,27767.000000,62845.000000
22240.000000,15922.000000,27758.000000,62862.000000
22237.000000,15910.000000,27752.000000,62825.000000
22226.000000,15892.000000,27750.000000,62832.000000
22235.000000,15919.000000,27763.000000,62806.000000
22236.000000,15878.000000,27742.000000,62825.000000
22206.000000,15903.000000,27756.000000,62819.000000
22238.000000,15851.000000,27727.000000,62796.000000
22214.000000,15872.000000,27733.000000,62836.000000
22214.000000,15857.000000,27738.000000,62852.000000
22223.000000,15861.000000,27729.000000,62830.000000
22191.000000,15893.000000,27728.000000,62832.000000
22213.000000,15895.000000,27742.000000,62798.000000
22195.000000,15874.000000,27703.000000,62828.000000
22202.000000,15893.000000,27710.000000,62809.000000
22206.000000,15876.000000,27698.000000,62789.000000
22205.000000,15858.000000,27688.000000,62811.000000
22185.000000,15856.000000,27695.000000,62827.000000
22199.000000,15857.000000,27682.000000,62813.000000
22174.000000,15836.000000,27657.000000,62770.000000
22178.000000,15826.000000,27676.000000,62788.000000
22214.000000,15843.000000,27642.000000,62780.000000
22207.000000,15832.000000,27651.000000,62758.000000
22193.000000,15851.000000,27629.000000,62785.000000
22170.000000,15843.000000,27632.000000,62772.000000
22166.000000,15808.000000,27632.000000,62793.000000
22128.000000,15823.000000,27555.000000,62757.000000
22137.000000,15780.000000,27574.000000,62718.000000
22168.000000,15782.000000,27548.000000,62727.000000
22121.000000,15791.000000,27549.000000,62726.000000
22121.000000,15798.000000,27501.000000,62749.000000
22133.000000,15776.000000,27555.000000,62726.000000
22105.000000,15766.000000,27540.000000,62746.000000
22127.000000,15765.000000,27505.000000,62751.000000
22087.000000,15779.000000,27500.000000,62717.000000
22088.000000,15769.000000,27500.000000,62691.000000
22063.000000,15736.000000,27484.000000,62707.000000
22042.000000,15702.000000,27445.000000,62707.000000
22053.000000,15759.000000,27453.000000,62712.000000
22044.000000,15738.000000,27427.000000,62725.000000
22050.000000,15744.000000,27474.000000,62700.000000
22046.000000,15752.000000,27446.000000,62683.000000
22032.000000,15725.000000,27425.000000,62659.000000
22011.000000,15728.000000,27428.000000,62695.000000
21997.000000,15697.000000,27411.000000,62688.000000
21983.000000,15698.000000,27370.000000,62662.000000
22019.000000,15733.000000,27365.000000,62655.000000
21995.000000,15701.000000,27368.000000,62647.000000
21993.000000,15695.000000,27358.000000,62656.000000
21967.000000,15712.000000,27372.000000,62654.000000
22011.000000,15686.000000,27374.000000,62641.000000
21989.000000,15705.000000,27342.000000,62648.000000
21991.000000,15714.000000,27324.000000,62650.000000
21978.000000,15681.000000,27341.000000,62632.000000
21950.000000,15661.000000,27324.000000,62618.000000
21969.000000,15670.000000,27287.000000,62623.000000
21965.000000,15663.000000,27297.000000,62625.000000
21940.000000,15639.000000,27282.000000,62601.000000
21922.000000,15657.000000,27279.000000,62593.000000
21915.000000,15637.000000,27276.000000,62579.000000
21934.000000,15623.000000,27267.000000,62610.000000
21906.000000,15643.000000,27227.000000,62623.000000
21901.000000,15632.000000,27231.000000,62577.000000
21879.000000,15622.000000,27198.000000,62577.000000
21876.000000,15567.000000,27162.000000,62564.000000
21881.000000,15602.000000,27171.000000,62538.000000
21858.000000,15613.000000,27191.000000,62539.000000
21827.000000,15598.000000,27158.000000,62524.000000
21810.000000,15587.000000,27142.000000,62537.000000
21807.000000,15559.000000,27167.000000,62543.000000
21846.000000,15563.000000,27158.000000,62568.000000
21811.000000,15579.000000,27135.000000,62529.000000
21794.000000,15592.000000,27147.000000,62537.000000
21777.000000,15566.000000,27137.000000,62545.000000
21799.000000,15587.000000,27146.000000,62538.000000
21809.000000,15592.000000,27155.000000,62583.000000
21799.000000,15610.000000,27175.000000,62519.000000
21839.000000,15605.000000,27135.000000,62552.000000
21835.000000,15639.000000,27159.000000,62556.000000
21815.000000,15587.000000,27161.000000,62586.000000
21814.000000,15600.000000,27196.000000,62584.000000
21868.000000,15646.000000,27245.000000,62566.000000
21818.000000,15637.000000,27227.000000,62579.000000
21852.000000,15622.000000,27246.000000,62610.000000
21852.000000,15658.000000,27277.000000,62594.000000
21870.000000,15668.000000,27278.000000,62601.000000
21873.000000,15646.000000,27282.000000,62593.000000
21881.000000,15636.000000,27323.000000,62656.000000
21910.000000,15664.000000,27338.000000,62662.000000
21914.000000,15692.000000,27374.000000,62653.000000
21926.000000,15694.000000,27409.000000,62658.000000
21928.000000,15737.000000,27439.000000,62691.000000
21916.000000,15789.000000,27600.000000,62750.000000
21975.000000,15801.000000,27592.000000,62751.000000
21981.000000,15801.000000,27606.000000,62787.000000
22025.000000,15868.000000,27668.000000,62776.000000
22073.000000,15846.000000,27692.000000,62814.000000
22088.000000,15889.000000,27727.000000,62806.000000
22134.000000,15913.000000,27779.000000,62857.000000
22141.000000,15917.000000,27776.000000,62863.000000
22194.000000,15953.000000,27782.000000,62840.000000
22186.000000,15948.000000,27787.000000,62850.000000
22225.000000,15958.000000,27793.000000,62859.000000
22263.000000,15959.000000,27838.000000,62883.000000
22305.000000,15975.000000,27814.000000,62834.000000
22279.000000,15939.000000,27811.000000,62856.000000
22280.000000,15943.000000,27813.000000,62844.000000
22271.000000,15965.000000,27822.000000,62853.000000
22283.000000,15960.000000,27815.000000,62881.000000
22266.000000,15944.000000,27823.000000,62853.000000
22311.000000,15963.000000,27805.000000,62879.000000
22311.000000,15939.000000,27799.000000,62836.000000
22299.000000,15940.000000,27810.000000,62841.000000
22296.000000,15955.000000,27769.000000,62860.000000
22308.000000,15942.000000,27766.000000,62825.000000
22282.000000,15960.000000,27783.000000,62830.000000
22303.000000,15914.000000,27762.000000,62830.000000
22282.000000,15944.000000,27746.000000,62867.000000
22288.000000,15925.000000,27788.000000,62841.000000
22253.000000,15923.000000,27798.000000,62832.000000
22278.000000,15966.000000,27775.000000,62835.000000
22242.000000,15942.000000,27753.000000,62877.000000
22253.000000,15928.000000,27753.000000,62833.000000
22280.000000,15946.000000,27757.000000,62806.000000
22286.000000,15916.000000,27767.000000,62847.000000
22281.000000,15910.000000,27762.000000,62841.000000
22263.000000,15950.000000,27739.000000,62849.000000
22265.000000,15961.000000,27742.000000,62817.000000
22253.000000,15940.000000,27716.000000,62824.000000
22273.000000,15926.000000,27703.000000,62812.000000
22273.000000,15906.000000,27716.000000,62815.000000
22273.000000,15902.000000,27701.000000,62806.000000
22260.000000,15916.000000,27713.000000,62800.000000
22258.000000,15915.000000,27655.000000,62797.000000
22281.000000,15894.000000,27659.000000,62776.000000
22267.000000,15874.000000,27663.000000,62805.000000
22270.000000,15847.000000,27670.000000,62804.000000
22250.000000,15872.000000,27681.000000,62803.000000
22229.000000,15858.000000,27641.000000,62806.000000
22245.000000,15908.000000,27653.000000,62760.000000
22264.000000,15858.000000,27597.000000,62759.000000
22253.000000,15848.000000,27608.000000,62780.000000
22248.000000,15824.000000,27622.000000,62779.000000
22233.000000,15852.000000,27612.000000,62786.000000
22214.000000,15858.000000,27574.000000,62746.000000
22223.000000,15833.000000,27549.000000,62731.000000
22220.000000,15828.000000,27596.000000,62747.000000
22223.000000,15821.000000,27558.000000,62744.000000
22198.000000,15789.000000,27490.000000,62694.000000
22193.000000,15793.000000,27523.000000,62729.000000
22179.000000,15789.000000,27467.000000,62724.000000
22145.000000,15754.000000,27510.000000,62716.000000
22145.000000,15799.000000,27476.000000,62698.000000
22150.000000,15799.000000,27445.000000,62717.000000
22124.000000,15756.000000,27456.000000,62718.000000
22116.000000,15779.000000,27442.000000,62662.000000
22145.000000,15778.000000,27443.000000,62710.000000
22147.000000,15732.000000,27404.000000,62690.000000
22093.000000,15740.000000,27424.000000,62698.000000
22116.000000,15746.000000,27403.000000,62721.000000
22117.000000,15761.000000,27386.000000,62668.000000
22097.000000,15721.000000,27379.000000,62635.000000
22093.000000,15709.000000,27398.000000,62678.000000
22074.000000,15733.000000,27376.000000,62692.000000
22039.000000,15733.000000,27373.000000,62647.000000
22070.000000,15718.000000,27370.000000,62654.000000
22053.000000,15709.000000,27345.000000,62652.000000
22043.000000,15720.000000,27358.000000,62649.000000
22047.000000,15723.000000,27328.000000,62674.000000
