660nm,730nm,850nm,940nm
25119.000000,14054.000000,23444.000000,60743.000000
25123.000000,14061.000000,23469.000000,60739.000000
25135.000000,14082.000000,23501.000000,60739.000000
25172.000000,14114.000000,23561.000000,60759.000000
25193.000000,14126.000000,23563.000000,60784.000000
25197.000000,14131.000000,23569.000000,60800.000000
25205.000000,14122.000000,23599.000000,60792.000000
25251.000000,14158.000000,23626.000000,60818.000000
25282.000000,14156.000000,23658.000000,60839.000000
25249.000000,14177.000000,23649.000000,60879.000000
25324.000000,14192.000000,23705.000000,60872.000000
25317.000000,14197.000000,23754.000000,60898.000000
25334.000000,14237.000000,23770.000000,60892.000000
25346.000000,14217.000000,23772.000000,60904.000000
25401.000000,14222.000000,23787.000000,60931.000000
25413.000000,14289.000000,23843.000000,60952.000000
25457.000000,14275.000000,23900.000000,60954.000000
25449.000000,14303.000000,23908.000000,61000.000000
25476.000000,14305.000000,23928.000000,61033.000000
25516.000000,14337.000000,23971.000000,61020.000000
25520.000000,14354.000000,23996.000000,61069.000000
25552.000000,14376.000000,24012.000000,61066.000000
25576.000000,14411.000000,24029.000000,61055.000000
25595.000000,14405.000000,24091.000000,61103.000000
25623.000000,14402.000000,24096.000000,61106.000000
25646.000000,14428.000000,24169.000000,61121.000000
25643.000000,14476.000000,24144.000000,61143.000000
25677.000000,14481.000000,24170.000000,61157.000000
25696.000000,14487.000000,24193.000000,61186.000000
25672.000000,14454.000000,24221.000000,61183.000000
25688.000000,14507.000000,24238.000000,61196.000000
25720.000000,14519.000000,24253.000000,61175.000000
25708.000000,14529.000000,24275.000000,61205.000000
25748.000000,14540.000000,24293.000000,61182.000000
25688.000000,14549.000000,24238.000000,61201.000000
25725.000000,14546.000000,24284.000000,61208.000000
25699.000000,14520.000000,24232.000000,61205.000000
25698.000000,14518.000000,24257.000000,61216.000000
25717.000000,14501.000000,24219.000000,61207.000000
25692.000000,14511.000000,24238.000000,61189.000000
25681.000000,14503.000000,24237.000000,61180.000000
25690.000000,14526.000000,24176.000000,61178.000000
25704.000000,14491.000000,24202.000000,61150.000000
25695.000000,14481.000000,24201.000000,61177.000000
25683.000000,14489.000000,24180.000000,61161.000000
25666.000000,14431.000000,24171.000000,61166.000000
25653.000000,14460.000000,24178.000000,61145.000000
25672.000000,14487.000000,24193.000000,61150.000000
25625.000000,14495.000000,24188.000000,61147.000000
25607.000000,14465.000000,24151.000000,61138.000000
25632.000000,14456.000000,24135.000000,61131.000000
25609.000000,14458.000000,24117.000000,61096.000000
25624.000000,14422.000000,24103.000000,61108.000000
25637.000000,14454.000000,24102.000000,61098.000000
25587.000000,14399.000000,24087.000000,61099.000000
25625.000000,14466.000000,24084.000000,61078.000000
25600.000000,14416.000000,24096.000000,61111.000000
25610.000000,14430.000000,24092.000000,61078.000000
25566.000000,14405.000000,24055.000000,61108.000000
25610.000000,14366.000000,24064.000000,61071.000000
25578.000000,14417.000000,24054.000000,61063.000000
25574.000000,14386.000000,24012.000000,61065.000000
25548.000000,14368.000000,24027.000000,61076.000000
25560.000000,14413.000000,24011.000000,61080.000000
25549.000000,14369.000000,24028.000000,61057.000000
25578.000000,14374.000000,23994.000000,61040.000000
25531.000000,14359.000000,23985.000000,61066.000000
25559.000000,14382.000000,23999.000000,61076.000000
25528.000000,14352.000000,23976.000000,61043.000000
25549.000000,14358.000000,24009.000000,61016.000000
25529.000000,14329.000000,23924.000000,61019.000000
25510.000000,14362.000000,23984.000000,61038.000000
25520.000000,14328.000000,23986.000000,61019.000000
25496.000000,14372.000000,23967.000000,61037.000000
25514.000000,14333.000000,23962.000000,61014.000000
25495.000000,14323.000000,23959.000000,61015.000000
25477.000000,14282.000000,23921.000000,61034.000000
25519.000000,14315.000000,23924.000000,60988.000000
25469.000000,14313.000000,23910.000000,61005.000000
25448.000000,14337.000000,23934.000000,61008.000000
25435.000000,14314.000000,23922.000000,61005.000000
25433.000000,14299.000000,23887.000000,60979.000000
25410.000000,14307.000000,23913.000000,60978.000000
25401.000000,14285.000000,23868.000000,60977.000000
25421.000000,14287.000000,23848.000000,60967.000000
25403.000000,14260.000000,23853.000000,60959.000000
25419.000000,14296.000000,23863.000000,60928.000000
25387.000000,14265.000000,23842.000000,60936.000000
25398.000000,14264.000000,23853.000000,60944.000000
25380.000000,14256.000000,23831.000000,60935.000000
25386.000000,14287.000000,23822.000000,60928.000000
25393.000000,14268.000000,23829.000000,60953.000000
25331.000000,14252.000000,23829.000000,60945.000000
25346.000000,14255.000000,23816.000000,60945.000000
25361.000000,14266.000000,23807.000000,60914.000000
25341.000000,14239.000000,23820.000000,60925.000000
25330.000000,14222.000000,23790.000000,60921.000000
25329.000000,14236.000000,23786.000000,60886.000000
25344.000000,14233.000000,23786.000000,60888.000000
25308.000000,14224.000000,23766.000000,60916.000000
25310.000000,14197.000000,23768.000000,60880.000000
25301.000000,14233.000000,23765.000000,60891.000000
25276.000000,14209.000000,23758.000000,60886.000000
25271.000000,14217.000000,23732.000000,60893.000000
25252.000000,14204.000000,23732.000000,60862.000000
25266.000000,14219.000000,23726.000000,60867.000000
25302.000000,14205.000000,23743.000000,60874.000000
25254.000000,14199.000000,23729.000000,60859.000000
25280.000000,14199.000000,23710.000000,60878.000000
25221.000000,14174.000000,23722.000000,60871.000000
25249.000000,14185.000000,23681.000000,60876.000000
25230.000000,14179.000000,23700.000000,60847.000000
25217.000000,14164.000000,23703.000000,60831.000000
25219.000000,14178.000000,23692.000000,60839.000000
25195.000000,14187.000000,23677.000000,60836.000000
25187.000000,14157.000000,23684.000000,60853.000000
25215.000000,14159.000000,23637.000000,60830.000000
25202.000000,14162.000000,23650.000000,60845.000000
25184.000000,14122.000000,23640.000000,60835.000000
25158.000000,14135.000000,23622.000000,60828.000000
25165.000000,14143.000000,23605.000000,60789.000000
25146.000000,14137.000000,23609.000000,60805.000000
25158.000000,14118.000000,23564.000000,60791.000000
25173.000000,14113.000000,23581.000000,60755.000000
25123.000000,14111.000000,23546.000000,60807.000000
25155.000000,14110.000000,23590.000000,60757.000000
25133.000000,14086.000000,23535.000000,60741.000000
25149.000000,14113.000000,23547.000000,60789.000000
25116.000000,14111.000000,23528.000000,60767.000000
25104.000000,14106.000000,23534.000000,60770.000000
25109.000000,14096.000000,23530.000000,60741.000000
25107.000000,14099.000000,23527.000000,60741.000000
25122.000000,14080.000000,23518.000000,60718.000000
25131.000000,14089.000000,23522.000000,60752.000000
25085.000000,14064.000000,23483.000000,60755.000000
25094.000000,14042.000000,23503.000000,60727.000000
25061.000000,14011.000000,23504.000000,60740.000000
25068.000000,14066.000000,23491.000000,60738.000000
25049.000000,14055.000000,23466.000000,60749.000000
25072.000000,14028.000000,23468.000000,60745.000000
25059.000000,14055.000000,23476.000000,60715.000000
25076.000000,14040.000000,23471.000000,60716.000000
25070.000000,14033.000000,23446.000000,60697.000000
25059.000000,14086.000000,23470.000000,60708.000000
25041.000000,14065.000000,23461.000000,60720.000000
25027.000000,14028.000000,23473.000000,60721.000000
25043.000000,14048.000000,23492.000000,60716.000000
25064.000000,14048.000000,23482.000000,60701.000000
25043.000000,14033.000000,23477.000000,60699.000000
25032.000000,14056.000000,23457.000000,60695.000000
25040.000000,14021.000000,23471.000000,60726.000000
25035.000000,14060.000000,23466.000000,60722.000000
25001.000000,14028.000000,23464.000000,60712.000000
24985.000000,14034.000000,23422.000000,60724.000000
25043.000000,14021.000000,23444.000000,60684.000000
25021.000000,14025.000000,23422.000000,60700.000000
24988.000000,14030.000000,23462.000000,60685.000000
25014.000000,13988.000000,23428.000000,60682.000000
24982.000000,14029.000000,23432.000000,60691.000000
25021.000000,13986.000000,23433.000000,60654.000000
24997.000000,14005.000000,23437.000000,60688.000000
25011.000000,14015.000000,23407.000000,60663.000000
25006.000000,14025.000000,23409.000000,60672.000000
24984.000000,13997.000000,23428.000000,60687.000000
24997.000000,14006.000000,23399.000000,60654.000000
24992.000000,14009.000000,23428.000000,60672.000000
24972.000000,14000.000000,23395.000000,60691.000000
24999.000000,13978.000000,23378.000000,60641.000000
24976.000000,13987.000000,23393.000000,60663.000000
24957.000000,14033.000000,23373.000000,60641.000000
24964.000000,13984.000000,23366.000000,60655.000000
24952.000000,14017.000000,23399.000000,60642.000000
24948.000000,14006.000000,23397.000000,60668.000000
24963.000000,13982.000000,23401.000000,60641.000000
24994.000000,14049.000000,23413.000000,60658.000000
24997.000000,14025.000000,23415.000000,60684.000000
25031.000000,14055.000000,23414.000000,60708.000000
25027.000000,14045.000000,23474.000000,60739.000000
25055.000000,14076.000000,23499.000000,60721.000000
25041.000000,14051.000000,23524.000000,60719.000000
25087.000000,14107.000000,23536.000000,60753.000000
25076.000000,14099.000000,23564.000000,60754.000000
25104.000000,14128.000000,23600.000000,60793.000000
25096.000000,14121.000000,23625.000000,60801.000000
25165.000000,14140.000000,23631.000000,60797.000000
25151.000000,14186.000000,23644.000000,60842.000000
25184.000000,14159.000000,23670.000000,60839.000000
25182.000000,14201.000000,23728.000000,60871.000000
25231.000000,14230.000000,23761.000000,60862.000000
25223.000000,14229.000000,23813.000000,60897.000000
25241.000000,14238.000000,23824.000000,60902.000000
25254.000000,14247.000000,23839.000000,60918.000000
25287.000000,14277.000000,23857.000000,60941.000000
25307.000000,14289.000000,23883.000000,60945.000000
25334.000000,14292.000000,23916.000000,60944.000000
25353.000000,14275.000000,23931.000000,60983.000000
25336.000000,14321.000000,23971.000000,60992.000000
25420.000000,14312.000000,23990.000000,61025.000000
25409.000000,14364.000000,24038.000000,61031.000000
25437.000000,14380.000000,24081.000000,61078.000000
25483.000000,14387.000000,24123.000000,61092.000000
25449.000000,14413.000000,24138.000000,61081.000000
25480.000000,14414.000000,24153.000000,61139.000000
25510.000000,14450.000000,24188.000000,61161.000000
25560.000000,14451.000000,24196.000000,61145.000000
25515.000000,14477.000000,24254.000000,61163.000000
25560.000000,14458.000000,24277.000000,61164.000000
25642.000000,14511.000000,24314.000000,61220.000000
25625.000000,14555.000000,24350.000000,61239.000000
25647.000000,14548.000000,24340.000000,61237.000000
25687.000000,14599.000000,24451.000000,61307.000000
25693.000000,14623.000000,24466.000000,61290.000000
25749.000000,14669.000000,24499.000000,61320.000000
25736.000000,14665.000000,24548.000000,61345.000000
25753.000000,14670.000000,24564.000000,61366.000000
25777.000000,14668.000000,24555.000000,61335.000000
25787.000000,14729.000000,24567.000000,61352.000000
25788.000000,14688.000000,24573.000000,61349.000000
25757.000000,14713.000000,24567.000000,61380.000000
25751.000000,14682.000000,24558.000000,61393.000000
25767.000000,14688.000000,24571.000000,61363.000000
25771.000000,14702.000000,24603.000000,61338.000000
25748.000000,14686.000000,24570.000000,61367.000000
25728.000000,14687.000000,24531.000000,61337.000000
25725.000000,14694.000000,24552.000000,61348.000000
25746.000000,14665.000000,24547.000000,61321.000000
25713.000000,14687.000000,24540.000000,61331.000000
25689.000000,14641.000000,24526.000000,61279.000000
25696.000000,14630.000000,24513.000000,61311.000000
25708.000000,14679.000000,24519.000000,61303.000000
25687.000000,14624.000000,24474.000000,61285.000000
25690.000000,14647.000000,24509.000000,61279.000000
25687.000000,14654.000000,24462.000000,61271.000000
25671.000000,14618.000000,24454.000000,61257.000000
25646.000000,14648.000000,24465.000000,61273.000000
25642.000000,14604.000000,24433.000000,61248.000000
25653.000000,14633.000000,24429.000000,61246.000000
25638.000000,14575.000000,24439.000000,61241.000000
25627.000000,14574.000000,24402.000000,61230.000000
25628.000000,14595.000000,24377.000000,61252.000000
25631.000000,14610.000000,24397.000000,61238.000000
25612.000000,14591.000000,24383.000000,61235.000000
25626.000000,14592.000000,24377.000000,61235.000000
25597.000000,14583.000000,24360.000000,61236.000000
25613.000000,14548.000000,24357.000000,61210.000000
25619.000000,14517.000000,24370.000000,61217.000000
25625.000000,14569.000000,24314.000000,61206.000000
25628.000000,14575.000000,24287.000000,61225.000000
25580.000000,14539.000000,24298.000000,61185.000000
25609.000000,14522.000000,24309.000000,61183.000000
25561.000000,14524.000000,24280.000000,61186.000000
25575.000000,14536.000000,24298.000000,61167.000000
25564.000000,14529.000000,24285.000000,61183.000000
25536.000000,14518.000000,24289.000000,61177.000000
25564.000000,14534.000000,24288.000000,61194.000000
25555.000000,14502.000000,24269.000000,61175.000000
25524.000000,14524.000000,24273.000000,61147.000000
25546.000000,14500.000000,24253.000000,61142.000000
25518.000000,14483.000000,24263.000000,61159.000000
25492.000000,14497.000000,24224.000000,61158.000000
25480.000000,14481.000000,24206.000000,61138.000000
25452.000000,14459.000000,24196.000000,61130.000000
25437.000000,14479.000000,24179.000000,61117.000000
25441.000000,14447.000000,24145.000000,61113.000000
25454.000000,14405.000000,24160.000000,61097.000000
25439.000000,14450.000000,24129.000000,61085.000000
25399.000000,14419.000000,24102.000000,61116.000000
25440.000000,14398.000000,24123.000000,61061.000000
25416.000000,14437.000000,24089.000000,61062.000000
25418.000000,14429.000000,24077.000000,61042.000000
25408.000000,14420.000000,24061.000000,61055.000000
25425.000000,14356.000000,24059.000000,61043.000000
25388.000000,14381.000000,24037.000000,61015.000000
25386.000000,14345.000000,23987.000000,61027.000000
25341.000000,14339.000000,23975.000000,61017.000000
25352.000000,14321.000000,23940.000000,60999.000000
25327.000000,14331.000000,23922.000000,60990.000000
25336.000000,14320.000000,23943.000000,60972.000000
25304.000000,14326.000000,23882.000000,60963.000000
25297.000000,14280.000000,23907.000000,60954.000000
25287.000000,14285.000000,23872.000000,60944.000000
25247.000000,14311.000000,23863.000000,60924.000000
25286.000000,14262.000000,23867.000000,60927.000000
25273.000000,14250.000000,23847.000000,60913.000000
25203.000000,14220.000000,23796.000000,60902.000000
25209.000000,14262.000000,23797.000000,60910.000000
25238.000000,14229.000000,23802.000000,60900.000000
25187.000000,14235.000000,23782.000000,60889.000000
25204.000000,14216.000000,23750.000000,60896.000000
25218.000000,14212.000000,23732.000000,60872.000000
25169.000000,14169.000000,23745.000000,60852.000000
25181.000000,14168.000000,23722.000000,60860.000000
25161.000000,14192.000000,23707.000000,60829.000000
25162.000000,14182.000000,23671.000000,60837.000000
25150.000000,14147.000000,23671.000000,60841.000000
25137.000000,14153.000000,23672.000000,60844.000000
25125.000000,14162.000000,23617.000000,60818.000000
25120.000000,14111.000000,23654.000000,60834.000000
25075.000000,14102.000000,23586.000000,60806.000000
25094.000000,14104.000000,23567.000000,60804.000000
25083.000000,14106.000000,23535.000000,60754.000000
25073.000000,14085.000000,23554.000000,60757.000000
25052.000000,14075.000000,23518.000000,60761.000000
25037.000000,14080.000000,23511.000000,60750.000000
24997.000000,14044.000000,23506.000000,60721.000000
24985.000000,14037.000000,23458.000000,60729.000000
25009.000000,14037.000000,23433.000000,60723.000000
24976.000000,14010.000000,23403.000000,60689.000000
25010.000000,14042.000000,23397.000000,60654.000000
24975.000000,13989.000000,23406.000000,60688.000000
24957.000000,13960.000000,23364.000000,60667.000000
24953.000000,13960.000000,23382.000000,60663.000000
24929.000000,13960.000000,23339.000000,60637.000000
24900.000000,13900.000000,23325.000000,60642.000000
24911.000000,13984.000000,23317.000000,60617.000000
24891.000000,13894.000000,23314.000000,60627.000000
24876.000000,13923.000000,23277.000000,60614.000000
24867.000000,13896.000000,23264.000000,60610.000000
24853.000000,13893.000000,23229.000000,60586.000000
24861.000000,13869.000000,23225.000000,60610.000000
24889.000000,13894.000000,23209.000000,60576.000000
24840.000000,13869.000000,23202.000000,60573.000000
24823.000000,13897.000000,23187.000000,60563.000000
24828.000000,13860.000000,23137.000000,60565.000000
24822.000000,13850.000000,23167.000000,60548.000000
24833.000000,13862.000000,23154.000000,60533.000000
24821.000000,13830.000000,23104.000000,60533.000000
24779.000000,13785.000000,23111.000000,60527.000000
24774.000000,13800.000000,23103.000000,60525.000000
24769.000000,13782.000000,23106.000000,60495.000000
24778.000000,13785.000000,23114.000000,60513.000000
24737.000000,13748.000000,23077.000000,60486.000000
24771.000000,13788.000000,23049.000000,60501.000000
24721.000000,13741.000000,23060.000000,60497.000000
24765.000000,13747.000000,23052.000000,60484.000000
24723.000000,13761.000000,23046.000000,60483.000000
24721.000000,13764.000000,23033.000000,60461.000000
24739.000000,13736.000000,23052.000000,60468.000000
24726.000000,13751.000000,23011.000000,60439.000000
24711.000000,13733.000000,23022.000000,60470.000000
24699.000000,13740.000000,23005.000000,60471.000000
24686.000000,13753.000000,22957.000000,60454.000000
24666.000000,13675.000000,22948.000000,60432.000000
24688.000000,13702.000000,22974.000000,60457.000000
24659.000000,13695.000000,22980.000000,60443.000000
24667.000000,13703.000000,22980.000000,60440.000000
24651.000000,13689.000000,22940.000000,60443.000000
24684.000000,13704.000000,22958.000000,60430.000000
24692.000000,13684.000000,22968.000000,60449.000000
24671.000000,13724.000000,23012.000000,60435.000000
24686.000000,13716.000000,23016.000000,60442.000000
24702.000000,13714.000000,23006.000000,60488.000000
24691.000000,13723.000000,23022.000000,60478.000000
24711.000000,13756.000000,23024.000000,60453.000000
24710.000000,13730.000000,23048.000000,60506.000000
24724.000000,13756.000000,23057.000000,60513.000000
24764.000000,13778.000000,23093.000000,60523.000000
24772.000000,13801.000000,23096.000000,60528.000000
24765.000000,13786.000000,23141.000000,60544.000000
24827.000000,13826.000000,23172.000000,60549.000000
24827.000000,13801.000000,23172.000000,60550.000000
24835.000000,13841.000000,23191.000000,60581.000000
24841.000000,13861.000000,23231.000000,60614.000000
24881.000000,13913.000000,23276.000000,60606.000000
24918.000000,13904.000000,23297.000000,60654.000000
24909.000000,13916.000000,23289.000000,60626.000000
24938.000000,13960.000000,23339.000000,60660.000000
24950.000000,13945.000000,23386.000000,60687.000000
25001.000000,13983.000000,23405.000000,60686.000000
25007.000000,14002.000000,23421.000000,60730.000000
25008.000000,14013.000000,23466.000000,60753.000000
25059.000000,14072.000000,23500.000000,60725.000000
25054.000000,14073.000000,23551.000000,60797.000000
25082.000000,14100.000000,23584.000000,60804.000000
25091.000000,14072.000000,23599.000000,60846.000000
25110.000000,14096.000000,23621.000000,60818.000000
25161.000000,14141.000000,23676.000000,60858.000000
25137.000000,14146.000000,23740.000000,60884.000000
25212.000000,14173.000000,23753.000000,60916.000000
25178.000000,14169.000000,23798.000000,60909.000000
25232.000000,14196.000000,23824.000000,60925.000000
25284.000000,14249.000000,23847.000000,60965.000000
25312.000000,14265.000000,23873.000000,61008.000000
25332.000000,14219.000000,23886.000000,61021.000000
25333.000000,14298.000000,23912.000000,61019.000000
25427.000000,14311.000000,24041.000000,61084.000000
25451.000000,14353.000000,24045.000000,61096.000000
25513.000000,14364.000000,24066.000000,61079.000000
25519.000000,14379.000000,24142.000000,61150.000000
25525.000000,14416.000000,24169.000000,61178.000000
25569.000000,14436.000000,24168.000000,61167.000000
25535.000000,14423.000000,24210.000000,61174.000000
25542.000000,14439.000000,24209.000000,61161.000000
25535.000000,14453.000000,24203.000000,61171.000000
25536.000000,14458.000000,24190.000000,61177.000000
25542.000000,14422.000000,24207.000000,61163.000000
25548.000000,14441.000000,24197.000000,61179.000000
25528.000000,14421.000000,24192.000000,61156.000000
25534.000000,14419.000000,24137.000000,61158.000000
25529.000000,14455.000000,24153.000000,61137.000000
25531.000000,14423.000000,24173.000000,61133.000000
25512.000000,14410.000000,24177.000000,61138.000000
25514.000000,14416.000000,24173.000000,61140.000000
25519.000000,14414.000000,24184.000000,61124.000000
25492.000000,14440.000000,24164.000000,61123.000000
25469.000000,14405.000000,24185.000000,61155.000000
25491.000000,14412.000000,24136.000000,61138.000000
25449.000000,14402.000000,24145.000000,61163.000000
25439.000000,14413.000000,24148.000000,61146.000000
25459.000000,14399.000000,24120.000000,61120.000000
25415.000000,14388.000000,24142.000000,61133.000000
25448.000000,14414.000000,24115.000000,61102.000000
25454.000000,14427.000000,24136.000000,61131.000000
25454.000000,14414.000000,24095.000000,61104.000000
25455.000000,14408.000000,24123.000000,61102.000000
25434.000000,14390.000000,24129.000000,61097.000000
25442.000000,14393.000000,24133.000000,61116.000000
25408.000000,14367.000000,24118.000000,61096.000000
25455.000000,14384.000000,24126.000000,61107.000000
25408.000000,14391.000000,24102.000000,61091.000000
25418.000000,14420.000000,24108.000000,61095.000000
25408.000000,14406.000000,24116.000000,61081.000000
25366.000000,14391.000000,24121.000000,61078.000000
25410.000000,14396.000000,24079.000000,61104.000000
25384.000000,14378.000000,24119.000000,61107.000000
25386.000000,14383.000000,24085.000000,61074.000000
25361.000000,14369.000000,24096.000000,61098.000000
25381.000000,14378.000000,24097.000000,61064.000000
25355.000000,14365.000000,24094.000000,61079.000000
25409.000000,14396.000000,24111.000000,61085.000000
25349.000000,14392.000000,24087.000000,61095.000000
25365.000000,14383.000000,24084.000000,61085.000000
25326.000000,14376.000000,24081.000000,61070.000000
25334.000000,14358.000000,24078.000000,61065.000000
25331.000000,14347.000000,24086.000000,61066.000000
25346.000000,14378.000000,24071.000000,61069.000000
25290.000000,14365.000000,24059.000000,61060.000000
25322.000000,14366.000000,24068.000000,61023.000000
25305.000000,14315.000000,24051.000000,61056.000000
25272.000000,14347.000000,24061.000000,61066.000000
25290.000000,14341.000000,24050.000000,61049.000000
25254.000000,14352.000000,23992.000000,61043.000000
25235.000000,14285.000000,23990.000000,61031.000000
25277.000000,14316.000000,24021.000000,61024.000000
25302.000000,14327.000000,24032.000000,61001.000000
25241.000000,14308.000000,24007.000000,61000.000000
25252.000000,14305.000000,23969.000000,61019.000000
25250.000000,14291.000000,23972.000000,61031.000000
25224.000000,14295.000000,23941.000000,60990.000000
25221.000000,14327.000000,23977.000000,60981.000000
25210.000000,14310.000000,23965.000000,61004.000000
25198.000000,14287.000000,23930.000000,60976.000000
25196.000000,14285.000000,23927.000000,60962.000000
25143.000000,14268.000000,23906.000000,60965.000000
25167.000000,14244.000000,23917.000000,60963.000000
25145.000000,14215.000000,23863.000000,60960.000000
25117.000000,14240.000000,23889.000000,60941.000000
25134.000000,14247.000000,23902.000000,60938.000000
25142.000000,14218.000000,23862.000000,60938.000000
25123.000000,14269.000000,23871.000000,60921.000000
25116.000000,14227.000000,23837.000000,60914.000000
25102.000000,14207.000000,23836.000000,60874.000000
25129.000000,14216.000000,23851.000000,60895.000000
25072.000000,14227.000000,23847.000000,60907.000000
25107.000000,14222.000000,23828.000000,60906.000000
25049.000000,14187.000000,23820.000000,60883.000000
25059.000000,14199.000000,23816.000000,60913.000000
25071.000000,14209.000000,23794.000000,60918.000000
25077.000000,14189.000000,23810.000000,60918.000000
25080.000000,14197.000000,23789.000000,60881.000000
25088.000000,14192.000000,23764.000000,60860.000000
25040.000000,14167.000000,23786.000000,60893.000000
25066.000000,14181.000000,23779.000000,60886.000000
25059.000000,14189.000000,23762.000000,60876.000000
25052.000000,14192.000000,23763.000000,60855.000000
25030.000000,14136.000000,23764.000000,60858.000000
25051.000000,14178.000000,23749.000000,60852.000000
25042.000000,14187.000000,23769.000000,60880.000000
25027.000000,14170.000000,23747.000000,60851.000000
25024.000000,14158.000000,23761.000000,60850.000000
25013.000000,14140.000000,23750.000000,60836.000000
25017.000000,14146.000000,23713.000000,60852.000000
24958.000000,14134.000000,23687.000000,60796.000000
24945.000000,14127.000000,23696.000000,60825.000000
24959.000000,14116.000000,23679.000000,60816.000000
24940.000000,14107.000000,23672.000000,60805.000000
24943.000000,14123.000000,23644.000000,60825.000000
24988.000000,14115.000000,23666.000000,60786.000000
24962.000000,14129.000000,23622.000000,60795.000000
24972.000000,14124.000000,23637.000000,60781.000000
24930.000000,14135.000000,23642.000000,60791.000000
24967.000000,14089.000000,23644.000000,60813.000000
24945.000000,14132.000000,23631.000000,60793.000000
24926.000000,14078.000000,23654.000000,60792.000000
24878.000000,14097.000000,23660.000000,60799.000000
24938.000000,14119.000000,23631.000000,60771.000000
24887.000000,14098.000000,23625.000000,60780.000000
24904.000000,14104.000000,23631.000000,60733.000000
24898.000000,14074.000000,23599.000000,60747.000000
24871.000000,14101.000000,23606.000000,60731.000000
24855.000000,14068.000000,23595.000000,60743.000000
24927.000000,14109.000000,23634.000000,60776.000000
24862.000000,14065.000000,23598.000000,60774.000000
24846.000000,14060.000000,23616.000000,60769.000000
24901.000000,14064.000000,23595.000000,60738.000000
24884.000000,14064.000000,23562.000000,60746.000000
24884.000000,14056.000000,23580.000000,60751.000000
24859.000000,14093.000000,23573.000000,60759.000000
24858.000000,14065.000000,23559.000000,60735.000000
24884.000000,14056.000000,23534.000000,60733.000000
24843.000000,14034.000000,23577.000000,60742.000000
24868.000000,14070.000000,23537.000000,60721.000000
24845.000000,14023.000000,23504.000000,60687.000000
24824.000000,14056.000000,23564.000000,60724.000000
24836.000000,14055.000000,23548.000000,60724.000000
24820.000000,14013.000000,23536.000000,60690.000000
24813.000000,14021.000000,23499.000000,60706.000000
24824.000000,14023.000000,23507.000000,60707.000000
24792.000000,13974.000000,23502.000000,60713.000000
24810.000000,13988.000000,23530.000000,60726.000000
24804.000000,14024.000000,23493.000000,60697.000000
24843.000000,14039.000000,23538.000000,60687.000000
24826.000000,14034.000000,23522.000000,60693.000000
24830.000000,14056.000000,23556.000000,60720.000000
24883.000000,14085.000000,23560.000000,60726.000000
24872.000000,14017.000000,23592.000000,60723.000000
24916.000000,14068.000000,23559.000000,60750.000000
24887.000000,14100.000000,23597.000000,60773.000000
24910.000000,14107.000000,23600.000000,60764.000000
24931.000000,14105.000000,23645.000000,60816.000000
24940.000000,14094.000000,23704.000000,60812.000000
24926.000000,14118.000000,23737.000000,60829.000000
24995.000000,14105.000000,23701.000000,60819.000000
24951.000000,14131.000000,23731.000000,60817.000000
24990.000000,14172.000000,23775.000000,60823.000000
25001.000000,14174.000000,23769.000000,60892.000000
25056.000000,14189.000000,23842.000000,60905.000000
25071.000000,14203.000000,23844.000000,60915.000000
25077.000000,14199.000000,23842.000000,60935.000000
25128.000000,14236.000000,23890.000000,60938.000000
25136.000000,14239.000000,23897.000000,60946.000000
25155.000000,14249.000000,23949.000000,60990.000000
25168.000000,14284.000000,23973.000000,60998.000000
25200.000000,14295.000000,24004.000000,61023.000000
25211.000000,14289.000000,24035.000000,61032.000000
25232.000000,14340.000000,24067.000000,61042.000000
25243.000000,14332.000000,24100.000000,61076.000000
25256.000000,14348.000000,24075.000000,61094.000000
25287.000000,14359.000000,24124.000000,61108.000000
25281.000000,14377.000000,24154.000000,61139.000000
25416.000000,14423.000000,24249.000000,61129.000000
25423.000000,14446.000000,24272.000000,61181.000000
25414.000000,14469.000000,24282.000000,61212.000000
25491.000000,14504.000000,24328.000000,61228.000000
25475.000000,14504.000000,24346.000000,61238.000000
25511.000000,14521.000000,24383.000000,61222.000000
25516.000000,14568.000000,24433.000000,61250.000000
25563.000000,14572.000000,24430.000000,61272.000000
25553.000000,14567.000000,24457.000000,61278.000000
25562.000000,14543.000000,24453.000000,61276.000000
25575.000000,14563.000000,24493.000000,61284.000000
25567.000000,14624.000000,24520.000000,61281.000000
25625.000000,14629.000000,24509.000000,61288.000000
25599.000000,14608.000000,24505.000000,61297.000000
25606.000000,14580.000000,24492.000000,61283.000000
25584.000000,14605.000000,24502.000000,61288.000000
25591.000000,14587.000000,24512.000000,61311.000000
25568.000000,14601.000000,24480.000000,61292.000000
25551.000000,14556.000000,24484.000000,61295.000000
25577.000000,14586.000000,24484.000000,61272.000000
25548.000000,14556.000000,24482.000000,61265.000000
25545.000000,14580.000000,24508.000000,61295.000000
25527.000000,14584.000000,24447.000000,61282.000000
25539.000000,14589.000000,24454.000000,61275.000000
25539.000000,14543.000000,24448.000000,61270.000000
25513.000000,14573.000000,24411.000000,61264.000000
25524.000000,14523.000000,24410.000000,61273.000000
25522.000000,14550.000000,24436.000000,61252.000000
25518.000000,14550.000000,24439.000000,61277.000000
25514.000000,14551.000000,24418.000000,61256.000000
25532.000000,14516.000000,24430.000000,61266.000000
25515.000000,14543.000000,24393.000000,61241.000000
25510.000000,14520.000000,24406.000000,61242.000000
25534.000000,14504.000000,24373.000000,61247.000000
25507.000000,14513.000000,24380.000000,61249.000000
25489.000000,14523.000000,24375.000000,61249.000000
25508.000000,14536.000000,24357.000000,61190.000000
25510.000000,14514.000000,24334.000000,61222.000000
25496.000000,14520.000000,24367.000000,61235.000000
25486.000000,14491.000000,24330.000000,61214.000000
25481.000000,14522.000000,24352.000000,61224.000000
25496.000000,14513.000000,24343.000000,61242.000000
25469.000000,14498.000000,24337.000000,61218.000000
25443.000000,14536.000000,24361.000000,61221.000000
25498.000000,14478.000000,24348.000000,61216.000000
25440.000000,14475.000000,24343.000000,61220.000000
25458.000000,14472.000000,24326.000000,61213.000000
25461.000000,14447.000000,24319.000000,61202.000000
25485.000000,14482.000000,24316.000000,61201.000000
25464.000000,14495.000000,24310.000000,61217.000000
25464.000000,14497.000000,24349.000000,61209.000000
25414.000000,14472.000000,24273.000000,61208.000000
25451.000000,14494.000000,24303.000000,61218.000000
25444.000000,14486.000000,24282.000000,61185.000000
25425.000000,14459.000000,24297.000000,61191.000000
25425.000000,14453.000000,24263.000000,61154.000000
25448.000000,14473.000000,24264.000000,61178.000000
25423.000000,14460.000000,24267.000000,61185.000000
25434.000000,14461.000000,24281.000000,61183.000000
25450.000000,14395.000000,24268.000000,61172.000000
25404.000000,14441.000000,24264.000000,61172.000000
25395.000000,14441.000000,24260.000000,61170.000000
25422.000000,14439.000000,24235.000000,61156.000000
25400.000000,14414.000000,24216.000000,61169.000000
25391.000000,14451.000000,24247.000000,61172.000000
25359.000000,14445.000000,24245.000000,61157.000000
25413.000000,14428.000000,24189.000000,61142.000000
25375.000000,14411.000000,24239.000000,61155.000000
25342.000000,14398.000000,24211.000000,61155.000000
25373.000000,14428.000000,24207.000000,61141.000000
25343.000000,14418.000000,24191.000000,61125.000000
25361.000000,14422.000000,24182.000000,61137.000000
25328.000000,14443.000000,24201.000000,61156.000000
25351.000000,14418.000000,24212.000000,61116.000000
25328.000000,14409.000000,24168.000000,61106.000000
25308.000000,14395.000000,24184.000000,61122.000000
25345.000000,14384.000000,24194.000000,61115.000000
25300.000000,14410.000000,24187.000000,61087.000000
25305.000000,14397.000000,24174.000000,61113.000000
25321.000000,14415.000000,24150.000000,61111.000000
25275.000000,14404.000000,24109.000000,61091.000000
25282.000000,14396.000000,24135.000000,61119.000000
25255.000000,14362.000000,24110.000000,61082.000000
25314.000000,14384.000000,24139.000000,61075.000000
25261.000000,14387.000000,24160.000000,61108.000000
25284.000000,14404.000000,24146.000000,61076.000000
25285.000000,14348.000000,24142.000000,61096.000000
25270.000000,14318.000000,24128.000000,61076.000000
25283.000000,14380.000000,24144.000000,61056.000000
25259.000000,14392.000000,24115.000000,61056.000000
25232.000000,14362.000000,24116.000000,61097.000000
25226.000000,14352.000000,24104.000000,61053.000000
25227.000000,14340.000000,24087.000000,61073.000000
25238.000000,14375.000000,24083.000000,61066.000000
25201.000000,14359.000000,24099.000000,61048.000000
25222.000000,14357.000000,24042.000000,61059.000000
25204.000000,14327.000000,24108.000000,61066.000000
25227.000000,14352.000000,24060.000000,61048.000000
25160.000000,14294.000000,24058.000000,61076.000000
25198.000000,14328.000000,24049.000000,61029.000000
25176.000000,14326.000000,24062.000000,61021.000000
25171.000000,14317.000000,24064.000000,61030.000000
25149.000000,14302.000000,24032.000000,61011.000000
25141.000000,14316.000000,24051.000000,60988.000000
25152.000000,14317.000000,24021.000000,61016.000000
25140.000000,14279.000000,24029.000000,61013.000000
25131.000000,14293.000000,24050.000000,61028.000000
25149.000000,14293.000000,24032.000000,61038.000000
25123.000000,14266.000000,24004.000000,60998.000000
25140.000000,14286.000000,24017.000000,61003.000000
25156.000000,14321.000000,24017.000000,60992.000000
25166.000000,14325.000000,23975.000000,60984.000000
25153.000000,14285.000000,24035.000000,60986.000000
25163.000000,14328.000000,24024.000000,60991.000000
25122.000000,14256.000000,23999.000000,60967.000000
25103.000000,14322.000000,23993.000000,61004.000000
25124.000000,14287.000000,23991.000000,60984.000000
25133.000000,14273.000000,23997.000000,60988.000000
25108.000000,14283.000000,24000.000000,60991.000000
25110.000000,14277.000000,23982.000000,60990.000000
25117.000000,14274.000000,23992.000000,60975.000000
25059.000000,14270.000000,24003.000000,60987.000000
25092.000000,14276.000000,23995.000000,60952.000000
25107.000000,14280.000000,23947.000000,60978.000000
25060.000000,14281.000000,23971.000000,60969.000000
25056.000000,14269.000000,23972.000000,60986.000000
25119.000000,14261.000000,23951.000000,60940.000000
25092.000000,14274.000000,23954.000000,60948.000000
25101.000000,14244.000000,23968.000000,60981.000000
25048.000000,14262.000000,23965.000000,60957.000000
25077.000000,14274.000000,23968.000000,60971.000000
25082.000000,14267.000000,23969.000000,60956.000000
25063.000000,14280.000000,23992.000000,60950.000000
25078.000000,14272.000000,23980.000000,60962.000000
25063.000000,14267.000000,23978.000000,60963.000000
25070.000000,14267.000000,23937.000000,60962.000000
25100.000000,14263.000000,23962.000000,60947.000000
25071.000000,14257.000000,23953.000000,60962.000000
25077.000000,14281.000000,23949.000000,60942.000000
25031.000000,14262.000000,23960.000000,60977.000000
25070.000000,14238.000000,23944.000000,60937.000000
25043.000000,14272.000000,23913.000000,60968.000000
25078.000000,14237.000000,23947.000000,60952.000000
25026.000000,14260.000000,23944.000000,60950.000000
25064.000000,14227.000000,23965.000000,60962.000000
25056.000000,14223.000000,23921.000000,60965.000000
25022.000000,14247.000000,23947.000000,60930.000000
25013.000000,14204.000000,23930.000000,60943.000000
25054.000000,14215.000000,23911.000000,60901.000000
25017.000000,14220.000000,23914.000000,60916.000000
25004.000000,14257.000000,23893.000000,60929.000000
24995.000000,14207.000000,23901.000000,60949.000000
24994.000000,14229.000000,23891.000000,60923.000000
25024.000000,14228.000000,23864.000000,60930.000000
25018.000000,14226.000000,23886.000000,60907.000000
25008.000000,14244.000000,23879.000000,60919.000000
25020.000000,14232.000000,23894.000000,60920.000000
25027.000000,14273.000000,23903.000000,60967.000000
25039.000000,14212.000000,23934.000000,60936.000000
25050.000000,14239.000000,23936.000000,60986.000000
25048.000000,14276.000000,23967.000000,60943.000000
25064.000000,14263.000000,23991.000000,60981.000000
25089.000000,14294.000000,23983.000000,60988.000000
25096.000000,14306.000000,23984.000000,61016.000000
25099.000000,14272.000000,24021.000000,60998.000000
25144.000000,14323.000000,24059.000000,61049.000000
25142.000000,14317.000000,24078.000000,61036.000000
25167.000000,14314.000000,24069.000000,61038.000000
25203.000000,14344.000000,24119.000000,61073.000000
25201.000000,14339.000000,24136.000000,61070.000000
25220.000000,14340.000000,24157.000000,61113.000000
25262.000000,14355.000000,24181.000000,61111.000000
25263.000000,14383.000000,24212.000000,61134.000000
25264.000000,14433.000000,24228.000000,61142.000000
25289.000000,14412.000000,24249.000000,61151.000000
25315.000000,14441.000000,24248.000000,61173.000000
25295.000000,14444.000000,24281.000000,61185.000000
25350.000000,14456.000000,24302.000000,61222.000000
25387.000000,14471.000000,24341.000000,61189.000000
25403.000000,14492.000000,24376.000000,61233.000000
25435.000000,14503.000000,24373.000000,61254.000000
25454.000000,14544.000000,24421.000000,61252.000000
25501.000000,14526.000000,24446.000000,61259.000000
25475.000000,14541.000000,24469.000000,61271.000000
25523.000000,14569.000000,24496.000000,61300.000000
25537.000000,14616.000000,24526.000000,61288.000000
25529.000000,14599.000000,24554.000000,61338.000000
25563.000000,14595.000000,24588.000000,61364.000000
25588.000000,14629.000000,24590.000000,61363.000000
25628.000000,14610.000000,24630.000000,61386.000000
25642.000000,14666.000000,24659.000000,61389.000000
25657.000000,14658.000000,24674.000000,61413.000000
25657.000000,14714.000000,24698.000000,61419.000000
25698.000000,14732.000000,24761.000000,61443.000000
25694.000000,14747.000000,24766.000000,61471.000000
25701.000000,14711.000000,24795.000000,61460.000000
25727.000000,14786.000000,24829.000000,61542.000000
25752.000000,14797.000000,24852.000000,61488.000000
25743.000000,14762.000000,24895.000000,61514.000000
25731.000000,14802.000000,24871.000000,61513.000000
25798.000000,14805.000000,24906.000000,61523.000000
25795.000000,14810.000000,24901.000000,61527.000000
25790.000000,14855.000000,24913.000000,61576.000000
25797.000000,14817.000000,24933.000000,61527.000000
25798.000000,14820.000000,24911.000000,61550.000000
25829.000000,14822.000000,24927.000000,61520.000000
25821.000000,14847.000000,24895.000000,61552.000000
25788.000000,14810.000000,24926.000000,61557.000000
25782.000000,14833.000000,24908.000000,61528.000000
25790.000000,14804.000000,24933.000000,61568.000000
25784.000000,14808.000000,24920.000000,61553.000000
25735.000000,14805.000000,24915.000000,61538.000000
25756.000000,14790.000000,24905.000000,61499.000000
25733.000000,14826.000000,24897.000000,61532.000000
25749.000000,14824.000000,24878.000000,61515.000000
25742.000000,14764.000000,24881.000000,61496.000000
25756.000000,14752.000000,24868.000000,61515.000000
25728.000000,14778.000000,24892.000000,61504.000000
25748.000000,14794.000000,24868.000000,61513.000000
25693.000000,14784.000000,24861.000000,61524.000000
25735.000000,14775.000000,24888.000000,61494.000000
25725.000000,14755.000000,24851.000000,61483.000000
25755.000000,14789.000000,24834.000000,61486.000000
25715.000000,14759.000000,24873.000000,61500.000000
25710.000000,14780.000000,24837.000000,61489.000000
25679.000000,14763.000000,24819.000000,61453.000000
25702.000000,14768.000000,24845.000000,61493.000000
25671.000000,14752.000000,24790.000000,61474.000000
25684.000000,14763.000000,24800.000000,61451.000000
25639.000000,14761.000000,24784.000000,61444.000000
25679.000000,14750.000000,24808.000000,61443.000000
25641.000000,14730.000000,24813.000000,61424.000000
25659.000000,14758.000000,24795.000000,61430.000000
25640.000000,14716.000000,24790.000000,61465.000000
25625.000000,14705.000000,24783.000000,61439.000000
25652.000000,14734.000000,24762.000000,61440.000000
25647.000000,14705.000000,24754.000000,61409.000000
25641.000000,14750.000000,24801.000000,61417.000000
25660.000000,14728.000000,24759.000000,61431.000000
25643.000000,14694.000000,24750.000000,61444.000000
25577.000000,14731.000000,24763.000000,61436.000000
25593.000000,14686.000000,24758.000000,61415.000000
25611.000000,14704.000000,24717.000000,61412.000000
25601.000000,14688.000000,24748.000000,61416.000000
25592.000000,14694.000000,24726.000000,61410.000000
25580.000000,14705.000000,24750.000000,61400.000000
25582.000000,14682.000000,24703.000000,61417.000000
25597.000000,14702.000000,24705.000000,61385.000000
25545.000000,14662.000000,24694.000000,61375.000000
25563.000000,14679.000000,24707.000000,61364.000000
25539.000000,14689.000000,24696.000000,61378.000000
25556.000000,14641.000000,24690.000000,61409.000000
25566.000000,14629.000000,24655.000000,61379.000000
25536.000000,14654.000000,24646.000000,61365.000000
25486.000000,14627.000000,24637.000000,61358.000000
25506.000000,14693.000000,24625.000000,61330.000000
25521.000000,14635.000000,24659.000000,61350.000000
25492.000000,14652.000000,24666.000000,61351.000000
25509.000000,14617.000000,24633.000000,61347.000000
25469.000000,14647.000000,24615.000000,61350.000000
25463.000000,14634.000000,24621.000000,61338.000000
25531.000000,14654.000000,24619.000000,61329.000000
25477.000000,14621.000000,24618.000000,61339.000000
25491.000000,14631.000000,24630.000000,61323.000000
25450.000000,14600.000000,24571.000000,61331.000000
25435.000000,14602.000000,24569.000000,61337.000000
25453.000000,14583.000000,24572.000000,61337.000000
25457.000000,14595.000000,24570.000000,61295.000000
25479.000000,14581.000000,24556.000000,61299.000000
25443.000000,14595.000000,24567.000000,61270.000000
25432.000000,14602.000000,24558.000000,61280.000000
25408.000000,14624.000000,24549.000000,61280.000000
25416.000000,14567.000000,24547.000000,61311.000000
25426.000000,14583.000000,24555.000000,61277.000000
25367.000000,14547.000000,24539.000000,61276.000000
25341.000000,14539.000000,24538.000000,61266.000000
25353.000000,14554.000000,24524.000000,61264.000000
25353.000000,14547.000000,24501.000000,61239.000000
25382.000000,14507.000000,24493.000000,61227.000000
25328.000000,14488.000000,24496.000000,61252.000000
25323.000000,14508.000000,24448.000000,61231.000000
25350.000000,14530.000000,24446.000000,61247.000000
25336.000000,14542.000000,24473.000000,61250.000000
25336.000000,14520.000000,24435.000000,61253.000000
25313.000000,14529.000000,24446.000000,61213.000000
25317.000000,14533.000000,24480.000000,61227.000000
25328.000000,14537.000000,24426.000000,61229.000000
25309.000000,14500.000000,24400.000000,61215.000000
25308.000000,14504.000000,24410.000000,61229.000000
25292.000000,14501.000000,24430.000000,61201.000000
25275.000000,14467.000000,24384.000000,61230.000000
25281.000000,14468.000000,24385.000000,61174.000000
25261.000000,14497.000000,24356.000000,61178.000000
25226.000000,14468.000000,24343.000000,61176.000000
25268.000000,14456.000000,24346.000000,61181.000000
25254.000000,14465.000000,24329.000000,61159.000000
25243.000000,14422.000000,24345.000000,61146.000000
25227.000000,14438.000000,24333.000000,61162.000000
25228.000000,14450.000000,24303.000000,61145.000000
25225.000000,14434.000000,24305.000000,61135.000000
25227.000000,14439.000000,24287.000000,61141.000000
25250.000000,14402.000000,24285.000000,61160.000000
25226.000000,14414.000000,24270.000000,61139.000000
25201.000000,14444.000000,24295.000000,61135.000000
25200.000000,14426.000000,24274.000000,61129.000000
25193.000000,14405.000000,24253.000000,61158.000000
25188.000000,14407.000000,24265.000000,61138.000000
25198.000000,14421.000000,24260.000000,61114.000000
25193.000000,14421.000000,24266.000000,61134.000000
25185.000000,14384.000000,24234.000000,61118.000000
25177.000000,14389.000000,24270.000000,61132.000000
25164.000000,14374.000000,24222.000000,61117.000000
25173.000000,14400.000000,24231.000000,61105.000000
25184.000000,14399.000000,24188.000000,61106.000000
25207.000000,14390.000000,24198.000000,61092.000000
25194.000000,14412.000000,24223.000000,61100.000000
25189.000000,14348.000000,24213.000000,61074.000000
25204.000000,14401.000000,24227.000000,61102.000000
25186.000000,14386.000000,24204.000000,61095.000000
25193.000000,14381.000000,24197.000000,61104.000000
25161.000000,14373.000000,24207.000000,61088.000000
25187.000000,14385.000000,24199.000000,61099.000000
25187.000000,14372.000000,24225.000000,61108.000000
25165.000000,14378.000000,24218.000000,61104.000000
25150.000000,14359.000000,24170.000000,61121.000000
25166.000000,14374.000000,24174.000000,61073.000000
25184.000000,14393.000000,24185.000000,61061.000000
25228.000000,14364.000000,24169.000000,61065.000000
25183.000000,14366.000000,24169.000000,61092.000000
25182.000000,14369.000000,24208.000000,61093.000000
25172.000000,14367.000000,24181.000000,61107.000000
25184.000000,14372.000000,24186.000000,61071.000000
25135.000000,14378.000000,24191.000000,61083.000000
25153.000000,14347.000000,24164.000000,61080.000000
25154.000000,14363.000000,24164.000000,61096.000000
25157.000000,14364.000000,24171.000000,61089.000000
25141.000000,14352.000000,24142.000000,61086.000000
25183.000000,14357.000000,24168.000000,61107.000000
25146.000000,14354.000000,24137.000000,61068.000000
25179.000000,14351.000000,24150.000000,61063.000000
25156.000000,14372.000000,24160.000000,61083.000000
25190.000000,14361.000000,24179.000000,61085.000000
25132.000000,14355.000000,24174.000000,61111.000000
25172.000000,14357.000000,24190.000000,61095.000000
25173.000000,14371.000000,24216.000000,61122.000000
25203.000000,14375.000000,24204.000000,61104.000000
25175.000000,14368.000000,24257.000000,61133.000000
25212.000000,14399.000000,24269.000000,61130.000000
25221.000000,14416.000000,24287.000000,61151.000000
25232.000000,14422.000000,24311.000000,61166.000000
25283.000000,14442.000000,24333.000000,61176.000000
25301.000000,14463.000000,24347.000000,61178.000000
25334.000000,14488.000000,24403.000000,61212.000000
25365.000000,14490.000000,24404.000000,61242.000000
25372.000000,14491.000000,24416.000000,61244.000000
25356.000000,14529.000000,24454.000000,61244.000000
25385.000000,14524.000000,24489.000000,61278.000000
25389.000000,14563.000000,24512.000000,61297.000000
25421.000000,14543.000000,24561.000000,61277.000000
25420.000000,14570.000000,24552.000000,61328.000000
25421.000000,14603.000000,24582.000000,61322.000000
25427.000000,14608.000000,24607.000000,61363.000000
25490.000000,14622.000000,24600.000000,61377.000000
25502.000000,14611.000000,24669.000000,61361.000000
25526.000000,14628.000000,24669.000000,61379.000000
25536.000000,14660.000000,24719.000000,61403.000000
25596.000000,14681.000000,24766.000000,61424.000000
25578.000000,14680.000000,24774.000000,61425.000000
25580.000000,14680.000000,24768.000000,61449.000000
25640.000000,14741.000000,24804.000000,61473.000000
25633.000000,14746.000000,24832.000000,61475.000000
25654.000000,14780.000000,24881.000000,61487.000000
25673.000000,14776.000000,24897.000000,61495.000000
25646.000000,14751.000000,24938.000000,61558.000000
25680.000000,14786.000000,24945.000000,61561.000000
25701.000000,14807.000000,25005.000000,61558.000000
25759.000000,14825.000000,24972.000000,61612.000000
25766.000000,14842.000000,25023.000000,61584.000000
25785.000000,14882.000000,25045.000000,61599.000000
25791.000000,14866.000000,25077.000000,61618.000000
25831.000000,14880.000000,25114.000000,61623.000000
25815.000000,14906.000000,25152.000000,61651.000000
25834.000000,14917.000000,25140.000000,61676.000000
25834.000000,14912.000000,25181.000000,61675.000000
25899.000000,14954.000000,25231.000000,61663.000000
25898.000000,14957.000000,25252.000000,61679.000000
25906.000000,14964.000000,25255.000000,61713.000000
25910.000000,14983.000000,25307.000000,61707.000000
25899.000000,14989.000000,25277.000000,61736.000000
25941.000000,14974.000000,25309.000000,61710.000000
25957.000000,14988.000000,25302.000000,61719.000000
25946.000000,14997.000000,25300.000000,61744.000000
25922.000000,15008.000000,25291.000000,61700.000000
25928.000000,14998.000000,25288.000000,61729.000000
25942.000000,14999.000000,25287.000000,61725.000000
25914.000000,14996.000000,25276.000000,61737.000000
25893.000000,14981.000000,25297.000000,61721.000000
25920.000000,14971.000000,25277.000000,61735.000000
25895.000000,14999.000000,25281.000000,61737.000000
25904.000000,14986.000000,25271.000000,61699.000000
25871.000000,14975.000000,25287.000000,61721.000000
25891.000000,14977.000000,25259.000000,61727.000000
25864.000000,14980.000000,25299.000000,61698.000000
25855.000000,14966.000000,25240.000000,61696.000000
25865.000000,14958.000000,25249.000000,61677.000000
25882.000000,14959.000000,25211.000000,61660.000000
25832.000000,14954.000000,25231.000000,61666.000000
25854.000000,14950.000000,25220.000000,61675.000000
25842.000000,14977.000000,25223.000000,61671.000000
25834.000000,14930.000000,25195.000000,61656.000000
25853.000000,14931.000000,25201.000000,61664.000000
25814.000000,14940.000000,25175.000000,61664.000000
25822.000000,14947.000000,25239.000000,61663.000000
25831.000000,14974.000000,25220.000000,61658.000000
25773.000000,14919.000000,25210.000000,61654.000000
25796.000000,14922.000000,25199.000000,61665.000000
25780.000000,14918.000000,25168.000000,61662.000000
25805.000000,14917.000000,25170.000000,61645.000000
25805.000000,14923.000000,25159.000000,61642.000000
25795.000000,14927.000000,25142.000000,61621.000000
25767.000000,14927.000000,25155.000000,61643.000000
25785.000000,14922.000000,25150.000000,61652.000000
25750.000000,14872.000000,25157.000000,61637.000000
25752.000000,14931.000000,25158.000000,61629.000000
25736.000000,14933.000000,25176.000000,61633.000000
25731.000000,14928.000000,25180.000000,61637.000000
25732.000000,14887.000000,25147.000000,61644.000000
25761.000000,14881.000000,25147.000000,61626.000000
25764.000000,14890.000000,25142.000000,61616.000000
25756.000000,14873.000000,25137.000000,61616.000000
25732.000000,14896.000000,25137.000000,61605.000000
25754.000000,14886.000000,25091.000000,61604.000000
25736.000000,14878.000000,25134.000000,61588.000000
25733.000000,14877.000000,25129.000000,61630.000000
25697.000000,14858.000000,25097.000000,61595.000000
25701.000000,14879.000000,25111.000000,61568.000000
25713.000000,14872.000000,25095.000000,61582.000000
25696.000000,14844.000000,25084.000000,61571.000000
25700.000000,14869.000000,25093.000000,61593.000000
25694.000000,14868.000000,25086.000000,61567.000000
25697.000000,14868.000000,25065.000000,61576.000000
25681.000000,14851.000000,25036.000000,61553.000000
25675.000000,14873.000000,25065.000000,61557.000000
25644.000000,14865.000000,25037.000000,61567.000000
25650.000000,14856.000000,25031.000000,61554.000000
25673.000000,14832.000000,25026.000000,61568.000000
25637.000000,14849.000000,25045.000000,61546.000000
25638.000000,14825.000000,25015.000000,61550.000000
25639.000000,14825.000000,24990.000000,61516.000000
25630.000000,14811.000000,24985.000000,61549.000000
25683.000000,14798.000000,25013.000000,61524.000000
25649.000000,14840.000000,25009.000000,61496.000000
25642.000000,14838.000000,24993.000000,61515.000000
25620.000000,14840.000000,25004.000000,61536.000000
25631.000000,14837.000000,24987.000000,61538.000000
25603.000000,14843.000000,24984.000000,61520.000000
25632.000000,14857.000000,24994.000000,61510.000000
25627.000000,14805.000000,24981.000000,61513.000000
25596.000000,14826.000000,24953.000000,61518.000000
25602.000000,14792.000000,24956.000000,61522.000000
25614.000000,14790.000000,24951.000000,61462.000000
25610.000000,14832.000000,24982.000000,61500.000000
25593.000000,14769.000000,24970.000000,61463.000000
25618.000000,14817.000000,24946.000000,61490.000000
25605.000000,14802.000000,24973.000000,61482.000000
25588.000000,14780.000000,24925.000000,61485.000000
25591.000000,14788.000000,24916.000000,61497.000000
25575.000000,14777.000000,24924.000000,61483.000000
25573.000000,14750.000000,24918.000000,61481.000000
25552.000000,14784.000000,24907.000000,61465.000000
25558.000000,14754.000000,24901.000000,61482.000000
25534.000000,14766.000000,24895.000000,61471.000000
25531.000000,14786.000000,24894.000000,61450.000000
25555.000000,14788.000000,24906.000000,61467.000000
25528.000000,14741.000000,24900.000000,61459.000000
25533.000000,14722.000000,24863.000000,61464.000000
25511.000000,14738.000000,24884.000000,61448.000000
25538.000000,14796.000000,24847.000000,61409.000000
25523.000000,14742.000000,24887.000000,61447.000000
25484.000000,14747.000000,24870.000000,61419.000000
25451.000000,14733.000000,24858.000000,61419.000000
25495.000000,14718.000000,24841.000000,61430.000000
25465.000000,14726.000000,24803.000000,61430.000000
25487.000000,14741.000000,24813.000000,61414.000000
25463.000000,14713.000000,24816.000000,61393.000000
25437.000000,14706.000000,24810.000000,61406.000000
25455.000000,14688.000000,24810.000000,61392.000000
25440.000000,14739.000000,24800.000000,61375.000000
25392.000000,14709.000000,24817.000000,61400.000000
25399.000000,14725.000000,24767.000000,61387.000000
25421.000000,14644.000000,24784.000000,61364.000000
25426.000000,14674.000000,24807.000000,61379.000000
25384.000000,14666.000000,24752.000000,61370.000000
25383.000000,14696.000000,24735.000000,61368.000000
25374.000000,14679.000000,24745.000000,61380.000000
25390.000000,14646.000000,24724.000000,61359.000000
25364.000000,14651.000000,24732.000000,61380.000000
25403.000000,14678.000000,24748.000000,61354.000000
25403.000000,14644.000000,24760.000000,61364.000000
25338.000000,14660.000000,24728.000000,61379.000000
25324.000000,14641.000000,24739.000000,61357.000000
25386.000000,14643.000000,24736.000000,61339.000000
25348.000000,14647.000000,24702.000000,61326.000000
25360.000000,14639.000000,24714.000000,61337.000000
25328.000000,14673.000000,24695.000000,61348.000000
25389.000000,14644.000000,24715.000000,61348.000000
25361.000000,14645.000000,24705.000000,61347.000000
25356.000000,14667.000000,24702.000000,61340.000000
25344.000000,14631.000000,24705.000000,61332.000000
25332.000000,14621.000000,24715.000000,61340.000000
25331.000000,14687.000000,24723.000000,61331.000000
25352.000000,14624.000000,24691.000000,61307.000000
25297.000000,14642.000000,24682.000000,61344.000000
25312.000000,14634.000000,24702.000000,61364.000000
25316.000000,14643.000000,24671.000000,61337.000000
25306.000000,14647.000000,24684.000000,61327.000000
25317.000000,14630.000000,24644.000000,61322.000000
25321.000000,14648.000000,24673.000000,61301.000000
25282.000000,14639.000000,24657.000000,61291.000000
25299.000000,14648.000000,24682.000000,61322.000000
25295.000000,14620.000000,24670.000000,61327.000000
25268.000000,14600.000000,24682.000000,61287.000000
25275.000000,14627.000000,24683.000000,61345.000000
25262.000000,14606.000000,24667.000000,61321.000000
25307.000000,14623.000000,24629.000000,61304.000000
25298.000000,14604.000000,24655.000000,61278.000000
25265.000000,14611.000000,24654.000000,61305.000000
25292.000000,14569.000000,24651.000000,61312.000000
25286.000000,14591.000000,24647.000000,61301.000000
25308.000000,14582.000000,24685.000000,61310.000000
25269.000000,14618.000000,24685.000000,61331.000000
25299.000000,14605.000000,24659.000000,61337.000000
25301.000000,14609.000000,24664.000000,61316.000000
25288.000000,14571.000000,24685.000000,61331.000000
25315.000000,14644.000000,24679.000000,61340.000000
25339.000000,14648.000000,24715.000000,61384.000000
25356.000000,14656.000000,24749.000000,61347.000000
25385.000000,14679.000000,24770.000000,61359.000000
25375.000000,14689.000000,24776.000000,61415.000000
25398.000000,14683.000000,24806.000000,61435.000000
25428.000000,14683.000000,24809.000000,61412.000000
25439.000000,14708.000000,24832.000000,61419.000000
25425.000000,14704.000000,24859.000000,61443.000000
25468.000000,14763.000000,24850.000000,61461.000000
25488.000000,14743.000000,24919.000000,61474.000000
25549.000000,14740.000000,24921.000000,61490.000000
25516.000000,14743.000000,24958.000000,61489.000000
25549.000000,14787.000000,24975.000000,61512.000000
25541.000000,14810.000000,25023.000000,61490.000000
25563.000000,14808.000000,24983.000000,61557.000000
25579.000000,14815.000000,25036.000000,61550.000000
25623.000000,14805.000000,25028.000000,61564.000000
25609.000000,14838.000000,25104.000000,61580.000000
25644.000000,14855.000000,25054.000000,61587.000000
25660.000000,14844.000000,25130.000000,61594.000000
25670.000000,14903.000000,25154.000000,61635.000000
25662.000000,14890.000000,25148.000000,61604.000000
25725.000000,14909.000000,25183.000000,61633.000000
25712.000000,14931.000000,25205.000000,61638.000000
25716.000000,14941.000000,25242.000000,61655.000000
25714.000000,14917.000000,25249.000000,61704.000000
25744.000000,14945.000000,25232.000000,61656.000000
25832.000000,14977.000000,25360.000000,61715.000000
25837.000000,14999.000000,25391.000000,61742.000000
25830.000000,15032.000000,25420.000000,61775.000000
25851.000000,15048.000000,25440.000000,61791.000000
25914.000000,15075.000000,25513.000000,61845.000000
25969.000000,15112.000000,25539.000000,61848.000000
25956.000000,15128.000000,25577.000000,61866.000000
26004.000000,15104.000000,25599.000000,61891.000000
26023.000000,15158.000000,25609.000000,61898.000000
26063.000000,15151.000000,25642.000000,61900.000000
26083.000000,15177.000000,25659.000000,61914.000000
26056.000000,15205.000000,25679.000000,61907.000000
26112.000000,15190.000000,25661.000000,61902.000000
26044.000000,15164.000000,25653.000000,61902.000000
26051.000000,15185.000000,25653.000000,61933.000000
25998.000000,15147.000000,25639.000000,61883.000000
26021.000000,15197.000000,25615.000000,61892.000000
26039.000000,15164.000000,25588.000000,61843.000000
26028.000000,15125.000000,25585.000000,61895.000000
26015.000000,15170.000000,25574.000000,61848.000000
26015.000000,15160.000000,25598.000000,61857.000000
25982.000000,15164.000000,25596.000000,61857.000000
25991.000000,15118.000000,25547.000000,61835.000000
25951.000000,15125.000000,25558.000000,61849.000000
25964.000000,15099.000000,25479.000000,61834.000000
25960.000000,15097.000000,25522.000000,61816.000000
25942.000000,15119.000000,25530.000000,61825.000000
25956.000000,15089.000000,25506.000000,61829.000000
25942.000000,15102.000000,25457.000000,61812.000000
25919.000000,15074.000000,25445.000000,61808.000000
25914.000000,15041.000000,25423.000000,61798.000000
25922.000000,15053.000000,25434.000000,61800.000000
25873.000000,15041.000000,25412.000000,61791.000000
25879.000000,15081.000000,25421.000000,61778.000000
25897.000000,15081.000000,25415.000000,61781.000000
25877.000000,15066.000000,25389.000000,61751.000000
25864.000000,15055.000000,25408.000000,61769.000000
25862.000000,15026.000000,25370.000000,61740.000000
25855.000000,15042.000000,25407.000000,61716.000000
25855.000000,15032.000000,25374.000000,61733.000000
25833.000000,15062.000000,25371.000000,61752.000000
25820.000000,15042.000000,25378.000000,61723.000000
25807.000000,15014.000000,25367.000000,61721.000000
25817.000000,14998.000000,25319.000000,61735.000000
25817.000000,15003.000000,25319.000000,61711.000000
25820.000000,14990.000000,25318.000000,61716.000000
25823.000000,15004.000000,25318.000000,61697.000000
25794.000000,14962.000000,25315.000000,61678.000000
25790.000000,15034.000000,25308.000000,61674.000000
25786.000000,14975.000000,25305.000000,61689.000000
25778.000000,14956.000000,25277.000000,61693.000000
25768.000000,14968.000000,25297.000000,61661.000000
25759.000000,14945.000000,25235.000000,61648.000000
25740.000000,14948.000000,25241.000000,61659.000000
25725.000000,14964.000000,25240.000000,61644.000000
25737.000000,14944.000000,25217.000000,61637.000000
25703.000000,14943.000000,25208.000000,61647.000000
25716.000000,14909.000000,25164.000000,61617.000000
25703.000000,14890.000000,25195.000000,61631.000000
25686.000000,14937.000000,25184.000000,61617.000000
25677.000000,14905.000000,25149.000000,61598.000000
25668.000000,14914.000000,25179.000000,61592.000000
25679.000000,14929.000000,25124.000000,61581.000000
25678.000000,14928.000000,25138.000000,61577.000000
25638.000000,14905.000000,25108.000000,61578.000000
25642.000000,14901.000000,25104.000000,61574.000000
25632.000000,14879.000000,25050.000000,61581.000000
25654.000000,14868.000000,25076.000000,61559.000000
25631.000000,14869.000000,25050.000000,61531.000000
25633.000000,14846.000000,25041.000000,61549.000000
25606.000000,14832.000000,25035.000000,61542.000000
25601.000000,14855.000000,24985.000000,61520.000000
25602.000000,14832.000000,25004.000000,61507.000000
25574.000000,14816.000000,24997.000000,61519.000000
25584.000000,14810.000000,24989.000000,61514.000000
25588.000000,14816.000000,24952.000000,61495.000000
25605.000000,14820.000000,24932.000000,61497.000000
25596.000000,14815.000000,24962.000000,61484.000000
25579.000000,14820.000000,24924.000000,61456.000000
25560.000000,14793.000000,24900.000000,61480.000000
25531.000000,14768.000000,24886.000000,61437.000000
25545.000000,14793.000000,24900.000000,61450.000000
25516.000000,14759.000000,24907.000000,61469.000000
25529.000000,14745.000000,24869.000000,61473.000000
25504.000000,14758.000000,24872.000000,61451.000000
25557.000000,14765.000000,24830.000000,61425.000000
25509.000000,14748.000000,24867.000000,61418.000000
25535.000000,14711.000000,24860.000000,61425.000000
25493.000000,14710.000000,24847.000000,61433.000000
25496.000000,14744.000000,24794.000000,61389.000000
25495.000000,14715.000000,24834.000000,61418.000000
25461.000000,14717.000000,24784.000000,61431.000000
25446.000000,14690.000000,24778.000000,61424.000000
25470.000000,14696.000000,24776.000000,61407.000000
25443.000000,14663.000000,24739.000000,61381.000000
25437.000000,14695.000000,24710.000000,61357.000000
25423.000000,14666.000000,24704.000000,61372.000000
25424.000000,14673.000000,24719.000000,61351.000000
25405.000000,14715.000000,24697.000000,61333.000000
25415.000000,14638.000000,24690.000000,61375.000000
25384.000000,14641.000000,24667.000000,61332.000000
25379.000000,14639.000000,24676.000000,61336.000000
25396.000000,14647.000000,24638.000000,61317.000000
25346.000000,14611.000000,24639.000000,61294.000000
25321.000000,14628.000000,24642.000000,61341.000000
25338.000000,14622.000000,24623.000000,61325.000000
25362.000000,14606.000000,24593.000000,61286.000000
25325.000000,14590.000000,24579.000000,61278.000000
25303.000000,14603.000000,24593.000000,61261.000000
25308.000000,14578.000000,24585.000000,61280.000000
25274.000000,14557.000000,24551.000000,61276.000000
25264.000000,14566.000000,24529.000000,61248.000000
25262.000000,14557.000000,24557.000000,61247.000000
25259.000000,14544.000000,24556.000000,61233.000000
25246.000000,14537.000000,24528.000000,61259.000000
25224.000000,14500.000000,24473.000000,61219.000000
25224.000000,14571.000000,24442.000000,61229.000000
25208.000000,14509.000000,24449.000000,61207.000000
25244.000000,14526.000000,24434.000000,61216.000000
25185.000000,14545.000000,24470.000000,61210.000000
25204.000000,14476.000000,24430.000000,61221.000000
25228.000000,14490.000000,24427.000000,61212.000000
25200.000000,14500.000000,24423.000000,61172.000000
25198.000000,14507.000000,24392.000000,61199.000000
25182.000000,14492.000000,24415.000000,61163.000000
25181.000000,14487.000000,24411.000000,61163.000000
25194.000000,14477.000000,24386.000000,61177.000000
25176.000000,14449.000000,24354.000000,61172.000000
25151.000000,14469.000000,24332.000000,61154.000000
25151.000000,14454.000000,24321.000000,61136.000000
25177.000000,14465.000000,24304.000000,61151.000000
25164.000000,14454.000000,24329.000000,61142.000000
25140.000000,14468.000000,24306.000000,61132.000000
25123.000000,14439.000000,24288.000000,61124.000000
25132.000000,14449.000000,24254.000000,61119.000000
25133.000000,14423.000000,24290.000000,61130.000000
25128.000000,14410.000000,24265.000000,61114.000000
25095.000000,14391.000000,24229.000000,61078.000000
25101.000000,14393.000000,24206.000000,61112.000000
25093.000000,14384.000000,24196.000000,61097.000000
25080.000000,14379.000000,24173.000000,61103.000000
25099.000000,14367.000000,24178.000000,61051.000000
25065.000000,14361.000000,24158.000000,61044.000000
25055.000000,14363.000000,24116.000000,61072.000000
25066.000000,14359.000000,24136.000000,61000.000000
25058.000000,14368.000000,24119.000000,61060.000000
25059.000000,14320.000000,24129.000000,61026.000000
25013.000000,14325.000000,24116.000000,61042.000000
25023.000000,14284.000000,24124.000000,61019.000000
25023.000000,14325.000000,24093.000000,61032.000000
25004.000000,14300.000000,24078.000000,61033.000000
25025.000000,14320.000000,24103.000000,61008.000000
25059.000000,14322.000000,24079.000000,61026.000000
25051.000000,14324.000000,24109.000000,61020.000000
25050.000000,14307.000000,24114.000000,61033.000000
25065.000000,14342.000000,24110.000000,61056.000000
25101.000000,14335.000000,24113.000000,61038.000000
25081.000000,14336.000000,24149.000000,61053.000000
25102.000000,14333.000000,24155.000000,61043.000000
25104.000000,14347.000000,24162.000000,61047.000000
25119.000000,14338.000000,24168.000000,61083.000000
25095.000000,14381.000000,24183.000000,61090.000000
25120.000000,14362.000000,24205.000000,61091.000000
25158.000000,14389.000000,24192.000000,61129.000000
25183.000000,14377.000000,24233.000000,61119.000000
25182.000000,14426.000000,24250.000000,61150.000000
25209.000000,14397.000000,24253.000000,61149.000000
25230.000000,14432.000000,24281.000000,61127.000000
25229.000000,14446.000000,24295.000000,61173.000000
25226.000000,14422.000000,24301.000000,61186.000000
25261.000000,14468.000000,24338.000000,61185.000000
25277.000000,14502.000000,24350.000000,61234.000000
25301.000000,14486.000000,24361.000000,61192.000000
25299.000000,14468.000000,24403.000000,61238.000000
25299.000000,14534.000000,24408.000000,61225.000000
25354.000000,14509.000000,24423.000000,61270.000000
25368.000000,14542.000000,24482.000000,61248.000000
25411.000000,14562.000000,24487.000000,61268.000000
25442.000000,14594.000000,24520.000000,61300.000000
25422.000000,14600.000000,24539.000000,61294.000000
25409.000000,14614.000000,24577.000000,61330.000000
25460.000000,14569.000000,24553.000000,61305.000000
25482.000000,14623.000000,24598.000000,61351.000000
25505.000000,14610.000000,24637.000000,61370.000000
25534.000000,14651.000000,24651.000000,61380.000000
25559.000000,14658.000000,24669.000000,61391.000000
25566.000000,14717.000000,24667.000000,61400.000000
25569.000000,14693.000000,24698.000000,61431.000000
25632.000000,14711.000000,24710.000000,61438.000000
25657.000000,14740.000000,24757.000000,61451.000000
25642.000000,14773.000000,24750.000000,61470.000000
25657.000000,14726.000000,24794.000000,61491.000000
25678.000000,14765.000000,24813.000000,61529.000000
25702.000000,14823.000000,24842.000000,61475.000000
25710.000000,14785.000000,24848.000000,61514.000000
25727.000000,14814.000000,24882.000000,61517.000000
25720.000000,14807.000000,24857.000000,61518.000000
25703.000000,14812.000000,24863.000000,61504.000000
25706.000000,14808.000000,24892.000000,61505.000000
25751.000000,14809.000000,24863.000000,61521.000000
25734.000000,14816.000000,24895.000000,61515.000000
25746.000000,14823.000000,24873.000000,61521.000000
25711.000000,14805.000000,24840.000000,61507.000000
25734.000000,14785.000000,24820.000000,61478.000000
25708.000000,14813.000000,24815.000000,61463.000000
25685.000000,14818.000000,24811.000000,61485.000000
25680.000000,14733.000000,24811.000000,61484.000000
25686.000000,14747.000000,24765.000000,61476.000000
25672.000000,14725.000000,24722.000000,61449.000000
25681.000000,14750.000000,24700.000000,61440.000000
25649.000000,14758.000000,24720.000000,61448.000000
25646.000000,14713.000000,24706.000000,61432.000000
25645.000000,14712.000000,24712.000000,61399.000000
25619.000000,14686.000000,24658.000000,61387.000000
25610.000000,14709.000000,24631.000000,61378.000000
25616.000000,14689.000000,24622.000000,61371.000000
25616.000000,14646.000000,24627.000000,61407.000000
25563.000000,14640.000000,24597.000000,61357.000000
25538.000000,14629.000000,24565.000000,61383.000000
25568.000000,14643.000000,24553.000000,61344.000000
25562.000000,14585.000000,24510.000000,61329.000000
25539.000000,14615.000000,24504.000000,61337.000000
25547.000000,14547.000000,24481.000000,61319.000000
25510.000000,14606.000000,24493.000000,61291.000000
25519.000000,14560.000000,24490.000000,61307.000000
25504.000000,14535.000000,24427.000000,61297.000000
25491.000000,14571.000000,24451.000000,61255.000000
25457.000000,14561.000000,24422.000000,61263.000000
25467.000000,14537.000000,24399.000000,61272.000000
25417.000000,14535.000000,24361.000000,61266.000000
25475.000000,14531.000000,24357.000000,61265.000000
25414.000000,14521.000000,24334.000000,61241.000000
25422.000000,14496.000000,24329.000000,61257.000000
25459.000000,14473.000000,24292.000000,61217.000000
25388.000000,14451.000000,24273.000000,61236.000000
25382.000000,14473.000000,24270.000000,61233.000000
25380.000000,14419.000000,24277.000000,61204.000000
25387.000000,14441.000000,24219.000000,61177.000000
25350.000000,14439.000000,24204.000000,61184.000000
25308.000000,14404.000000,24204.000000,61164.000000
25321.000000,14399.000000,24195.000000,61141.000000
25292.000000,14382.000000,24157.000000,61128.000000
25286.000000,14350.000000,24148.000000,61141.000000
25302.000000,14354.000000,24117.000000,61133.000000
25248.000000,14333.000000,24078.000000,61120.000000
25256.000000,14367.000000,24042.000000,61098.000000
25248.000000,14326.000000,24038.000000,61091.000000
25263.000000,14308.000000,24015.000000,61069.000000
25214.000000,14316.000000,24027.000000,61076.000000
25250.000000,14298.000000,24029.000000,61069.000000
25201.000000,14291.000000,24009.000000,61096.000000
25196.000000,14284.000000,23996.000000,61055.000000
25192.000000,14296.000000,23964.000000,61044.000000
25193.000000,14253.000000,23944.000000,61035.000000
25149.000000,14261.000000,23946.000000,61029.000000
25155.000000,14226.000000,23906.000000,61030.000000
25143.000000,14227.000000,23890.000000,60999.000000
25151.000000,14234.000000,23875.000000,60994.000000
25126.000000,14245.000000,23858.000000,61003.000000
25102.000000,14198.000000,23871.000000,60973.000000
25131.000000,14179.000000,23834.000000,60971.000000
25122.000000,14148.000000,23816.000000,60948.000000
25098.000000,14165.000000,23784.000000,60961.000000
25096.000000,14142.000000,23781.000000,60906.000000
25063.000000,14170.000000,23730.000000,60959.000000
25024.000000,14127.000000,23729.000000,60921.000000
25027.000000,14139.000000,23722.000000,60942.000000
25022.000000,14150.000000,23679.000000,60878.000000
25017.000000,14126.000000,23707.000000,60900.000000
24988.000000,14114.000000,23643.000000,60906.000000
25021.000000,14130.000000,23679.000000,60870.000000
24999.000000,14102.000000,23631.000000,60871.000000
24981.000000,14087.000000,23639.000000,60856.000000
24986.000000,14066.000000,23601.000000,60868.000000
24952.000000,14089.000000,23601.000000,60858.000000
24948.000000,14028.000000,23567.000000,60816.000000
24962.000000,14075.000000,23555.000000,60842.000000
24912.000000,14038.000000,23589.000000,60817.000000
24896.000000,14025.000000,23501.000000,60801.000000
24928.000000,14025.000000,23543.000000,60807.000000
24899.000000,14018.000000,23519.000000,60815.000000
24894.000000,13985.000000,23453.000000,60795.000000
24894.000000,13973.000000,23460.000000,60798.000000
24868.000000,13973.000000,23449.000000,60764.000000
24872.000000,13970.000000,23433.000000,60758.000000
24889.000000,13937.000000,23417.000000,60758.000000
24851.000000,13982.000000,23425.000000,60759.000000
24838.000000,13933.000000,23442.000000,60780.000000
24839.000000,13930.000000,23383.000000,60713.000000
24846.000000,13938.000000,23374.000000,60741.000000
24820.000000,13885.000000,23368.000000,60716.000000
24791.000000,13913.000000,23359.000000,60714.000000
24816.000000,13897.000000,23323.000000,60706.000000
24807.000000,13895.000000,23311.000000,60690.000000
24773.000000,13899.000000,23287.000000,60664.000000
24772.000000,13874.000000,23296.000000,60684.000000
24776.000000,13870.000000,23255.000000,60657.000000
24748.000000,13848.000000,23229.000000,60657.000000
24738.000000,13839.000000,23224.000000,60635.000000
24750.000000,13810.000000,23204.000000,60594.000000
24680.000000,13804.000000,23212.000000,60632.000000
24725.000000,13808.000000,23153.000000,60618.000000
24674.000000,13767.000000,23148.000000,60614.000000
24718.000000,13801.000000,23130.000000,60625.000000
24663.000000,13765.000000,23126.000000,60585.000000
24671.000000,13766.000000,23094.000000,60584.000000
24671.000000,13752.000000,23099.000000,60569.000000
24662.000000,13734.000000,23100.000000,60565.000000
24645.000000,13753.000000,23103.000000,60605.000000
24671.000000,13746.000000,23033.000000,60521.000000
24629.000000,13738.000000,23103.000000,60581.000000
24636.000000,13737.000000,23080.000000,60544.000000
24634.000000,13695.000000,23088.000000,60576.000000
24660.000000,13715.000000,23026.000000,60521.000000
24650.000000,13710.000000,23056.000000,60538.000000
24669.000000,13728.000000,23008.000000,60567.000000
24646.000000,13694.000000,23046.000000,60534.000000
24607.000000,13738.000000,23035.000000,60531.000000
24651.000000,13717.000000,23042.000000,60549.000000
24655.000000,13684.000000,23020.000000,60524.000000
24649.000000,13690.000000,23051.000000,60529.000000
24639.000000,13690.000000,23029.000000,60502.000000
24598.000000,13719.000000,23044.000000,60524.000000
24592.000000,13704.000000,23000.000000,60523.000000
24611.000000,13700.000000,23001.000000,60494.000000
24602.000000,13694.000000,23029.000000,60499.000000
24626.000000,13697.000000,23009.000000,60525.000000
24662.000000,13701.000000,23003.000000,60501.000000
24613.000000,13709.000000,22983.000000,60530.000000
24610.000000,13676.000000,22996.000000,60527.000000
24619.000000,13673.000000,23013.000000,60513.000000
24586.000000,13698.000000,23006.000000,60478.000000
24620.000000,13694.000000,22974.000000,60501.000000
24571.000000,13657.000000,22997.000000,60537.000000
24586.000000,13688.000000,22991.000000,60529.000000
24555.000000,13680.000000,22995.000000,60504.000000
24570.000000,13659.000000,22951.000000,60523.000000
24608.000000,13661.000000,22955.000000,60497.000000
24599.000000,13725.000000,22998.000000,60520.000000
24613.000000,13701.000000,22995.000000,60513.000000
24646.000000,13670.000000,22992.000000,60524.000000
24631.000000,13678.000000,23006.000000,60528.000000
24658.000000,13703.000000,23033.000000,60522.000000
24652.000000,13695.000000,23043.000000,60544.000000
24686.000000,13734.000000,23049.000000,60566.000000
24667.000000,13718.000000,23085.000000,60548.000000
24693.000000,13763.000000,23106.000000,60586.000000
24738.000000,13800.000000,23141.000000,60604.000000
24749.000000,13822.000000,23176.000000,60619.000000
24749.000000,13809.000000,23223.000000,60633.000000
24793.000000,13794.000000,23209.000000,60621.000000
24780.000000,13805.000000,23260.000000,60648.000000
24802.000000,13841.000000,23297.000000,60683.000000
24789.000000,13841.000000,23295.000000,60704.000000
24820.000000,13854.000000,23310.000000,60691.000000
24805.000000,13863.000000,23318.000000,60715.000000
24886.000000,13902.000000,23345.000000,60739.000000
24855.000000,13889.000000,23409.000000,60742.000000
24919.000000,13926.000000,23400.000000,60739.000000
24926.000000,13929.000000,23441.000000,60770.000000
24891.000000,13974.000000,23455.000000,60802.000000
24946.000000,13978.000000,23478.000000,60777.000000
24936.000000,13954.000000,23512.000000,60811.000000
24945.000000,14011.000000,23524.000000,60844.000000
24975.000000,14019.000000,23571.000000,60875.000000
24976.000000,14028.000000,23587.000000,60912.000000
25017.000000,14061.000000,23630.000000,60895.000000
25041.000000,14087.000000,23652.000000,60904.000000
25075.000000,14096.000000,23700.000000,60929.000000
25096.000000,14126.000000,23714.000000,60931.000000
25099.000000,14128.000000,23766.000000,60956.000000
25114.000000,14159.000000,23783.000000,60979.000000
25167.000000,14175.000000,23835.000000,61025.000000
25217.000000,14180.000000,23857.000000,61047.000000
25217.000000,14175.000000,23878.000000,61049.000000
25227.000000,14241.000000,23926.000000,61071.000000
25259.000000,14245.000000,23963.000000,61114.000000
25273.000000,14275.000000,23974.000000,61118.000000
25283.000000,14273.000000,24031.000000,61128.000000
25298.000000,14265.000000,24033.000000,61125.000000
25332.000000,14250.000000,24077.000000,61140.000000
25322.000000,14342.000000,24091.000000,61168.000000
25332.000000,14318.000000,24079.000000,61148.000000
25341.000000,14319.000000,24079.000000,61179.000000
25350.000000,14320.000000,24128.000000,61184.000000
25378.000000,14349.000000,24126.000000,61166.000000
25399.000000,14379.000000,24146.000000,61182.000000
25399.000000,14368.000000,24151.000000,61210.000000
25352.000000,14309.000000,24124.000000,61177.000000
25379.000000,14343.000000,24147.000000,61188.000000
25380.000000,14349.000000,24110.000000,61159.000000
25378.000000,14368.000000,24161.000000,61170.000000
25369.000000,14346.000000,24147.000000,61161.000000
25357.000000,14362.000000,24133.000000,61187.000000
25333.000000,14335.000000,24150.000000,61182.000000
25336.000000,14328.000000,24135.000000,61207.000000
25340.000000,14336.000000,24116.000000,61166.000000
25346.000000,14346.000000,24099.000000,61176.000000
25338.000000,14317.000000,24113.000000,61158.000000
25325.000000,14335.000000,24110.000000,61173.000000
25309.000000,14331.000000,24096.000000,61175.000000
25314.000000,14292.000000,24107.000000,61167.000000
25323.000000,14312.000000,24073.000000,61132.000000
25292.000000,14317.000000,24115.000000,61153.000000
25310.000000,14328.000000,24094.000000,61121.000000
25297.000000,14303.000000,24091.000000,61132.000000
25284.000000,14309.000000,24005.000000,61163.000000
25276.000000,14286.000000,24067.000000,61130.000000
25290.000000,14275.000000,24022.000000,61121.000000
25324.000000,14304.000000,24004.000000,61117.000000
25255.000000,14313.000000,23990.000000,61095.000000
25268.000000,14282.000000,23991.000000,61109.000000
25269.000000,14275.000000,24028.000000,61117.000000
25245.000000,14273.000000,23980.000000,61097.000000
25254.000000,14273.000000,23981.000000,61111.000000
25220.000000,14243.000000,23993.000000,61115.000000
25250.000000,14300.000000,23956.000000,61077.000000
25204.000000,14269.000000,23989.000000,61094.000000
25200.000000,14240.000000,23967.000000,61084.000000
25199.000000,14253.000000,23946.000000,61081.000000
25191.000000,14227.000000,23950.000000,61050.000000
25168.000000,14225.000000,23914.000000,61072.000000
25202.000000,14225.000000,23906.000000,61057.000000
25184.000000,14252.000000,23918.000000,61043.000000
25220.000000,14217.000000,23900.000000,61057.000000
25183.000000,14206.000000,23904.000000,61050.000000
25183.000000,14197.000000,23902.000000,61028.000000
25192.000000,14219.000000,23892.000000,61001.000000
25183.000000,14232.000000,23888.000000,61030.000000
25146.000000,14201.000000,23879.000000,61039.000000
25127.000000,14200.000000,23851.000000,61052.000000
25100.000000,14172.000000,23863.000000,61026.000000
25117.000000,14201.000000,23844.000000,61022.000000
25112.000000,14172.000000,23837.000000,60995.000000
25147.000000,14178.000000,23828.000000,61004.000000
25157.000000,14168.000000,23828.000000,61016.000000
25109.000000,14150.000000,23820.000000,60973.000000
25114.000000,14181.000000,23817.000000,60985.000000
25100.000000,14153.000000,23818.000000,61000.000000
25087.000000,14156.000000,23792.000000,60984.000000
25104.000000,14140.000000,23799.000000,61002.000000
25117.000000,14145.000000,23790.000000,61010.000000
25095.000000,14136.000000,23788.000000,60945.000000
25075.000000,14145.000000,23774.000000,60975.000000
25039.000000,14113.000000,23794.000000,60975.000000
25046.000000,14132.000000,23763.000000,60975.000000
25017.000000,14102.000000,23777.000000,60933.000000
25009.000000,14085.000000,23743.000000,60965.000000
25043.000000,14119.000000,23740.000000,60913.000000
25057.000000,14123.000000,23721.000000,60947.000000
25046.000000,14108.000000,23735.000000,60927.000000
25046.000000,14095.000000,23764.000000,60974.000000
25028.000000,14107.000000,23714.000000,60915.000000
25015.000000,14097.000000,23756.000000,60945.000000
25035.000000,14103.000000,23735.000000,60927.000000
25040.000000,14098.000000,23730.000000,60921.000000
25034.000000,14092.000000,23753.000000,60907.000000
25027.000000,14120.000000,23737.000000,60923.000000
25001.000000,14070.000000,23725.000000,60937.000000
25003.000000,14100.000000,23729.000000,60956.000000
24999.000000,14096.000000,23723.000000,60928.000000
25002.000000,14106.000000,23708.000000,60937.000000
25004.000000,14111.000000,23733.000000,60930.000000
25004.000000,14099.000000,23682.000000,60930.000000
24973.000000,14068.000000,23690.000000,60918.000000
24984.000000,14063.000000,23722.000000,60921.000000
24991.000000,14078.000000,23699.000000,60927.000000
24979.000000,14095.000000,23698.000000,60909.000000
24990.000000,14082.000000,23715.000000,60882.000000
25002.000000,14101.000000,23736.000000,60941.000000
24981.000000,14090.000000,23743.000000,60897.000000
24975.000000,14110.000000,23718.000000,60900.000000
24973.000000,14063.000000,23742.000000,60897.000000
24971.000000,14094.000000,23725.000000,60908.000000
24964.000000,14090.000000,23721.000000,60909.000000
24966.000000,14089.000000,23672.000000,60885.000000
24914.000000,14063.000000,23720.000000,60929.000000
24955.000000,14097.000000,23722.000000,60904.000000
24920.000000,14067.000000,23718.000000,60897.000000
24920.000000,14071.000000,23704.000000,60908.000000
24914.000000,14077.000000,23700.000000,60924.000000
24935.000000,14081.000000,23704.000000,60893.000000
24917.000000,14032.000000,23690.000000,60893.000000
24940.000000,14052.000000,23722.000000,60888.000000
24889.000000,14087.000000,23734.000000,60906.000000
24911.000000,14062.000000,23723.000000,60918.000000
24887.000000,14059.000000,23729.000000,60904.000000
24917.000000,14081.000000,23682.000000,60873.000000
24937.000000,14077.000000,23708.000000,60871.000000
24887.000000,14068.000000,23715.000000,60879.000000
24874.000000,14123.000000,23688.000000,60910.000000
24882.000000,14075.000000,23716.000000,60901.000000
24849.000000,14085.000000,23710.000000,60910.000000
24915.000000,14084.000000,23726.000000,60871.000000
24900.000000,14090.000000,23708.000000,60895.000000
24885.000000,14069.000000,23700.000000,60879.000000
24882.000000,14093.000000,23705.000000,60885.000000
24908.000000,14087.000000,23688.000000,60898.000000
24890.000000,14106.000000,23710.000000,60913.000000
24881.000000,14048.000000,23717.000000,60909.000000
24896.000000,14080.000000,23708.000000,60861.000000
24894.000000,14054.000000,23704.000000,60886.000000
24897.000000,14105.000000,23731.000000,60873.000000
24851.000000,14059.000000,23729.000000,60848.000000
24874.000000,14096.000000,23725.000000,60884.000000
24851.000000,14071.000000,23716.000000,60899.000000
24846.000000,14065.000000,23704.000000,60876.000000
24855.000000,14062.000000,23726.000000,60897.000000
24871.000000,14070.000000,23698.000000,60884.000000
24852.000000,14093.000000,23684.000000,60869.000000
24859.000000,14074.000000,23681.000000,60885.000000
24883.000000,14060.000000,23720.000000,60890.000000
24862.000000,14079.000000,23716.000000,60868.000000
24854.000000,14101.000000,23722.000000,60886.000000
24881.000000,14067.000000,23695.000000,60863.000000
24834.000000,14077.000000,23721.000000,60846.000000
24807.000000,14067.000000,23707.000000,60869.000000
24832.000000,14082.000000,23714.000000,60877.000000
24831.000000,14061.000000,23713.000000,60843.000000
24811.000000,14064.000000,23697.000000,60857.000000
24813.000000,14041.000000,23668.000000,60846.000000
24826.000000,14075.000000,23695.000000,60843.000000
24822.000000,14059.000000,23697.000000,60872.000000
24850.000000,14062.000000,23682.000000,60833.000000
24816.000000,14069.000000,23699.000000,60841.000000
24826.000000,14048.000000,23711.000000,60865.000000
24841.000000,14056.000000,23706.000000,60864.000000
24840.000000,14076.000000,23740.000000,60883.000000
24808.000000,14072.000000,23707.000000,60878.000000
24853.000000,14103.000000,23740.000000,60883.000000
24887.000000,14083.000000,23778.000000,60887.000000
24825.000000,14118.000000,23754.000000,60913.000000
24861.000000,14118.000000,23772.000000,60918.000000
24906.000000,14112.000000,23764.000000,60928.000000
24912.000000,14151.000000,23814.000000,60926.000000
24943.000000,14165.000000,23807.000000,60967.000000
24951.000000,14162.000000,23863.000000,60957.000000
24972.000000,14157.000000,23863.000000,60963.000000
24977.000000,14143.000000,23880.000000,60955.000000
25003.000000,14180.000000,23886.000000,60966.000000
25014.000000,14219.000000,23926.000000,60996.000000
25031.000000,14178.000000,23918.000000,61017.000000
25017.000000,14220.000000,23925.000000,61048.000000
25028.000000,14225.000000,23957.000000,61045.000000
25064.000000,14224.000000,23966.000000,61082.000000
25082.000000,14239.000000,24006.000000,61076.000000
25105.000000,14265.000000,24028.000000,61095.000000
25146.000000,14274.000000,24066.000000,61111.000000
25137.000000,14292.000000,24097.000000,61140.000000
25152.000000,14279.000000,24122.000000,61145.000000
25204.000000,14327.000000,24159.000000,61147.000000
25177.000000,14315.000000,24150.000000,61160.000000
25198.000000,14359.000000,24217.000000,61151.000000
25212.000000,14350.000000,24231.000000,61196.000000
25246.000000,14363.000000,24232.000000,61207.000000
25287.000000,14379.000000,24261.000000,61197.000000
25281.000000,14379.000000,24287.000000,61212.000000
25310.000000,14408.000000,24320.000000,61261.000000
25347.000000,14422.000000,24334.000000,61250.000000
25362.000000,14450.000000,24357.000000,61277.000000
25420.000000,14471.000000,24363.000000,61306.000000
25409.000000,14488.000000,24404.000000,61328.000000
25408.000000,14481.000000,24447.000000,61333.000000
25461.000000,14504.000000,24475.000000,61353.000000
25452.000000,14501.000000,24493.000000,61368.000000
25503.000000,14528.000000,24526.000000,61355.000000
25477.000000,14537.000000,24519.000000,61389.000000
25534.000000,14546.000000,24547.000000,61408.000000
25527.000000,14577.000000,24605.000000,61427.000000
25553.000000,14562.000000,24584.000000,61424.000000
25569.000000,14589.000000,24596.000000,61400.000000
25548.000000,14567.000000,24603.000000,61422.000000
25543.000000,14598.000000,24594.000000,61405.000000
25558.000000,14585.000000,24620.000000,61454.000000
25533.000000,14597.000000,24559.000000,61419.000000
25584.000000,14585.000000,24610.000000,61431.000000
25540.000000,14590.000000,24604.000000,61396.000000
25556.000000,14605.000000,24618.000000,61415.000000
25532.000000,14589.000000,24588.000000,61409.000000
25529.000000,14563.000000,24613.000000,61414.000000
25533.000000,14576.000000,24593.000000,61404.000000
25553.000000,14589.000000,24587.000000,61364.000000
25534.000000,14599.000000,24565.000000,61401.000000
25549.000000,14585.000000,24582.000000,61406.000000
25507.000000,14572.000000,24588.000000,61410.000000
25480.000000,14548.000000,24551.000000,61369.000000
25479.000000,14529.000000,24554.000000,61366.000000
25481.000000,14568.000000,24524.000000,61391.000000
25466.000000,14507.000000,24523.000000,61382.000000
25489.000000,14541.000000,24530.000000,61360.000000
25455.000000,14541.000000,24531.000000,61334.000000
25464.000000,14534.000000,24520.000000,61364.000000
25453.000000,14497.000000,24503.000000,61348.000000
25497.000000,14530.000000,24482.000000,61335.000000
25472.000000,14519.000000,24501.000000,61350.000000
25445.000000,14496.000000,24510.000000,61351.000000
25425.000000,14486.000000,24467.000000,61335.000000
25422.000000,14502.000000,24450.000000,61338.000000
25436.000000,14540.000000,24457.000000,61340.000000
25458.000000,14506.000000,24464.000000,61345.000000
25413.000000,14486.000000,24450.000000,61336.000000
25397.000000,14480.000000,24465.000000,61331.000000
25432.000000,14476.000000,24434.000000,61306.000000
25381.000000,14476.000000,24425.000000,61284.000000
25386.000000,14485.000000,24447.000000,61325.000000
25418.000000,14466.000000,24426.000000,61271.000000
25409.000000,14492.000000,24463.000000,61319.000000
25405.000000,14488.000000,24429.000000,61313.000000
25394.000000,14469.000000,24401.000000,61285.000000
25392.000000,14458.000000,24381.000000,61265.000000
25380.000000,14448.000000,24405.000000,61288.000000
25334.000000,14462.000000,24390.000000,61271.000000
25331.000000,14465.000000,24363.000000,61284.000000
25390.000000,14449.000000,24352.000000,61307.000000
25338.000000,14462.000000,24365.000000,61261.000000
25350.000000,14473.000000,24354.000000,61294.000000
25326.000000,14429.000000,24394.000000,61272.000000
25353.000000,14466.000000,24361.000000,61275.000000
25333.000000,14460.000000,24348.000000,61240.000000
25347.000000,14435.000000,24336.000000,61252.000000
25319.000000,14433.000000,24346.000000,61259.000000
25309.000000,14408.000000,24314.000000,61247.000000
25338.000000,14446.000000,24341.000000,61252.000000
25308.000000,14424.000000,24296.000000,61256.000000
25298.000000,14407.000000,24309.000000,61249.000000
25335.000000,14399.000000,24302.000000,61224.000000
25298.000000,14361.000000,24308.000000,61244.000000
25279.000000,14413.000000,24293.000000,61267.000000
25307.000000,14398.000000,24288.000000,61253.000000
25300.000000,14403.000000,24326.000000,61227.000000
25290.000000,14381.000000,24328.000000,61214.000000
25285.000000,14373.000000,24315.000000,61244.000000
25259.000000,14384.000000,24296.000000,61241.000000
25246.000000,14391.000000,24308.000000,61250.000000
25250.000000,14362.000000,24285.000000,61252.000000
25257.000000,14400.000000,24275.000000,61237.000000
25282.000000,14418.000000,24305.000000,61217.000000
25275.000000,14406.000000,24313.000000,61219.000000
25293.000000,14401.000000,24309.000000,61227.000000
25260.000000,14390.000000,24294.000000,61227.000000
25244.000000,14380.000000,24305.000000,61234.000000
25232.000000,14396.000000,24316.000000,61226.000000
25248.000000,14401.000000,24340.000000,61237.000000
25245.000000,14407.000000,24328.000000,61237.000000
25253.000000,14408.000000,24317.000000,61243.000000
25256.000000,14378.000000,24301.000000,61244.000000
25266.000000,14398.000000,24320.000000,61232.000000
25248.000000,14418.000000,24323.000000,61239.000000
25257.000000,14441.000000,24390.000000,61262.000000
25195.000000,14407.000000,24333.000000,61249.000000
25237.000000,14417.000000,24343.000000,61218.000000
25214.000000,14426.000000,24339.000000,61244.000000
25243.000000,14438.000000,24353.000000,61234.000000
25185.000000,14411.000000,24370.000000,61247.000000
25190.000000,14415.000000,24375.000000,61252.000000
25225.000000,14420.000000,24360.000000,61233.000000
25202.000000,14413.000000,24373.000000,61259.000000
25218.000000,14417.000000,24346.000000,61253.000000
25195.000000,14408.000000,24387.000000,61224.000000
25227.000000,14414.000000,24382.000000,61207.000000
25190.000000,14412.000000,24346.000000,61205.000000
25196.000000,14430.000000,24338.000000,61235.000000
25161.000000,14415.000000,24322.000000,61237.000000
25180.000000,14418.000000,24335.000000,61241.000000
25177.000000,14412.000000,24362.000000,61237.000000
25178.000000,14394.000000,24326.000000,61215.000000
25180.000000,14420.000000,24373.000000,61233.000000
25154.000000,14388.000000,24354.000000,61231.000000
25170.000000,14431.000000,24353.000000,61221.000000
25185.000000,14436.000000,24367.000000,61206.000000
25155.000000,14410.000000,24363.000000,61241.000000
25173.000000,14393.000000,24335.000000,61186.000000
25155.000000,14408.000000,24353.000000,61192.000000
25128.000000,14402.000000,24350.000000,61233.000000
25147.000000,14408.000000,24341.000000,61216.000000
25152.000000,14366.000000,24366.000000,61238.000000
25138.000000,14406.000000,24343.000000,61223.000000
25156.000000,14419.000000,24354.000000,61218.000000
25154.000000,14411.000000,24389.000000,61224.000000
25113.000000,14411.000000,24345.000000,61226.000000
25124.000000,14420.000000,24376.000000,61204.000000
25139.000000,14436.000000,24369.000000,61231.000000
25140.000000,14409.000000,24377.000000,61237.000000
25114.000000,14401.000000,24377.000000,61229.000000
25147.000000,14433.000000,24400.000000,61234.000000
25143.000000,14380.000000,24376.000000,61206.000000
25111.000000,14424.000000,24348.000000,61213.000000
25094.000000,14403.000000,24362.000000,61197.000000
25108.000000,14379.000000,24377.000000,61219.000000
25145.000000,14388.000000,24387.000000,61194.000000
25113.000000,14395.000000,24375.000000,61206.000000
25124.000000,14427.000000,24372.000000,61225.000000
25099.000000,14411.000000,24396.000000,61233.000000
25112.000000,14426.000000,24404.000000,61230.000000
25115.000000,14413.000000,24373.000000,61202.000000
25097.000000,14444.000000,24405.000000,61215.000000
25111.000000,14429.000000,24432.000000,61214.000000
25130.000000,14439.000000,24383.000000,61238.000000
25102.000000,14407.000000,24434.000000,61239.000000
25092.000000,14409.000000,24388.000000,61200.000000
25094.000000,14398.000000,24411.000000,61215.000000
25052.000000,14386.000000,24382.000000,61236.000000
25089.000000,14384.000000,24361.000000,61246.000000
25087.000000,14395.000000,24397.000000,61235.000000
25073.000000,14383.000000,24403.000000,61219.000000
25086.000000,14416.000000,24425.000000,61221.000000
25093.000000,14398.000000,24434.000000,61221.000000
25073.000000,14394.000000,24413.000000,61239.000000
25100.000000,14416.000000,24454.000000,61244.000000
25096.000000,14429.000000,24459.000000,61234.000000
25080.000000,14397.000000,24454.000000,61258.000000
25122.000000,14405.000000,24478.000000,61284.000000
25103.000000,14469.000000,24518.000000,61266.000000
25112.000000,14471.000000,24561.000000,61311.000000
25117.000000,14497.000000,24532.000000,61289.000000
25138.000000,14490.000000,24552.000000,61371.000000
25138.000000,14509.000000,24617.000000,61350.000000
25135.000000,14529.000000,24578.000000,61345.000000
25187.000000,14527.000000,24615.000000,61339.000000
25192.000000,14517.000000,24656.000000,61372.000000
25230.000000,14547.000000,24692.000000,61392.000000
25228.000000,14527.000000,24700.000000,61397.000000
25234.000000,14604.000000,24726.000000,61439.000000
25265.000000,14554.000000,24771.000000,61426.000000
25301.000000,14609.000000,24797.000000,61427.000000
25291.000000,14627.000000,24828.000000,61450.000000
25323.000000,14646.000000,24867.000000,61464.000000
25356.000000,14660.000000,24888.000000,61503.000000
25347.000000,14612.000000,24890.000000,61511.000000
25318.000000,14667.000000,24947.000000,61550.000000
25368.000000,14714.000000,24960.000000,61550.000000
25360.000000,14710.000000,24987.000000,61559.000000
25430.000000,14705.000000,25039.000000,61590.000000
25418.000000,14710.000000,25038.000000,61601.000000
25483.000000,14743.000000,25027.000000,61620.000000
25494.000000,14745.000000,25102.000000,61664.000000
25481.000000,14796.000000,25108.000000,61630.000000
25491.000000,14814.000000,25178.000000,61667.000000
25510.000000,14812.000000,25190.000000,61698.000000
25549.000000,14848.000000,25225.000000,61674.000000
25595.000000,14838.000000,25277.000000,61712.000000
25575.000000,14900.000000,25309.000000,61734.000000
25596.000000,14870.000000,25326.000000,61763.000000
25605.000000,14882.000000,25344.000000,61757.000000
25638.000000,14938.000000,25391.000000,61772.000000
25681.000000,14929.000000,25413.000000,61807.000000
25698.000000,14962.000000,25457.000000,61853.000000
25676.000000,14954.000000,25462.000000,61837.000000
25704.000000,14998.000000,25514.000000,61871.000000
25715.000000,15019.000000,25563.000000,61888.000000
25756.000000,15037.000000,25598.000000,61912.000000
25751.000000,15041.000000,25607.000000,61918.000000
25755.000000,15031.000000,25617.000000,61932.000000
25769.000000,15089.000000,25669.000000,61913.000000
25752.000000,15072.000000,25697.000000,61938.000000
25804.000000,15082.000000,25698.000000,61930.000000
25772.000000,15083.000000,25697.000000,61942.000000
25778.000000,15041.000000,25730.000000,61945.000000
25765.000000,15080.000000,25731.000000,61908.000000
25786.000000,15079.000000,25705.000000,61911.000000
25737.000000,15039.000000,25723.000000,61940.000000
25733.000000,15080.000000,25735.000000,61916.000000
25745.000000,15067.000000,25683.000000,61932.000000
25752.000000,15069.000000,25666.000000,61925.000000
25739.000000,15040.000000,25662.000000,61912.000000
25716.000000,15046.000000,25658.000000,61892.000000
25702.000000,15022.000000,25671.000000,61902.000000
25699.000000,15049.000000,25628.000000,61897.000000
25670.000000,14992.000000,25604.000000,61899.000000
25650.000000,15038.000000,25599.000000,61853.000000
25660.000000,15006.000000,25630.000000,61876.000000
25624.000000,15014.000000,25612.000000,61858.000000
25647.000000,14999.000000,25588.000000,61887.000000
25636.000000,15010.000000,25597.000000,61848.000000
25636.000000,14987.000000,25593.000000,61824.000000
25606.000000,14990.000000,25574.000000,61818.000000
25619.000000,14987.000000,25596.000000,61855.000000
25598.000000,14973.000000,25582.000000,61846.000000
25601.000000,14986.000000,25562.000000,61803.000000
25603.000000,14977.000000,25552.000000,61810.000000
25561.000000,14988.000000,25562.000000,61833.000000
25582.000000,14954.000000,25549.000000,61827.000000
25571.000000,14961.000000,25535.000000,61825.000000
25548.000000,14956.000000,25520.000000,61844.000000
25552.000000,14974.000000,25526.000000,61827.000000
25550.000000,14970.000000,25561.000000,61827.000000
25550.000000,14996.000000,25540.000000,61819.000000
25524.000000,14971.000000,25557.000000,61798.000000
25539.000000,14956.000000,25537.000000,61796.000000
25511.000000,14948.000000,25528.000000,61779.000000
25529.000000,14934.000000,25527.000000,61776.000000
25462.000000,14897.000000,25505.000000,61761.000000
25490.000000,14949.000000,25480.000000,61775.000000
25467.000000,14936.000000,25475.000000,61770.000000
25494.000000,14938.000000,25507.000000,61776.000000
25440.000000,14922.000000,25466.000000,61726.000000
25460.000000,14931.000000,25471.000000,61779.000000
25447.000000,14876.000000,25448.000000,61765.000000
25448.000000,14944.000000,25482.000000,61763.000000
25401.000000,14912.000000,25456.000000,61748.000000
25438.000000,14917.000000,25460.000000,61732.000000
25426.000000,14919.000000,25448.000000,61754.000000
25400.000000,14916.000000,25433.000000,61751.000000
25419.000000,14890.000000,25415.000000,61726.000000
25425.000000,14920.000000,25421.000000,61714.000000
25394.000000,14916.000000,25431.000000,61705.000000
25391.000000,14884.000000,25407.000000,61713.000000
25428.000000,14896.000000,25408.000000,61678.000000
25368.000000,14887.000000,25387.000000,61710.000000
25356.000000,14899.000000,25372.000000,61688.000000
25361.000000,14896.000000,25337.000000,61701.000000
25395.000000,14867.000000,25344.000000,61716.000000
25368.000000,14885.000000,25361.000000,61678.000000
25373.000000,14868.000000,25320.000000,61676.000000
25362.000000,14876.000000,25322.000000,61666.000000
25317.000000,14858.000000,25315.000000,61656.000000
25330.000000,14849.000000,25302.000000,61647.000000
25275.000000,14877.000000,25279.000000,61640.000000
25301.000000,14819.000000,25298.000000,61671.000000
25283.000000,14845.000000,25280.000000,61662.000000
25282.000000,14842.000000,25260.000000,61609.000000
25258.000000,14819.000000,25257.000000,61617.000000
25257.000000,14789.000000,25262.000000,61630.000000
25279.000000,14811.000000,25236.000000,61582.000000
25257.000000,14826.000000,25232.000000,61607.000000
25232.000000,14822.000000,25241.000000,61572.000000
25221.000000,14798.000000,25244.000000,61603.000000
25224.000000,14798.000000,25178.000000,61613.000000
25199.000000,14781.000000,25142.000000,61596.000000
25194.000000,14760.000000,25136.000000,61545.000000
25167.000000,14788.000000,25135.000000,61555.000000
25146.000000,14767.000000,25126.000000,61559.000000
25149.000000,14745.000000,25112.000000,61518.000000
25132.000000,14739.000000,25081.000000,61537.000000
25100.000000,14733.000000,25066.000000,61505.000000
25088.000000,14705.000000,25039.000000,61503.000000
25070.000000,14687.000000,25033.000000,61497.000000
25060.000000,14700.000000,25015.000000,61493.000000
25074.000000,14664.000000,24992.000000,61433.000000
25051.000000,14671.000000,24975.000000,61448.000000
25061.000000,14659.000000,24983.000000,61447.000000
25008.000000,14644.000000,24976.000000,61454.000000
25000.000000,14602.000000,24923.000000,61433.000000
25004.000000,14654.000000,24931.000000,61430.000000
24990.000000,14659.000000,24930.000000,61398.000000
24971.000000,14615.000000,24872.000000,61390.000000
24944.000000,14575.000000,24849.000000,61382.000000
24931.000000,14564.000000,24837.000000,61389.000000
24945.000000,14589.000000,24817.000000,61389.000000
24940.000000,14561.000000,24843.000000,61367.000000
24945.000000,14586.000000,24776.000000,61375.000000
24947.000000,14595.000000,24771.000000,61343.000000
24958.000000,14572.000000,24770.000000,61343.000000
24969.000000,14553.000000,24762.000000,61347.000000
24978.000000,14562.000000,24762.000000,61367.000000
24954.000000,14569.000000,24746.000000,61318.000000
24973.000000,14551.000000,24750.000000,61330.000000
24960.000000,14548.000000,24713.000000,61355.000000
24965.000000,14513.000000,24707.000000,61328.000000
24951.000000,14527.000000,24723.000000,61319.000000
24993.000000,14562.000000,24703.000000,61291.000000
24955.000000,14553.000000,24680.000000,61306.000000
24959.000000,14506.000000,24666.000000,61293.000000
24963.000000,14515.000000,24662.000000,61294.000000
24953.000000,14514.000000,24661.000000,61295.000000
24931.000000,14529.000000,24629.000000,61290.000000
25001.000000,14489.000000,24641.000000,61285.000000
24978.000000,14518.000000,24618.000000,61305.000000
24957.000000,14492.000000,24618.000000,61267.000000
24969.000000,14488.000000,24615.000000,61268.000000
25027.000000,14495.000000,24614.000000,61285.000000
24952.000000,14513.000000,24626.000000,61274.000000
25004.000000,14517.000000,24610.000000,61272.000000
24978.000000,14483.000000,24585.000000,61259.000000
24982.000000,14462.000000,24554.000000,61252.000000
24972.000000,14480.000000,24572.000000,61241.000000
24971.000000,14482.000000,24549.000000,61246.000000
24949.000000,14471.000000,24531.000000,61257.000000
24945.000000,14472.000000,24515.000000,61250.000000
24950.000000,14448.000000,24516.000000,61221.000000
24959.000000,14457.000000,24500.000000,61232.000000
24906.000000,14451.000000,24496.000000,61201.000000
24955.000000,14440.000000,24496.000000,61222.000000
24945.000000,14406.000000,24459.000000,61193.000000
24932.000000,14429.000000,24456.000000,61212.000000
24966.000000,14458.000000,24490.000000,61212.000000
24945.000000,14423.000000,24469.000000,61204.000000
24948.000000,14430.000000,24487.000000,61212.000000
24961.000000,14430.000000,24507.000000,61214.000000
24952.000000,14434.000000,24507.000000,61211.000000
24971.000000,14446.000000,24521.000000,61208.000000
24972.000000,14462.000000,24506.000000,61231.000000
24988.000000,14491.000000,24528.000000,61231.000000
25036.000000,14457.000000,24565.000000,61257.000000
25002.000000,14479.000000,24596.000000,61255.000000
25034.000000,14462.000000,24555.000000,61273.000000
25052.000000,14500.000000,24590.000000,61292.000000
25032.000000,14471.000000,24604.000000,61291.000000
25074.000000,14484.000000,24607.000000,61317.000000
25096.000000,14536.000000,24623.000000,61302.000000
25103.000000,14541.000000,24642.000000,61312.000000
25091.000000,14529.000000,24680.000000,61352.000000
25135.000000,14563.000000,24701.000000,61330.000000
25181.000000,14575.000000,24703.000000,61356.000000
25147.000000,14562.000000,24705.000000,61376.000000
25186.000000,14594.000000,24728.000000,61382.000000
25199.000000,14580.000000,24749.000000,61382.000000
25230.000000,14634.000000,24771.000000,61390.000000
25228.000000,14606.000000,24756.000000,61399.000000
25244.000000,14635.000000,24782.000000,61442.000000
25275.000000,14641.000000,24803.000000,61438.000000
25282.000000,14635.000000,24819.000000,61450.000000
25248.000000,14659.000000,24835.000000,61444.000000
25291.000000,14686.000000,24848.000000,61441.000000
25314.000000,14674.000000,24892.000000,61500.000000
25326.000000,14688.000000,24921.000000,61526.000000
25348.000000,14695.000000,24959.000000,61531.000000
25359.000000,14675.000000,24948.000000,61539.000000
25393.000000,14713.000000,24964.000000,61535.000000
25417.000000,14765.000000,25016.000000,61540.000000
25476.000000,14753.000000,25030.000000,61578.000000
25465.000000,14751.000000,25029.000000,61580.000000
25469.000000,14762.000000,25048.000000,61596.000000
25497.000000,14808.000000,25115.000000,61609.000000
25523.000000,14812.000000,25097.000000,61636.000000
25551.000000,14809.000000,25125.000000,61657.000000
25553.000000,14833.000000,25145.000000,61656.000000
25595.000000,14847.000000,25162.000000,61678.000000
25619.000000,14876.000000,25215.000000,61674.000000
25621.000000,14886.000000,25228.000000,61687.000000
25612.000000,14864.000000,25189.000000,61681.000000
25630.000000,14900.000000,25240.000000,61653.000000
25631.000000,14914.000000,25242.000000,61710.000000
25656.000000,14913.000000,25271.000000,61699.000000
25671.000000,14887.000000,25237.000000,61689.000000
25652.000000,14874.000000,25244.000000,61724.000000
25671.000000,14899.000000,25257.000000,61693.000000
25651.000000,14863.000000,25229.000000,61713.000000
25666.000000,14886.000000,25209.000000,61680.000000
25658.000000,14838.000000,25195.000000,61668.000000
25664.000000,14861.000000,25219.000000,61692.000000
25615.000000,14872.000000,25161.000000,61678.000000
25642.000000,14839.000000,25144.000000,61624.000000
25651.000000,14869.000000,25166.000000,61673.000000
25611.000000,14823.000000,25128.000000,61655.000000
25591.000000,14829.000000,25098.000000,61651.000000
25588.000000,14840.000000,25084.000000,61649.000000
25612.000000,14812.000000,25090.000000,61623.000000
25605.000000,14795.000000,25058.000000,61600.000000
25603.000000,14791.000000,25050.000000,61623.000000
25575.000000,14802.000000,25043.000000,61604.000000
25594.000000,14783.000000,25031.000000,61593.000000
25595.000000,14773.000000,24986.000000,61601.000000
25570.000000,14772.000000,24992.000000,61577.000000
25567.000000,14801.000000,24988.000000,61587.000000
25552.000000,14739.000000,24972.000000,61559.000000
25553.000000,14745.000000,24967.000000,61578.000000
25560.000000,14689.000000,24941.000000,61550.000000
25559.000000,14716.000000,24945.000000,61547.000000
25546.000000,14691.000000,24900.000000,61528.000000
25546.000000,14710.000000,24901.000000,61562.000000
25526.000000,14706.000000,24883.000000,61526.000000
25503.000000,14690.000000,24897.000000,61534.000000
25509.000000,14699.000000,24876.000000,61525.000000
25520.000000,14673.000000,24870.000000,61512.000000
25473.000000,14648.000000,24843.000000,61490.000000
25464.000000,14689.000000,24830.000000,61510.000000
25492.000000,14656.000000,24833.000000,61494.000000
25494.000000,14665.000000,24847.000000,61489.000000
25514.000000,14655.000000,24808.000000,61481.000000
25492.000000,14654.000000,24848.000000,61473.000000
25505.000000,14654.000000,24790.000000,61473.000000
25466.000000,14630.000000,24788.000000,61468.000000
25442.000000,14631.000000,24751.000000,61482.000000
25472.000000,14646.000000,24722.000000,61445.000000
25474.000000,14636.000000,24741.000000,61435.000000
25466.000000,14605.000000,24707.000000,61453.000000
25438.000000,14631.000000,24708.000000,61443.000000
25433.000000,14615.000000,24680.000000,61458.000000
25436.000000,14619.000000,24743.000000,61448.000000
25413.000000,14574.000000,24722.000000,61441.000000
25378.000000,14534.000000,24689.000000,61445.000000
25393.000000,14591.000000,24698.000000,61391.000000
25349.000000,14570.000000,24695.000000,61411.000000
25367.000000,14560.000000,24707.000000,61415.000000
25356.000000,14579.000000,24697.000000,61434.000000
25383.000000,14547.000000,24663.000000,61403.000000
25374.000000,14572.000000,24665.000000,61387.000000
25364.000000,14571.000000,24664.000000,61396.000000
25356.000000,14536.000000,24636.000000,61395.000000
25335.000000,14543.000000,24642.000000,61392.000000
25345.000000,14562.000000,24656.000000,61367.000000
25298.000000,14517.000000,24600.000000,61361.000000
25274.000000,14541.000000,24645.000000,61343.000000
25299.000000,14525.000000,24609.000000,61384.000000
25323.000000,14525.000000,24620.000000,61343.000000
25318.000000,14509.000000,24600.000000,61327.000000
25281.000000,14503.000000,24609.000000,61376.000000
25276.000000,14477.000000,24648.000000,61398.000000
25303.000000,14503.000000,24579.000000,61338.000000
25283.000000,14508.000000,24584.000000,61352.000000
25296.000000,14510.000000,24601.000000,61357.000000
25240.000000,14479.000000,24599.000000,61372.000000
25259.000000,14492.000000,24564.000000,61351.000000
25234.000000,14482.000000,24556.000000,61320.000000
25270.000000,14498.000000,24558.000000,61351.000000
25271.000000,14501.000000,24558.000000,61339.000000
25252.000000,14463.000000,24546.000000,61327.000000
25226.000000,14502.000000,24573.000000,61330.000000
25256.000000,14501.000000,24550.000000,61351.000000
25259.000000,14495.000000,24557.000000,61316.000000
25236.000000,14492.000000,24563.000000,61329.000000
25235.000000,14479.000000,24544.000000,61321.000000
25203.000000,14479.000000,24520.000000,61317.000000
25234.000000,14470.000000,24539.000000,61330.000000
25214.000000,14444.000000,24524.000000,61314.000000
25231.000000,14472.000000,24572.000000,61282.000000
25213.000000,14465.000000,24487.000000,61303.000000
25195.000000,14479.000000,24493.000000,61290.000000
25213.000000,14426.000000,24541.000000,61313.000000
25197.000000,14431.000000,24490.000000,61299.000000
25202.000000,14479.000000,24497.000000,61312.000000
25209.000000,14464.000000,24506.000000,61319.000000
25173.000000,14444.000000,24492.000000,61317.000000
25187.000000,14449.000000,24526.000000,61294.000000
25217.000000,14447.000000,24466.000000,61300.000000
25198.000000,14437.000000,24478.000000,61269.000000
25205.000000,14442.000000,24490.000000,61294.000000
25202.000000,14439.000000,24452.000000,61265.000000
25173.000000,14433.000000,24486.000000,61278.000000
25193.000000,14416.000000,24460.000000,61261.000000
25159.000000,14455.000000,24475.000000,61276.000000
25168.000000,14422.000000,24453.000000,61253.000000
25162.000000,14430.000000,24469.000000,61273.000000
25167.000000,14446.000000,24440.000000,61259.000000
25144.000000,14459.000000,24451.000000,61258.000000
25136.000000,14444.000000,24440.000000,61248.000000
25174.000000,14424.000000,24473.000000,61277.000000
25143.000000,14474.000000,24451.000000,61274.000000
25123.000000,14403.000000,24469.000000,61245.000000
25156.000000,14424.000000,24430.000000,61263.000000
25115.000000,14403.000000,24456.000000,61246.000000
25119.000000,14414.000000,24431.000000,61253.000000
25144.000000,14429.000000,24411.000000,61231.000000
25133.000000,14420.000000,24418.000000,61246.000000
25141.000000,14421.000000,24461.000000,61240.000000
25130.000000,14428.000000,24453.000000,61247.000000
25153.000000,14427.000000,24446.000000,61275.000000
25134.000000,14405.000000,24455.000000,61236.000000
25131.000000,14429.000000,24420.000000,61255.000000
25115.000000,14440.000000,24467.000000,61247.000000
25101.000000,14413.000000,24413.000000,61267.000000
25104.000000,14399.000000,24465.000000,61247.000000
25122.000000,14421.000000,24444.000000,61236.000000
25116.000000,14400.000000,24418.000000,61246.000000
25083.000000,14408.000000,24425.000000,61253.000000
25078.000000,14414.000000,24406.000000,61246.000000
25104.000000,14399.000000,24433.000000,61226.000000
25101.000000,14414.000000,24421.000000,61238.000000
25093.000000,14407.000000,24444.000000,61254.000000
25071.000000,14408.000000,24423.000000,61256.000000
25066.000000,14421.000000,24418.000000,61231.000000
25019.000000,14391.000000,24407.000000,61232.000000
25060.000000,14337.000000,24415.000000,61235.000000
25059.000000,14403.000000,24359.000000,61209.000000
25043.000000,14387.000000,24428.000000,61203.000000
25049.000000,14359.000000,24375.000000,61203.000000
25055.000000,14381.000000,24407.000000,61221.000000
25034.000000,14370.000000,24411.000000,61229.000000
25027.000000,14379.000000,24395.000000,61214.000000
25016.000000,14357.000000,24427.000000,61217.000000
24991.000000,14343.000000,24392.000000,61215.000000
24984.000000,14367.000000,24414.000000,61229.000000
25016.000000,14393.000000,24395.000000,61234.000000
25009.000000,14350.000000,24421.000000,61210.000000
25013.000000,14376.000000,24415.000000,61208.000000
24994.000000,14373.000000,24416.000000,61245.000000
25011.000000,14394.000000,24475.000000,61249.000000
25038.000000,14379.000000,24443.000000,61243.000000
25035.000000,14417.000000,24459.000000,61245.000000
25033.000000,14402.000000,24512.000000,61252.000000
25008.000000,14455.000000,24505.000000,61281.000000
25058.000000,14418.000000,24543.000000,61293.000000
25073.000000,14473.000000,24588.000000,61295.000000
25083.000000,14466.000000,24579.000000,61298.000000
25086.000000,14456.000000,24600.000000,61335.000000
25105.000000,14475.000000,24617.000000,61339.000000
25119.000000,14485.000000,24638.000000,61340.000000
25125.000000,14524.000000,24650.000000,61385.000000
25140.000000,14524.000000,24725.000000,61391.000000
25156.000000,14525.000000,24732.000000,61416.000000
25193.000000,14524.000000,24749.000000,61404.000000
25178.000000,14558.000000,24775.000000,61433.000000
25195.000000,14563.000000,24825.000000,61463.000000
25195.000000,14590.000000,24820.000000,61459.000000
25242.000000,14591.000000,24852.000000,61499.000000
25266.000000,14612.000000,24861.000000,61497.000000
25270.000000,14620.000000,24887.000000,61506.000000
25265.000000,14644.000000,24924.000000,61526.000000
25324.000000,14643.000000,24952.000000,61501.000000
25310.000000,14653.000000,24961.000000,61546.000000
25339.000000,14676.000000,24980.000000,61568.000000
25377.000000,14660.000000,25029.000000,61582.000000
25378.000000,14722.000000,25040.000000,61573.000000
25410.000000,14722.000000,25080.000000,61621.000000
25438.000000,14754.000000,25083.000000,61614.000000
25464.000000,14780.000000,25156.000000,61630.000000
25499.000000,14787.000000,25170.000000,61629.000000
25523.000000,14826.000000,25179.000000,61667.000000
25507.000000,14829.000000,25231.000000,61679.000000
25559.000000,14822.000000,25285.000000,61693.000000
25553.000000,14842.000000,25269.000000,61716.000000
25577.000000,14875.000000,25332.000000,61774.000000
25606.000000,14881.000000,25335.000000,61802.000000
25647.000000,14917.000000,25379.000000,61798.000000
25688.000000,14945.000000,25409.000000,61796.000000
25674.000000,14962.000000,25430.000000,61831.000000
25689.000000,14982.000000,25459.000000,61847.000000
25709.000000,14980.000000,25497.000000,61846.000000
25741.000000,14980.000000,25529.000000,61880.000000
25768.000000,15000.000000,25570.000000,61891.000000
25760.000000,15030.000000,25562.000000,61901.000000
25766.000000,15026.000000,25586.000000,61908.000000
25780.000000,15066.000000,25608.000000,61899.000000
25764.000000,15037.000000,25606.000000,61917.000000
25772.000000,15039.000000,25636.000000,61889.000000
25768.000000,15041.000000,25603.000000,61914.000000
25776.000000,15004.000000,25576.000000,61903.000000
25769.000000,15021.000000,25580.000000,61880.000000
25768.000000,15055.000000,25564.000000,61905.000000
25771.000000,15003.000000,25579.000000,61865.000000
25753.000000,15009.000000,25564.000000,61903.000000
25765.000000,15015.000000,25585.000000,61860.000000
25754.000000,15019.000000,25551.000000,61876.000000
25741.000000,14995.000000,25588.000000,61883.000000
25732.000000,14986.000000,25565.000000,61881.000000
25713.000000,14978.000000,25534.000000,61885.000000
25729.000000,15008.000000,25521.000000,61853.000000
25724.000000,15014.000000,25551.000000,61883.000000
25750.000000,15007.000000,25517.000000,61849.000000
25706.000000,14995.000000,25510.000000,61867.000000
25727.000000,15014.000000,25495.000000,61856.000000
25661.000000,14966.000000,25515.000000,61844.000000
25727.000000,14979.000000,25485.000000,61833.000000
25678.000000,14957.000000,25509.000000,61841.000000
25699.000000,14983.000000,25468.000000,61840.000000
25682.000000,14962.000000,25461.000000,61828.000000
25690.000000,14966.000000,25475.000000,61809.000000
25670.000000,14933.000000,25455.000000,61801.000000
25673.000000,14960.000000,25450.000000,61818.000000
25649.000000,14963.000000,25448.000000,61802.000000
25658.000000,14961.000000,25446.000000,61816.000000
25625.000000,14942.000000,25410.000000,61825.000000
25647.000000,14914.000000,25427.000000,61780.000000
25660.000000,14940.000000,25403.000000,61802.000000
25632.000000,14955.000000,25407.000000,61795.000000
25656.000000,14936.000000,25414.000000,61811.000000
25651.000000,14940.000000,25413.000000,61791.000000
25617.000000,14939.000000,25422.000000,61786.000000
25606.000000,14925.000000,25422.000000,61800.000000
25618.000000,14940.000000,25418.000000,61795.000000
25597.000000,14908.000000,25390.000000,61794.000000
25613.000000,14917.000000,25390.000000,61761.000000
25593.000000,14912.000000,25374.000000,61770.000000
25579.000000,14920.000000,25387.000000,61802.000000
25580.000000,14896.000000,25398.000000,61771.000000
25588.000000,14916.000000,25356.000000,61767.000000
25560.000000,14910.000000,25361.000000,61758.000000
25566.000000,14880.000000,25345.000000,61758.000000
25562.000000,14912.000000,25326.000000,61752.000000
25581.000000,14880.000000,25337.000000,61727.000000
25555.000000,14903.000000,25328.000000,61730.000000
25548.000000,14883.000000,25363.000000,61721.000000
25556.000000,14865.000000,25317.000000,61729.000000
25542.000000,14893.000000,25300.000000,61695.000000
25516.000000,14873.000000,25333.000000,61731.000000
25535.000000,14877.000000,25297.000000,61704.000000
25557.000000,14884.000000,25299.000000,61696.000000
25536.000000,14890.000000,25307.000000,61694.000000
25466.000000,14861.000000,25296.000000,61688.000000
25493.000000,14856.000000,25296.000000,61694.000000
25460.000000,14872.000000,25280.000000,61690.000000
25447.000000,14833.000000,25269.000000,61693.000000
25443.000000,14820.000000,25264.000000,61651.000000
25454.000000,14835.000000,25235.000000,61673.000000
25430.000000,14799.000000,25216.000000,61651.000000
25472.000000,14835.000000,25215.000000,61620.000000
25410.000000,14821.000000,25256.000000,61672.000000
25411.000000,14837.000000,25240.000000,61649.000000
25406.000000,14825.000000,25218.000000,61645.000000
25386.000000,14802.000000,25186.000000,61643.000000
25431.000000,14818.000000,25198.000000,61642.000000
25401.000000,14822.000000,25196.000000,61610.000000
25355.000000,14799.000000,25184.000000,61637.000000
25352.000000,14798.000000,25166.000000,61610.000000
