660nm,730nm,850nm,940nm
11635.000000,12595.000000,10504.000000,48545.000000
11627.000000,12611.000000,10464.000000,48519.000000
11689.000000,12605.000000,10489.000000,48527.000000
11628.000000,12605.000000,10470.000000,48490.000000
11604.000000,12663.000000,10477.000000,48468.000000
11602.000000,12568.000000,10491.000000,48492.000000
11613.000000,12611.000000,10482.000000,48473.000000
11557.000000,12567.000000,10447.000000,48455.000000
11579.000000,12565.000000,10456.000000,48468.000000
11566.000000,12520.000000,10512.000000,48482.000000
11593.000000,12542.000000,10451.000000,48496.000000
11600.000000,12549.000000,10442.000000,48539.000000
11571.000000,12564.000000,10445.000000,48465.000000
11627.000000,12571.000000,10422.000000,48516.000000
11584.000000,12599.000000,10446.000000,48449.000000
11568.000000,12551.000000,10392.000000,48475.000000
11534.000000,12581.000000,10407.000000,48430.000000
11580.000000,12509.000000,10413.000000,48456.000000
11540.000000,12486.000000,10423.000000,48451.000000
11531.000000,12535.000000,10386.000000,48453.000000
11523.000000,12505.000000,10414.000000,48448.000000
11485.000000,12579.000000,10399.000000,48428.000000
11469.000000,12524.000000,10364.000000,48409.000000
11475.000000,12547.000000,10373.000000,48402.000000
11431.000000,12533.000000,10423.000000,48377.000000
11447.000000,12516.000000,10374.000000,48431.000000
11410.000000,12536.000000,10433.000000,48415.000000
11466.000000,12521.000000,10335.000000,48411.000000
11464.000000,12509.000000,10364.000000,48460.000000
11541.000000,12504.000000,10363.000000,48423.000000
11504.000000,12519.000000,10301.000000,48464.000000
11442.000000,12497.000000,10340.000000,48425.000000
11422.000000,12495.000000,10309.000000,48407.000000
11397.000000,12480.000000,10305.000000,48386.000000
11379.000000,12510.000000,10334.000000,48407.000000
11389.000000,12456.000000,10397.000000,48423.000000
11414.000000,12477.000000,10338.000000,48372.000000
11383.000000,12404.000000,10317.000000,48400.000000
11395.000000,12500.000000,10289.000000,48399.000000
11433.000000,12406.000000,10318.000000,48406.000000
11367.000000,12448.000000,10281.000000,48377.000000
11389.000000,12435.000000,10258.000000,48361.000000
11352.000000,12447.000000,10274.000000,48346.000000
11320.000000,12401.000000,10284.000000,48381.000000
11384.000000,12436.000000,10264.000000,48355.000000
11336.000000,12408.000000,10270.000000,48356.000000
11373.000000,12407.000000,10270.000000,48362.000000
11377.000000,12411.000000,10230.000000,48343.000000
11338.000000,12447.000000,10243.000000,48308.000000
11318.000000,12453.000000,10263.000000,48308.000000
11341.000000,12453.000000,10224.000000,48305.000000
11335.000000,12388.000000,10204.000000,48345.000000
11256.000000,12413.000000,10220.000000,48308.000000
11327.000000,12395.000000,10219.000000,48338.000000
11293.000000,12399.000000,10272.000000,48349.000000
11323.000000,12413.000000,10194.000000,48348.000000
11326.000000,12371.000000,10221.000000,48362.000000
11299.000000,12408.000000,10176.000000,48310.000000
11334.000000,12366.000000,10195.000000,48340.000000
11274.000000,12403.000000,10203.000000,48342.000000
11322.000000,12378.000000,10176.000000,48337.000000
11271.000000,12416.000000,10216.000000,48349.000000
11335.000000,12393.000000,10187.000000,48371.000000
11286.000000,12398.000000,10256.000000,48379.000000
11291.000000,12414.000000,10220.000000,48318.000000
11300.000000,12388.000000,10257.000000,48318.000000
11324.000000,12423.000000,10217.000000,48346.000000
11329.000000,12409.000000,10235.000000,48356.000000
11345.000000,12444.000000,10266.000000,48361.000000
11375.000000,12444.000000,10324.000000,48343.000000
11374.000000,12460.000000,10282.000000,48363.000000
11378.000000,12432.000000,10336.000000,48406.000000
11411.000000,12449.000000,10326.000000,48375.000000
11434.000000,12475.000000,10313.000000,48430.000000
11425.000000,12464.000000,10343.000000,48415.000000
11431.000000,12522.000000,10286.000000,48407.000000
11463.000000,12503.000000,10390.000000,48397.000000
11479.000000,12501.000000,10406.000000,48424.000000
11460.000000,12526.000000,10414.000000,48423.000000
11524.000000,12521.000000,10441.000000,48462.000000
11511.000000,12514.000000,10478.000000,48502.000000
11552.000000,12572.000000,10463.000000,48474.000000
11595.000000,12517.000000,10450.000000,48569.000000
11619.000000,12611.000000,10461.000000,48515.000000
11625.000000,12611.000000,10517.000000,48559.000000
11641.000000,12585.000000,10542.000000,48510.000000
11659.000000,12617.000000,10526.000000,48527.000000
11672.000000,12651.000000,10583.000000,48543.000000
11694.000000,12613.000000,10604.000000,48594.000000
11667.000000,12652.000000,10640.000000,48572.000000
11732.000000,12662.000000,10610.000000,48589.000000
11759.000000,12707.000000,10709.000000,48630.000000
11781.000000,12741.000000,10706.000000,48635.000000
11799.000000,12783.000000,10730.000000,48613.000000
11764.000000,12741.000000,10739.000000,48640.000000
11798.000000,12813.000000,10850.000000,48624.000000
11839.000000,12836.000000,10795.000000,48683.000000
11907.000000,12779.000000,10853.000000,48724.000000
11867.000000,12801.000000,10846.000000,48685.000000
11920.000000,12830.000000,10870.000000,48764.000000
11925.000000,12819.000000,10870.000000,48703.000000
11943.000000,12883.000000,10846.000000,48716.000000
11907.000000,12867.000000,10906.000000,48720.000000
11947.000000,12921.000000,10928.000000,48747.000000
11953.000000,12902.000000,10985.000000,48741.000000
11978.000000,12875.000000,10959.000000,48740.000000
11989.000000,12849.000000,10968.000000,48789.000000
11990.000000,12928.000000,10942.000000,48768.000000
12005.000000,12864.000000,10912.000000,48798.000000
11965.000000,12906.000000,10948.000000,48746.000000
12058.000000,12886.000000,10924.000000,48816.000000
11965.000000,12850.000000,10943.000000,48747.000000
11995.000000,12904.000000,10929.000000,48775.000000
12004.000000,12910.000000,10920.000000,48767.000000
11976.000000,12875.000000,10893.000000,48792.000000
11965.000000,12885.000000,10920.000000,48760.000000
11971.000000,12914.000000,10885.000000,48719.000000
11992.000000,12891.000000,10887.000000,48721.000000
11960.000000,12901.000000,10886.000000,48755.000000
11988.000000,12867.000000,10913.000000,48716.000000
11970.000000,12900.000000,10897.000000,48742.000000
11994.000000,12825.000000,10886.000000,48747.000000
11992.000000,12851.000000,10895.000000,48740.000000
11948.000000,12812.000000,10910.000000,48739.000000
11959.000000,12865.000000,10881.000000,48706.000000
11990.000000,12838.000000,10826.000000,48771.000000
11947.000000,12848.000000,10858.000000,48690.000000
11915.000000,12875.000000,10834.000000,48705.000000
11919.000000,12832.000000,10856.000000,48731.000000
11905.000000,13101.000000,10850.000000,48683.000000
11905.000000,12816.000000,10844.000000,48701.000000
11869.000000,12822.000000,10837.000000,48681.000000
11941.000000,12812.000000,10784.000000,48739.000000
11914.000000,12850.000000,10797.000000,48692.000000
11878.000000,12776.000000,10769.000000,48701.000000
11865.000000,12822.000000,10812.000000,48674.000000
11950.000000,12808.000000,10721.000000,48695.000000
11843.000000,12797.000000,10764.000000,48662.000000
11875.000000,12810.000000,10761.000000,48675.000000
11848.000000,12771.000000,10765.000000,48636.000000
11901.000000,12763.000000,10772.000000,48716.000000
11826.000000,12792.000000,10754.000000,48681.000000
11858.000000,12794.000000,10707.000000,48679.000000
11813.000000,12762.000000,10756.000000,48661.000000
11839.000000,12797.000000,10718.000000,48611.000000
11835.000000,12775.000000,10747.000000,48670.000000
11822.000000,12738.000000,10760.000000,48621.000000
11815.000000,12731.000000,10716.000000,48634.000000
11798.000000,12756.000000,10718.000000,48661.000000
11788.000000,12724.000000,10684.000000,48632.000000
11775.000000,12701.000000,10669.000000,48604.000000
11791.000000,12735.000000,10678.000000,48592.000000
11743.000000,12702.000000,10667.000000,48607.000000
11666.000000,12716.000000,10681.000000,48514.000000
11704.000000,12726.000000,10650.000000,48588.000000
11692.000000,12659.000000,10704.000000,48580.000000
11680.000000,12697.000000,10628.000000,48579.000000
11728.000000,12653.000000,10648.000000,48599.000000
11644.000000,12672.000000,10625.000000,48557.000000
11664.000000,12694.000000,10655.000000,48556.000000
11676.000000,12691.000000,10609.000000,48550.000000
11645.000000,12657.000000,10609.000000,48576.000000
11586.000000,12647.000000,10627.000000,48501.000000
11680.000000,12641.000000,10571.000000,48548.000000
11583.000000,12661.000000,10563.000000,48549.000000
11638.000000,12645.000000,10592.000000,48547.000000
11606.000000,12671.000000,10578.000000,48522.000000
11622.000000,12625.000000,10565.000000,48547.000000
11605.000000,12618.000000,10558.000000,48488.000000
11605.000000,12631.000000,10535.000000,48553.000000
11552.000000,12634.000000,10579.000000,48508.000000
11561.000000,12603.000000,10544.000000,48503.000000
11600.000000,12583.000000,10521.000000,48543.000000
11569.000000,12633.000000,10544.000000,48522.000000
11585.000000,12605.000000,10489.000000,48530.000000
11559.000000,12618.000000,10464.000000,48471.000000
11588.000000,12589.000000,10503.000000,48475.000000
11527.000000,12620.000000,10516.000000,48485.000000
11577.000000,12586.000000,10496.000000,48505.000000
11470.000000,12571.000000,10506.000000,48494.000000
11544.000000,12552.000000,10484.000000,48498.000000
11581.000000,12517.000000,10510.000000,48508.000000
11559.000000,12591.000000,10468.000000,48481.000000
11582.000000,12559.000000,10420.000000,48549.000000
11523.000000,12541.000000,10446.000000,48476.000000
11514.000000,12573.000000,10469.000000,48498.000000
11537.000000,12551.000000,10438.000000,48506.000000
11525.000000,12532.000000,10405.000000,48467.000000
11528.000000,12505.000000,10430.000000,48515.000000
11489.000000,12588.000000,10407.000000,48518.000000
11533.000000,12504.000000,10406.000000,48483.000000
11476.000000,12533.000000,10419.000000,48473.000000
11504.000000,12534.000000,10421.000000,48475.000000
11479.000000,12545.000000,10419.000000,48470.000000
11474.000000,12513.000000,10431.000000,48412.000000
11483.000000,12496.000000,10410.000000,48475.000000
11475.000000,12500.000000,10435.000000,48476.000000
11447.000000,12523.000000,10407.000000,48423.000000
11523.000000,12517.000000,10347.000000,48493.000000
11486.000000,12540.000000,10371.000000,48436.000000
11467.000000,12533.000000,10305.000000,48436.000000
11428.000000,12518.000000,10388.000000,48445.000000
11405.000000,12532.000000,10352.000000,48394.000000
11421.000000,12497.000000,10395.000000,48434.000000
11431.000000,12497.000000,10370.000000,48417.000000
11409.000000,12467.000000,10354.000000,48430.000000
11405.000000,12511.000000,10333.000000,48423.000000
11457.000000,12440.000000,10339.000000,48419.000000
11408.000000,12477.000000,10361.000000,48423.000000
11458.000000,12470.000000,10293.000000,48444.000000
11416.000000,12466.000000,10356.000000,48396.000000
11448.000000,12493.000000,10348.000000,48431.000000
11407.000000,12485.000000,10320.000000,48421.000000
11428.000000,12473.000000,10294.000000,48454.000000
11439.000000,12481.000000,10302.000000,48412.000000
11448.000000,12499.000000,10289.000000,48428.000000
11432.000000,12419.000000,10312.000000,48416.000000
11407.000000,12496.000000,10340.000000,48402.000000
11425.000000,12432.000000,10323.000000,48415.000000
11394.000000,12498.000000,10310.000000,48389.000000
11346.000000,12447.000000,10342.000000,48345.000000
11391.000000,12464.000000,10330.000000,48402.000000
11366.000000,12451.000000,10344.000000,48402.000000
11353.000000,12442.000000,10289.000000,48421.000000
11380.000000,12426.000000,10321.000000,48463.000000
11383.000000,12421.000000,10311.000000,48394.000000
11417.000000,12458.000000,10277.000000,48457.000000
11387.000000,12446.000000,10310.000000,48376.000000
11360.000000,12505.000000,10257.000000,48363.000000
11371.000000,12413.000000,10314.000000,48411.000000
11374.000000,12473.000000,10330.000000,48432.000000
11359.000000,12461.000000,10318.000000,48416.000000
11379.000000,12432.000000,10312.000000,48412.000000
11326.000000,12402.000000,10386.000000,48437.000000
11400.000000,12482.000000,10320.000000,48432.000000
11346.000000,12451.000000,10366.000000,48432.000000
11389.000000,12471.000000,10318.000000,48431.000000
11382.000000,12468.000000,10355.000000,48388.000000
11400.000000,12486.000000,10357.000000,48459.000000
11401.000000,12533.000000,10374.000000,48415.000000
11432.000000,12506.000000,10380.000000,48464.000000
11400.000000,12508.000000,10446.000000,48431.000000
11413.000000,12505.000000,10413.000000,48466.000000
11447.000000,12519.000000,10480.000000,48546.000000
11492.000000,12539.000000,10454.000000,48498.000000
11525.000000,12530.000000,10504.000000,48548.000000
11535.000000,12515.000000,10488.000000,48563.000000
11539.000000,12587.000000,10519.000000,48565.000000
11578.000000,12603.000000,10530.000000,48550.000000
11589.000000,12604.000000,10583.000000,48579.000000
11544.000000,12639.000000,10560.000000,48499.000000
11580.000000,12574.000000,10586.000000,48588.000000
11563.000000,12673.000000,10641.000000,48559.000000
11636.000000,12642.000000,10637.000000,48619.000000
11585.000000,12631.000000,10702.000000,48612.000000
11690.000000,12643.000000,10708.000000,48639.000000
11663.000000,12713.000000,10722.000000,48647.000000
11681.000000,12687.000000,10711.000000,48677.000000
11674.000000,12689.000000,10817.000000,48653.000000
11705.000000,12755.000000,10803.000000,48682.000000
11752.000000,12694.000000,10841.000000,48702.000000
11740.000000,12775.000000,10830.000000,48761.000000
11781.000000,12768.000000,10865.000000,48759.000000
11817.000000,12753.000000,10881.000000,48822.000000
11802.000000,12802.000000,10909.000000,48766.000000
11850.000000,12772.000000,10943.000000,48833.000000
11814.000000,12803.000000,10977.000000,48785.000000
11896.000000,12836.000000,10930.000000,48818.000000
11842.000000,12826.000000,10983.000000,48805.000000
11837.000000,12882.000000,11033.000000,48797.000000
11860.000000,12852.000000,11035.000000,48868.000000
11833.000000,12889.000000,11096.000000,48843.000000
11879.000000,12855.000000,11089.000000,48883.000000
11882.000000,12867.000000,11111.000000,48817.000000
11902.000000,12851.000000,11068.000000,48913.000000
11901.000000,12889.000000,11069.000000,48859.000000
11909.000000,12919.000000,11086.000000,48923.000000
11926.000000,12901.000000,11081.000000,48883.000000
11966.000000,12858.000000,11045.000000,48930.000000
11869.000000,12863.000000,11081.000000,48863.000000
11881.000000,12872.000000,11077.000000,48851.000000
11833.000000,12859.000000,11063.000000,48848.000000
11806.000000,12842.000000,11080.000000,48836.000000
11791.000000,12871.000000,11023.000000,48811.000000
11768.000000,12801.000000,11022.000000,48809.000000
11771.000000,13060.000000,10982.000000,48812.000000
11757.000000,12820.000000,10944.000000,48820.000000
11684.000000,12808.000000,10967.000000,48786.000000
11669.000000,12828.000000,10936.000000,48763.000000
11676.000000,12773.000000,10928.000000,48727.000000
11644.000000,12757.000000,10932.000000,48752.000000
11638.000000,12793.000000,10900.000000,48738.000000
11647.000000,12787.000000,10883.000000,48739.000000
11585.000000,12761.000000,10961.000000,48755.000000
11609.000000,12725.000000,10887.000000,48739.000000
11600.000000,12663.000000,10911.000000,48732.000000
11576.000000,12724.000000,10843.000000,48703.000000
11565.000000,12658.000000,10835.000000,48693.000000
11515.000000,12716.000000,10826.000000,48701.000000
11533.000000,12689.000000,10832.000000,48948.000000
11498.000000,12708.000000,10851.000000,48687.000000
11517.000000,12637.000000,10845.000000,48642.000000
11491.000000,12657.000000,10804.000000,48693.000000
11483.000000,12668.000000,10808.000000,48690.000000
11475.000000,12707.000000,10775.000000,48685.000000
11514.000000,12633.000000,10791.000000,48678.000000
11471.000000,12657.000000,10728.000000,48703.000000
11490.000000,12667.000000,10767.000000,48655.000000
11518.000000,12650.000000,10732.000000,48660.000000
11465.000000,12663.000000,10788.000000,48680.000000
11452.000000,12664.000000,10727.000000,48622.000000
11459.000000,12647.000000,10741.000000,48652.000000
11414.000000,12647.000000,10733.000000,48630.000000
11447.000000,12593.000000,10666.000000,48632.000000
11439.000000,12583.000000,10751.000000,48630.000000
11465.000000,12625.000000,10687.000000,48641.000000
11459.000000,12633.000000,10729.000000,48638.000000
11481.000000,12587.000000,10705.000000,48647.000000
11443.000000,12604.000000,10707.000000,48640.000000
11527.000000,12647.000000,10624.000000,48664.000000
11446.000000,12644.000000,10702.000000,48646.000000
11473.000000,12674.000000,10662.000000,48640.000000
11510.000000,12625.000000,10709.000000,48634.000000
11478.000000,12615.000000,10667.000000,48661.000000
11484.000000,12571.000000,10691.000000,48660.000000
11463.000000,12593.000000,10661.000000,48632.000000
11473.000000,12586.000000,10693.000000,48637.000000
11476.000000,12621.000000,10599.000000,48612.000000
11402.000000,12576.000000,10630.000000,48605.000000
11371.000000,12571.000000,10608.000000,48543.000000
11402.000000,12552.000000,10561.000000,48578.000000
11352.000000,12553.000000,10587.000000,48535.000000
11316.000000,12500.000000,10603.000000,48533.000000
11318.000000,12521.000000,10531.000000,48556.000000
11317.000000,12475.000000,10571.000000,48574.000000
11299.000000,12514.000000,10538.000000,48527.000000
11302.000000,12478.000000,10540.000000,48599.000000
11288.000000,12498.000000,10534.000000,48538.000000
11342.000000,12500.000000,10508.000000,48571.000000
11322.000000,12498.000000,10569.000000,48554.000000
11283.000000,12569.000000,10475.000000,48523.000000
11309.000000,12491.000000,10536.000000,48554.000000
11281.000000,12476.000000,10512.000000,48568.000000
11286.000000,12476.000000,10500.000000,48530.000000
11303.000000,12416.000000,10512.000000,48515.000000
11289.000000,12461.000000,10542.000000,48546.000000
11277.000000,12469.000000,10477.000000,48509.000000
11228.000000,12430.000000,10467.000000,48499.000000
11233.000000,12466.000000,10451.000000,48493.000000
11264.000000,12403.000000,10453.000000,48466.000000
11198.000000,12441.000000,10449.000000,48479.000000
11164.000000,12395.000000,10459.000000,48437.000000
11126.000000,12419.000000,10402.000000,48459.000000
11135.000000,12360.000000,10418.000000,48461.000000
11122.000000,12380.000000,10389.000000,48423.000000
11131.000000,12373.000000,10333.000000,48467.000000
11055.000000,12336.000000,10362.000000,48420.000000
11089.000000,12364.000000,10302.000000,48402.000000
11056.000000,12381.000000,10306.000000,48396.000000
11054.000000,12343.000000,10317.000000,48379.000000
11042.000000,12384.000000,10367.000000,48378.000000
11095.000000,12331.000000,10341.000000,48403.000000
11043.000000,12344.000000,10351.000000,48412.000000
11091.000000,12361.000000,10323.000000,48430.000000
11099.000000,12315.000000,10407.000000,48431.000000
11132.000000,12347.000000,10326.000000,48443.000000
11148.000000,12271.000000,10345.000000,48430.000000
11134.000000,12317.000000,10327.000000,48401.000000
11107.000000,12330.000000,10324.000000,48363.000000
11091.000000,12321.000000,10307.000000,48386.000000
11074.000000,12294.000000,10292.000000,48397.000000
11025.000000,12318.000000,10298.000000,48357.000000
11084.000000,12305.000000,10264.000000,48405.000000
11008.000000,12315.000000,10280.000000,48370.000000
11039.000000,12312.000000,10253.000000,48364.000000
11012.000000,12335.000000,10267.000000,48350.000000
11051.000000,12287.000000,10261.000000,48378.000000
11005.000000,12318.000000,10219.000000,48366.000000
11062.000000,12307.000000,10226.000000,48385.000000
11035.000000,12318.000000,10247.000000,48326.000000
11074.000000,12287.000000,10233.000000,48382.000000
11041.000000,12280.000000,10236.000000,48386.000000
11084.000000,12289.000000,10227.000000,48386.000000
11091.000000,12273.000000,10234.000000,48391.000000
11094.000000,12291.000000,10192.000000,48329.000000
11061.000000,12305.000000,10192.000000,48394.000000
11065.000000,12334.000000,10220.000000,48326.000000
11083.000000,12325.000000,10220.000000,48375.000000
11025.000000,12292.000000,10232.000000,48337.000000
11056.000000,12297.000000,10174.000000,48357.000000
10981.000000,12305.000000,10234.000000,48304.000000
11013.000000,12271.000000,10220.000000,48328.000000
10964.000000,12276.000000,10242.000000,48320.000000
10996.000000,12252.000000,10191.000000,48341.000000
11036.000000,12283.000000,10172.000000,48324.000000
10999.000000,12267.000000,10192.000000,48331.000000
10992.000000,12300.000000,10202.000000,48301.000000
11026.000000,12273.000000,10210.000000,48349.000000
10981.000000,12255.000000,10242.000000,48333.000000
10995.000000,12281.000000,10213.000000,48374.000000
11027.000000,12234.000000,10190.000000,48409.000000
10998.000000,12294.000000,10193.000000,48338.000000
11029.000000,12279.000000,10240.000000,48342.000000
11058.000000,12325.000000,10198.000000,48385.000000
11037.000000,12268.000000,10227.000000,48354.000000
11086.000000,12336.000000,10224.000000,48370.000000
11038.000000,12331.000000,10253.000000,48388.000000
11042.000000,12359.000000,10265.000000,48314.000000
11049.000000,12317.000000,10281.000000,48369.000000
11014.000000,12366.000000,10303.000000,48363.000000
11057.000000,12338.000000,10287.000000,48397.000000
11030.000000,12338.000000,10333.000000,48414.000000
11128.000000,12355.000000,10328.000000,48401.000000
11100.000000,12372.000000,10331.000000,48432.000000
11135.000000,12357.000000,10332.000000,48434.000000
11163.000000,12363.000000,10389.000000,48443.000000
11259.000000,12438.000000,10377.000000,48505.000000
11206.000000,12411.000000,10397.000000,48510.000000
11226.000000,12412.000000,10451.000000,48502.000000
11222.000000,12437.000000,10476.000000,48545.000000
11263.000000,12421.000000,10514.000000,48555.000000
11249.000000,12455.000000,10506.000000,48548.000000
11299.000000,12422.000000,10529.000000,48536.000000
11315.000000,12486.000000,10559.000000,48566.000000
11350.000000,12532.000000,10590.000000,48586.000000
11375.000000,12517.000000,10649.000000,48591.000000
11361.000000,12584.000000,10645.000000,48595.000000
11422.000000,12555.000000,10699.000000,48654.000000
11416.000000,12601.000000,10723.000000,48626.000000
11411.000000,12588.000000,10741.000000,48661.000000
11450.000000,12607.000000,10741.000000,48674.000000
11458.000000,12595.000000,10751.000000,48720.000000
11487.000000,12611.000000,10734.000000,48691.000000
11521.000000,12600.000000,10773.000000,48786.000000
11520.000000,12652.000000,10806.000000,48710.000000
11562.000000,12662.000000,10743.000000,48734.000000
11499.000000,12660.000000,10813.000000,48698.000000
11568.000000,12676.000000,10811.000000,48745.000000
11573.000000,12730.000000,10871.000000,48740.000000
11632.000000,12715.000000,10916.000000,48806.000000
11601.000000,12737.000000,10909.000000,48746.000000
11698.000000,12770.000000,10915.000000,48780.000000
11680.000000,12751.000000,10946.000000,48799.000000
11700.000000,12814.000000,10959.000000,48800.000000
11713.000000,12792.000000,10986.000000,48813.000000
11747.000000,12824.000000,10998.000000,48830.000000
11713.000000,12827.000000,11042.000000,48819.000000
11768.000000,12799.000000,11008.000000,48807.000000
11728.000000,12848.000000,11067.000000,48832.000000
11797.000000,12840.000000,11013.000000,48823.000000
11775.000000,12800.000000,11085.000000,48873.000000
11804.000000,12813.000000,11055.000000,48828.000000
11798.000000,12777.000000,10967.000000,48882.000000
11748.000000,12821.000000,10968.000000,48818.000000
11757.000000,12774.000000,10959.000000,48805.000000
11759.000000,13071.000000,10937.000000,48790.000000
11705.000000,12783.000000,10935.000000,48797.000000
11686.000000,12769.000000,10949.000000,48743.000000
11667.000000,12735.000000,10910.000000,48786.000000
11615.000000,12707.000000,10922.000000,48751.000000
11659.000000,12736.000000,10865.000000,48721.000000
11623.000000,12727.000000,10925.000000,48701.000000
11627.000000,12751.000000,10846.000000,48739.000000
11621.000000,12726.000000,10825.000000,48693.000000
11616.000000,12697.000000,10817.000000,48732.000000
11633.000000,12747.000000,10826.000000,48664.000000
11597.000000,12684.000000,10801.000000,48672.000000
11572.000000,12693.000000,10808.000000,48708.000000
11592.000000,12659.000000,10763.000000,48690.000000
11593.000000,12651.000000,10762.000000,48704.000000
11595.000000,12707.000000,10744.000000,48700.000000
11599.000000,12691.000000,10725.000000,48694.000000
11602.000000,12701.000000,10761.000000,48689.000000
11621.000000,12697.000000,10768.000000,48695.000000
11645.000000,12683.000000,10743.000000,48660.000000
11618.000000,12664.000000,10749.000000,48682.000000
11573.000000,12679.000000,10762.000000,48604.000000
11605.000000,12651.000000,10739.000000,48677.000000
11523.000000,12640.000000,10775.000000,48633.000000
11574.000000,12647.000000,10712.000000,48656.000000
11571.000000,12643.000000,10733.000000,48647.000000
11544.000000,12583.000000,10669.000000,48639.000000
11552.000000,12595.000000,10667.000000,48613.000000
11538.000000,12647.000000,10694.000000,48624.000000
11517.000000,12629.000000,10688.000000,48585.000000
11512.000000,12623.000000,10673.000000,48597.000000
11544.000000,12611.000000,10634.000000,48626.000000
11524.000000,12634.000000,10642.000000,48612.000000
11555.000000,12565.000000,10623.000000,48584.000000
11515.000000,12568.000000,10590.000000,48629.000000
11500.000000,12575.000000,10594.000000,48607.000000
11600.000000,12575.000000,10609.000000,48637.000000
11509.000000,12591.000000,10603.000000,48581.000000
11542.000000,12571.000000,10570.000000,48571.000000
11523.000000,12581.000000,10574.000000,48588.000000
11519.000000,12608.000000,10614.000000,48598.000000
11503.000000,12579.000000,10574.000000,48596.000000
11488.000000,12586.000000,10628.000000,48551.000000
11529.000000,12552.000000,10597.000000,48611.000000
11552.000000,12580.000000,10577.000000,48584.000000
11514.000000,12551.000000,10588.000000,48613.000000
11527.000000,12542.000000,10581.000000,48591.000000
11525.000000,12506.000000,10612.000000,48610.000000
11539.000000,12560.000000,10595.000000,48576.000000
11579.000000,12522.000000,10548.000000,48614.000000
11543.000000,12559.000000,10583.000000,48590.000000
11541.000000,12559.000000,10602.000000,48543.000000
11537.000000,12560.000000,10566.000000,48571.000000
11528.000000,12541.000000,10592.000000,48554.000000
11534.000000,12559.000000,10579.000000,48563.000000
11512.000000,12537.000000,10617.000000,48577.000000
11528.000000,12558.000000,10582.000000,48591.000000
11586.000000,12542.000000,10549.000000,48628.000000
11562.000000,12587.000000,10551.000000,48576.000000
11571.000000,12609.000000,10531.000000,48622.000000
11617.000000,12547.000000,10533.000000,48610.000000
11584.000000,12534.000000,10556.000000,48575.000000
11582.000000,12587.000000,10494.000000,48544.000000
11569.000000,12541.000000,10545.000000,48552.000000
11563.000000,12616.000000,10520.000000,48514.000000
11518.000000,12540.000000,10543.000000,48570.000000
11546.000000,12565.000000,10546.000000,48511.000000
11568.000000,12555.000000,10516.000000,48553.000000
11504.000000,12523.000000,10543.000000,48517.000000
11506.000000,12539.000000,10519.000000,48564.000000
11512.000000,12537.000000,10474.000000,48520.000000
11535.000000,12532.000000,10503.000000,48565.000000
11526.000000,12522.000000,10523.000000,48554.000000
11551.000000,12559.000000,10479.000000,48547.000000
11550.000000,12519.000000,10489.000000,48553.000000
11570.000000,12522.000000,10527.000000,48542.000000
11534.000000,12515.000000,10518.000000,48549.000000
11539.000000,12501.000000,10529.000000,48563.000000
11547.000000,12546.000000,10478.000000,48559.000000
11523.000000,12496.000000,10518.000000,48547.000000
11548.000000,12513.000000,10522.000000,48536.000000
11566.000000,12521.000000,10501.000000,48577.000000
11520.000000,12534.000000,10520.000000,48532.000000
11539.000000,12551.000000,10469.000000,48554.000000
11544.000000,12521.000000,10508.000000,48550.000000
11515.000000,12561.000000,10493.000000,48563.000000
11534.000000,12545.000000,10518.000000,48535.000000
11513.000000,12542.000000,10490.000000,48542.000000
11511.000000,12482.000000,10504.000000,48542.000000
11515.000000,12502.000000,10511.000000,48545.000000
11471.000000,12507.000000,10551.000000,48505.000000
11533.000000,12495.000000,10487.000000,48535.000000
11474.000000,12541.000000,10518.000000,48532.000000
11500.000000,12496.000000,10456.000000,48515.000000
11499.000000,12508.000000,10453.000000,48500.000000
11497.000000,12515.000000,10479.000000,48528.000000
11503.000000,12567.000000,10470.000000,48495.000000
11471.000000,12513.000000,10476.000000,48499.000000
11462.000000,12502.000000,10468.000000,48492.000000
11485.000000,12506.000000,10482.000000,48500.000000
11511.000000,12454.000000,10468.000000,48542.000000
11518.000000,12477.000000,10466.000000,48564.000000
11488.000000,12487.000000,10435.000000,48522.000000
11507.000000,12496.000000,10405.000000,48540.000000
11495.000000,12493.000000,10451.000000,48527.000000
11530.000000,12510.000000,10426.000000,48511.000000
11512.000000,12496.000000,10440.000000,48525.000000
11498.000000,12553.000000,10470.000000,48474.000000
11509.000000,12479.000000,10484.000000,48511.000000
11471.000000,12475.000000,10528.000000,48502.000000
11501.000000,12510.000000,10458.000000,48510.000000
11505.000000,12488.000000,10479.000000,48537.000000
11544.000000,12505.000000,10465.000000,48509.000000
11536.000000,12449.000000,10477.000000,48507.000000
11523.000000,12520.000000,10467.000000,48482.000000
11511.000000,12492.000000,10502.000000,48513.000000
11514.000000,12509.000000,10463.000000,48533.000000
11492.000000,12509.000000,10469.000000,48548.000000
11501.000000,12540.000000,10428.000000,48529.000000
11528.000000,12502.000000,10477.000000,48519.000000
11501.000000,12504.000000,10476.000000,48546.000000
11533.000000,12514.000000,10485.000000,48549.000000
11563.000000,12507.000000,10468.000000,48563.000000
11515.000000,12490.000000,10504.000000,48564.000000
11542.000000,12559.000000,10513.000000,48501.000000
11508.000000,12530.000000,10520.000000,48539.000000
11486.000000,12538.000000,10517.000000,48536.000000
11524.000000,12496.000000,10546.000000,48572.000000
11524.000000,12515.000000,10592.000000,48538.000000
11554.000000,12529.000000,10521.000000,48585.000000
11553.000000,12525.000000,10566.000000,48595.000000
11566.000000,12558.000000,10594.000000,48616.000000
11558.000000,12544.000000,10564.000000,48580.000000
11625.000000,12570.000000,10530.000000,48629.000000
11581.000000,12603.000000,10583.000000,48598.000000
11607.000000,12611.000000,10570.000000,48611.000000
11615.000000,12610.000000,10621.000000,48600.000000
11616.000000,12624.000000,10634.000000,48670.000000
11609.000000,12603.000000,10655.000000,48622.000000
11647.000000,12619.000000,10646.000000,48660.000000
11694.000000,12653.000000,10696.000000,48672.000000
11629.000000,12649.000000,10676.000000,48662.000000
11669.000000,12617.000000,10733.000000,48665.000000
11652.000000,12685.000000,10744.000000,48668.000000
11719.000000,12661.000000,10766.000000,48716.000000
11727.000000,12695.000000,10773.000000,48722.000000
11724.000000,12656.000000,10805.000000,48709.000000
11734.000000,12716.000000,10805.000000,48710.000000
11766.000000,12681.000000,10889.000000,48801.000000
11779.000000,12733.000000,10888.000000,48729.000000
11849.000000,12760.000000,10853.000000,48792.000000
11844.000000,12763.000000,10913.000000,48786.000000
11858.000000,12824.000000,10905.000000,48793.000000
11884.000000,12804.000000,10952.000000,48828.000000
11849.000000,12882.000000,10966.000000,48822.000000
11939.000000,12863.000000,11033.000000,48883.000000
12211.000000,12892.000000,11045.000000,48887.000000
11960.000000,12899.000000,11079.000000,48899.000000
11995.000000,12897.000000,11086.000000,48888.000000
12060.000000,12862.000000,11146.000000,48985.000000
12055.000000,12938.000000,11182.000000,48943.000000
12159.000000,12930.000000,11164.000000,48980.000000
12114.000000,12964.000000,11192.000000,48958.000000
12129.000000,12967.000000,11211.000000,48964.000000
12135.000000,12991.000000,11216.000000,48980.000000
12183.000000,12996.000000,11265.000000,48982.000000
12192.000000,13004.000000,11256.000000,49027.000000
12224.000000,12991.000000,11257.000000,49025.000000
12181.000000,13036.000000,11253.000000,48995.000000
12195.000000,13009.000000,11212.000000,48962.000000
12200.000000,13011.000000,11268.000000,49029.000000
12188.000000,13039.000000,11277.000000,48959.000000
12149.000000,13018.000000,11250.000000,48953.000000
12170.000000,13000.000000,11230.000000,48994.000000
12124.000000,12983.000000,11308.000000,49017.000000
12144.000000,13020.000000,11233.000000,48999.000000
12202.000000,12995.000000,11237.000000,49058.000000
12156.000000,12998.000000,11246.000000,48991.000000
12166.000000,12997.000000,11196.000000,49035.000000
12122.000000,12975.000000,11264.000000,48967.000000
12209.000000,13026.000000,11190.000000,48990.000000
12176.000000,13008.000000,11233.000000,48967.000000
12139.000000,13014.000000,11217.000000,49017.000000
12115.000000,12999.000000,11227.000000,48975.000000
12122.000000,12955.000000,11195.000000,48998.000000
12145.000000,12959.000000,11236.000000,49017.000000
12137.000000,13026.000000,11226.000000,48988.000000
12151.000000,12962.000000,11224.000000,48982.000000
12072.000000,12956.000000,11238.000000,48965.000000
12119.000000,12975.000000,11262.000000,48932.000000
12126.000000,12955.000000,11207.000000,48952.000000
12101.000000,12974.000000,11239.000000,48956.000000
12092.000000,12976.000000,11174.000000,48964.000000
12054.000000,12979.000000,11254.000000,48976.000000
12125.000000,12937.000000,11219.000000,48924.000000
12136.000000,12936.000000,11189.000000,48991.000000
12088.000000,12959.000000,11187.000000,48975.000000
12099.000000,12986.000000,11161.000000,48959.000000
12073.000000,12978.000000,11190.000000,48940.000000
12043.000000,12983.000000,11171.000000,48892.000000
12004.000000,12988.000000,11207.000000,48920.000000
12083.000000,12969.000000,11191.000000,48905.000000
12043.000000,12952.000000,11216.000000,48949.000000
12058.000000,12951.000000,11143.000000,48942.000000
11989.000000,12907.000000,11216.000000,48909.000000
12050.000000,12970.000000,11161.000000,48943.000000
12025.000000,12880.000000,11179.000000,48938.000000
12023.000000,12960.000000,11160.000000,48931.000000
12018.000000,12900.000000,11153.000000,48893.000000
11985.000000,13177.000000,11156.000000,48925.000000
11981.000000,12931.000000,11138.000000,48912.000000
11926.000000,12922.000000,11149.000000,48895.000000
11979.000000,12908.000000,11139.000000,48878.000000
11979.000000,12920.000000,11124.000000,48926.000000
11994.000000,12915.000000,11101.000000,48918.000000
11964.000000,12936.000000,11076.000000,48922.000000
11971.000000,12915.000000,11073.000000,48875.000000
11978.000000,12866.000000,11068.000000,48912.000000
11963.000000,12868.000000,11058.000000,48869.000000
11937.000000,12940.000000,11043.000000,48860.000000
11924.000000,12880.000000,11036.000000,48855.000000
11892.000000,12857.000000,11089.000000,48807.000000
11932.000000,12841.000000,11051.000000,48844.000000
11874.000000,12852.000000,11063.000000,48810.000000
11899.000000,12890.000000,11053.000000,48853.000000
11915.000000,12814.000000,11034.000000,48827.000000
11892.000000,12841.000000,10989.000000,48834.000000
11869.000000,12823.000000,11000.000000,48781.000000
11840.000000,12859.000000,10992.000000,48770.000000
11829.000000,12849.000000,10977.000000,48824.000000
11808.000000,12881.000000,10976.000000,48783.000000
11808.000000,12831.000000,10958.000000,48809.000000
11763.000000,12848.000000,10959.000000,48782.000000
11806.000000,12799.000000,10970.000000,48769.000000
11819.000000,12843.000000,10962.000000,48802.000000
11807.000000,12787.000000,10946.000000,48800.000000
11782.000000,12806.000000,10938.000000,48771.000000
11771.000000,12779.000000,10966.000000,48802.000000
11796.000000,12799.000000,10936.000000,48769.000000
11789.000000,12783.000000,10914.000000,48784.000000
11786.000000,12759.000000,10975.000000,48766.000000
11827.000000,12769.000000,10916.000000,48803.000000
11779.000000,12791.000000,10937.000000,48809.000000
11776.000000,12720.000000,10897.000000,48774.000000
11786.000000,12757.000000,10899.000000,48766.000000
11779.000000,12727.000000,10825.000000,48720.000000
11750.000000,12745.000000,10864.000000,48746.000000
11731.000000,12753.000000,10799.000000,48728.000000
11711.000000,12737.000000,10832.000000,48730.000000
11707.000000,12741.000000,10814.000000,48697.000000
11642.000000,12695.000000,10820.000000,48701.000000
11647.000000,12744.000000,10792.000000,48714.000000
11668.000000,12705.000000,10821.000000,48690.000000
11655.000000,12719.000000,10781.000000,48715.000000
11629.000000,12688.000000,10774.000000,48698.000000
11640.000000,12706.000000,10783.000000,48651.000000
11674.000000,12724.000000,10788.000000,48727.000000
11657.000000,12692.000000,10826.000000,48677.000000
11656.000000,12687.000000,10814.000000,48675.000000
11668.000000,12681.000000,10795.000000,48702.000000
11677.000000,12675.000000,10784.000000,48713.000000
11670.000000,12717.000000,10812.000000,48684.000000
11679.000000,12663.000000,10796.000000,48728.000000
11660.000000,12715.000000,10806.000000,48712.000000
11703.000000,12671.000000,10763.000000,48745.000000
11657.000000,12687.000000,10773.000000,48721.000000
11625.000000,12705.000000,10730.000000,48676.000000
11662.000000,12675.000000,10736.000000,48681.000000
11606.000000,12680.000000,10761.000000,48650.000000
11600.000000,12655.000000,10742.000000,48675.000000
11604.000000,12633.000000,10710.000000,48670.000000
11608.000000,12643.000000,10688.000000,48745.000000
11617.000000,12657.000000,10717.000000,48643.000000
11613.000000,12607.000000,10702.000000,48703.000000
11570.000000,12647.000000,10725.000000,48663.000000
11600.000000,12611.000000,10651.000000,48629.000000
11580.000000,12651.000000,10678.000000,48655.000000
11553.000000,12634.000000,10660.000000,48658.000000
11590.000000,12620.000000,10703.000000,48640.000000
11592.000000,12603.000000,10676.000000,48706.000000
11560.000000,12615.000000,10662.000000,48661.000000
11554.000000,12609.000000,10633.000000,48646.000000
11564.000000,12605.000000,10652.000000,48626.000000
11548.000000,12632.000000,10637.000000,48632.000000
11539.000000,12615.000000,10658.000000,48637.000000
11572.000000,12595.000000,10669.000000,48619.000000
11518.000000,12615.000000,10683.000000,48631.000000
11547.000000,12616.000000,10644.000000,48628.000000
11506.000000,12609.000000,10658.000000,48633.000000
11546.000000,12568.000000,10651.000000,48616.000000
11555.000000,12551.000000,10648.000000,48678.000000
11563.000000,12600.000000,10657.000000,48630.000000
11567.000000,12525.000000,10601.000000,48660.000000
11533.000000,12592.000000,10631.000000,48600.000000
11560.000000,12562.000000,10588.000000,48645.000000
11514.000000,12586.000000,10654.000000,48623.000000
11520.000000,12619.000000,10623.000000,48634.000000
11539.000000,12541.000000,10648.000000,48654.000000
11537.000000,12583.000000,10606.000000,48635.000000
11564.000000,12542.000000,10696.000000,48651.000000
11553.000000,12595.000000,10675.000000,48664.000000
11586.000000,12555.000000,10707.000000,48628.000000
11581.000000,12572.000000,10664.000000,48642.000000
11588.000000,12643.000000,10692.000000,48636.000000
11624.000000,12600.000000,10708.000000,48659.000000
11584.000000,12641.000000,10690.000000,48627.000000
11576.000000,12623.000000,10683.000000,48684.000000
11602.000000,12635.000000,10708.000000,48656.000000
11634.000000,12658.000000,10733.000000,48688.000000
11615.000000,12647.000000,10758.000000,48683.000000
11646.000000,12640.000000,10707.000000,48694.000000
11662.000000,12608.000000,10763.000000,48753.000000
11696.000000,12657.000000,10736.000000,48706.000000
11676.000000,12684.000000,10782.000000,48728.000000
11687.000000,12668.000000,10781.000000,48736.000000
11714.000000,12681.000000,10834.000000,48741.000000
11753.000000,12688.000000,10777.000000,48741.000000
11690.000000,12703.000000,10855.000000,48781.000000
11713.000000,12791.000000,10881.000000,48749.000000
11782.000000,12763.000000,10887.000000,48797.000000
11775.000000,12755.000000,10907.000000,48767.000000
11823.000000,12805.000000,10945.000000,48826.000000
11817.000000,12801.000000,10941.000000,48854.000000
11843.000000,12804.000000,11001.000000,48852.000000
11868.000000,12852.000000,10986.000000,48870.000000
11870.000000,12822.000000,11023.000000,48856.000000
11901.000000,12830.000000,11049.000000,48847.000000
11953.000000,12855.000000,11052.000000,48904.000000
11926.000000,12876.000000,11098.000000,48932.000000
11936.000000,12895.000000,11136.000000,48946.000000
11979.000000,13132.000000,11134.000000,48931.000000
12013.000000,12875.000000,11174.000000,49002.000000
12023.000000,12952.000000,11167.000000,48955.000000
12041.000000,12947.000000,11180.000000,48997.000000
12058.000000,12952.000000,11224.000000,48966.000000
12079.000000,13015.000000,11231.000000,48964.000000
12096.000000,12974.000000,11248.000000,49014.000000
12056.000000,13000.000000,11263.000000,48932.000000
12141.000000,13004.000000,11275.000000,49013.000000
12097.000000,12990.000000,11305.000000,49024.000000
12114.000000,12964.000000,11282.000000,49055.000000
12095.000000,13007.000000,11243.000000,49007.000000
12145.000000,12956.000000,11219.000000,49043.000000
12104.000000,13016.000000,11282.000000,49005.000000
12202.000000,12972.000000,11253.000000,49020.000000
12090.000000,12972.000000,11260.000000,48975.000000
12118.000000,12979.000000,11245.000000,49001.000000
12073.000000,12944.000000,11240.000000,48991.000000
12065.000000,12972.000000,11257.000000,48981.000000
12070.000000,12964.000000,11248.000000,48960.000000
12077.000000,12933.000000,11219.000000,48989.000000
12031.000000,12962.000000,11218.000000,48966.000000
12041.000000,12955.000000,11191.000000,48936.000000
12076.000000,12945.000000,11186.000000,48993.000000
12022.000000,12953.000000,11188.000000,48958.000000
11982.000000,12917.000000,11236.000000,48936.000000
12042.000000,12944.000000,11182.000000,48991.000000
12001.000000,12901.000000,11204.000000,48961.000000
12002.000000,12919.000000,11168.000000,48978.000000
12012.000000,12905.000000,11166.000000,49002.000000
11958.000000,12896.000000,11163.000000,48931.000000
12023.000000,12955.000000,11099.000000,48976.000000
11975.000000,12886.000000,11130.000000,48897.000000
11949.000000,12928.000000,11105.000000,48925.000000
11948.000000,12895.000000,11108.000000,48896.000000
11938.000000,12895.000000,11127.000000,48958.000000
11953.000000,12886.000000,11109.000000,48948.000000
11945.000000,12865.000000,11102.000000,48935.000000
11981.000000,12845.000000,11052.000000,48950.000000
11947.000000,12903.000000,11076.000000,48916.000000
11940.000000,12844.000000,11077.000000,48912.000000
11941.000000,12881.000000,11070.000000,48909.000000
11963.000000,12823.000000,11082.000000,48871.000000
11902.000000,12866.000000,11066.000000,48904.000000
11875.000000,12807.000000,11076.000000,48895.000000
11895.000000,12822.000000,11064.000000,48899.000000
11957.000000,12814.000000,11047.000000,48896.000000
11907.000000,12825.000000,11064.000000,48887.000000
11913.000000,12880.000000,10996.000000,48843.000000
11901.000000,12835.000000,11041.000000,48891.000000
11933.000000,12865.000000,11031.000000,48826.000000
11865.000000,12835.000000,11070.000000,48878.000000
11896.000000,12802.000000,11054.000000,48843.000000
11910.000000,12832.000000,10983.000000,48889.000000
11864.000000,12818.000000,11005.000000,48876.000000
11877.000000,12794.000000,10968.000000,48860.000000
11866.000000,12808.000000,10973.000000,48831.000000
11866.000000,12828.000000,10947.000000,48815.000000
11843.000000,12789.000000,10952.000000,48838.000000
11831.000000,12828.000000,10966.000000,48803.000000
11864.000000,12814.000000,10962.000000,48810.000000
11810.000000,12794.000000,10947.000000,48854.000000
11810.000000,12801.000000,10973.000000,48820.000000
11813.000000,12805.000000,10941.000000,48797.000000
11824.000000,12809.000000,10950.000000,48821.000000
11826.000000,12819.000000,10914.000000,48809.000000
11823.000000,12775.000000,10938.000000,48802.000000
11807.000000,12765.000000,10943.000000,48803.000000
11808.000000,12772.000000,10910.000000,48805.000000
11830.000000,12752.000000,10947.000000,48801.000000
11789.000000,12743.000000,10935.000000,48812.000000
11795.000000,12720.000000,10874.000000,48786.000000
11781.000000,12736.000000,10850.000000,48834.000000
11793.000000,12741.000000,10900.000000,48798.000000
11763.000000,12729.000000,10861.000000,48761.000000
11742.000000,12733.000000,10871.000000,48773.000000
11747.000000,12717.000000,10895.000000,48743.000000
11707.000000,12731.000000,10852.000000,48745.000000
11733.000000,12707.000000,10909.000000,48782.000000
11768.000000,12707.000000,10844.000000,48751.000000
11750.000000,12703.000000,10866.000000,48757.000000
11746.000000,12705.000000,10841.000000,48757.000000
11690.000000,12696.000000,10825.000000,48766.000000
11726.000000,12753.000000,10801.000000,48692.000000
11699.000000,12695.000000,10813.000000,48746.000000
11672.000000,12733.000000,10826.000000,48708.000000
11681.000000,12685.000000,10823.000000,48744.000000
11647.000000,12719.000000,10815.000000,48707.000000
11662.000000,12687.000000,10793.000000,48738.000000
11652.000000,12662.000000,10762.000000,48718.000000
11648.000000,12679.000000,10779.000000,48685.000000
11632.000000,12688.000000,10726.000000,48639.000000
11597.000000,12667.000000,10752.000000,48720.000000
11638.000000,12637.000000,10789.000000,48689.000000
11600.000000,12649.000000,10746.000000,48635.000000
11655.000000,12637.000000,10743.000000,48713.000000
11616.000000,12640.000000,10729.000000,48716.000000
11619.000000,12597.000000,10733.000000,48667.000000
11607.000000,12667.000000,10712.000000,48649.000000
11629.000000,12623.000000,10726.000000,48700.000000
11583.000000,12639.000000,10700.000000,48621.000000
11599.000000,12601.000000,10701.000000,48658.000000
11603.000000,12595.000000,10748.000000,48635.000000
11585.000000,12600.000000,10701.000000,48678.000000
11594.000000,12564.000000,10700.000000,48691.000000
11597.000000,12577.000000,10659.000000,48636.000000
11612.000000,12616.000000,10655.000000,48672.000000
11550.000000,12637.000000,10681.000000,48634.000000
11542.000000,12591.000000,10635.000000,48631.000000
11549.000000,12575.000000,10693.000000,48657.000000
11500.000000,12607.000000,10631.000000,48661.000000
11516.000000,12568.000000,10670.000000,48676.000000
11538.000000,12580.000000,10613.000000,48616.000000
11590.000000,12544.000000,10655.000000,48643.000000
11530.000000,12555.000000,10625.000000,48621.000000
11559.000000,12551.000000,10626.000000,48626.000000
11523.000000,12560.000000,10630.000000,48616.000000
11507.000000,12518.000000,10632.000000,48596.000000
11511.000000,12555.000000,10595.000000,48590.000000
11527.000000,12522.000000,10572.000000,48619.000000
11475.000000,12533.000000,10578.000000,48585.000000
11463.000000,12541.000000,10545.000000,48583.000000
11461.000000,12540.000000,10559.000000,48579.000000
11429.000000,12479.000000,10552.000000,48532.000000
11440.000000,12486.000000,10564.000000,48582.000000
11444.000000,12520.000000,10561.000000,48560.000000
11425.000000,12472.000000,10565.000000,48561.000000
11407.000000,12446.000000,10539.000000,48566.000000
11455.000000,12488.000000,10490.000000,48593.000000
11425.000000,12485.000000,10545.000000,48551.000000
11387.000000,12491.000000,10485.000000,48514.000000
11386.000000,12504.000000,10457.000000,48560.000000
11350.000000,12507.000000,10477.000000,48484.000000
11356.000000,12492.000000,10465.000000,48543.000000
11350.000000,12421.000000,10514.000000,48543.000000
11392.000000,12460.000000,10450.000000,48550.000000
11376.000000,12465.000000,10496.000000,48524.000000
11326.000000,12479.000000,10471.000000,48495.000000
11345.000000,12436.000000,10459.000000,48531.000000
11313.000000,12486.000000,10450.000000,48501.000000
11347.000000,12398.000000,10462.000000,48530.000000
11325.000000,12435.000000,10438.000000,48544.000000
11346.000000,12435.000000,10446.000000,48537.000000
11364.000000,12473.000000,10422.000000,48522.000000
11354.000000,12407.000000,10445.000000,48523.000000
11298.000000,12437.000000,10431.000000,48489.000000
11336.000000,12442.000000,10449.000000,48532.000000
11311.000000,12452.000000,10448.000000,48499.000000
11333.000000,12452.000000,10467.000000,48537.000000
11364.000000,12436.000000,10493.000000,48592.000000
11362.000000,12459.000000,10485.000000,48525.000000
11391.000000,12444.000000,10451.000000,48598.000000
11389.000000,12439.000000,10439.000000,48542.000000
11363.000000,12446.000000,10516.000000,48555.000000
11368.000000,12506.000000,10487.000000,48536.000000
11387.000000,12473.000000,10512.000000,48574.000000
11353.000000,12463.000000,10558.000000,48550.000000
11416.000000,12527.000000,10532.000000,48588.000000
11406.000000,12492.000000,10604.000000,48600.000000
11423.000000,12504.000000,10536.000000,48569.000000
11492.000000,12490.000000,10546.000000,48630.000000
11473.000000,12514.000000,10579.000000,48593.000000
11494.000000,12502.000000,10607.000000,48621.000000
11492.000000,12523.000000,10609.000000,48644.000000
11495.000000,12517.000000,10636.000000,48649.000000
11478.000000,12557.000000,10688.000000,48653.000000
11540.000000,12564.000000,10636.000000,48674.000000
11539.000000,12563.000000,10668.000000,48686.000000
11551.000000,12613.000000,10654.000000,48694.000000
11596.000000,12575.000000,10733.000000,48664.000000
11598.000000,12608.000000,10730.000000,48698.000000
11598.000000,12616.000000,10778.000000,48691.000000
11609.000000,12614.000000,10745.000000,48721.000000
11621.000000,12651.000000,10837.000000,48747.000000
11638.000000,12671.000000,10788.000000,48751.000000
11679.000000,12659.000000,10795.000000,48817.000000
11727.000000,12667.000000,10812.000000,48752.000000
11696.000000,12685.000000,10799.000000,48762.000000
11712.000000,12703.000000,10872.000000,48773.000000
11717.000000,12725.000000,10913.000000,48762.000000
11700.000000,12727.000000,10901.000000,48799.000000
11755.000000,12732.000000,10890.000000,48814.000000
11769.000000,12745.000000,10918.000000,48818.000000
11803.000000,12760.000000,10953.000000,48822.000000
11826.000000,12707.000000,10963.000000,48884.000000
11785.000000,12759.000000,10929.000000,48799.000000
11864.000000,12795.000000,10909.000000,48883.000000
11838.000000,12773.000000,10947.000000,48853.000000
11871.000000,12779.000000,10971.000000,48877.000000
11834.000000,12822.000000,10987.000000,48847.000000
11809.000000,12762.000000,10941.000000,48863.000000
11845.000000,12790.000000,10938.000000,48852.000000
11893.000000,12786.000000,10908.000000,48883.000000
11818.000000,12773.000000,10935.000000,48834.000000
11838.000000,12788.000000,10960.000000,48841.000000
11874.000000,12767.000000,10962.000000,48849.000000
11837.000000,12797.000000,10958.000000,48812.000000
11834.000000,12756.000000,10988.000000,48849.000000
11820.000000,12760.000000,10933.000000,48822.000000
11847.000000,12724.000000,10916.000000,48863.000000
11805.000000,12761.000000,10927.000000,48829.000000
11851.000000,12779.000000,10899.000000,48859.000000
11844.000000,12756.000000,10943.000000,48840.000000
11818.000000,12772.000000,10886.000000,48802.000000
11788.000000,12743.000000,10906.000000,48832.000000
11773.000000,12748.000000,10956.000000,48780.000000
11840.000000,12747.000000,10934.000000,48853.000000
11807.000000,12789.000000,10911.000000,48828.000000
11817.000000,12723.000000,10916.000000,48817.000000
11801.000000,12743.000000,10907.000000,48818.000000
11854.000000,12691.000000,10855.000000,48839.000000
11794.000000,12735.000000,10868.000000,48812.000000
11853.000000,12687.000000,10873.000000,48829.000000
11802.000000,12717.000000,10866.000000,48795.000000
11801.000000,12707.000000,10867.000000,48830.000000
11784.000000,12732.000000,10871.000000,48807.000000
11759.000000,12691.000000,10907.000000,48832.000000
11790.000000,12715.000000,10883.000000,48809.000000
11787.000000,12692.000000,10840.000000,48839.000000
11755.000000,12716.000000,10823.000000,48792.000000
11762.000000,12683.000000,10815.000000,48752.000000
11789.000000,12699.000000,10823.000000,48807.000000
11763.000000,12715.000000,10827.000000,48740.000000
11667.000000,12684.000000,10842.000000,48754.000000
11724.000000,12682.000000,10798.000000,48771.000000
11692.000000,12637.000000,10821.000000,48746.000000
11681.000000,12637.000000,10760.000000,48731.000000
11707.000000,12635.000000,10776.000000,48789.000000
11701.000000,12628.000000,10738.000000,48714.000000
11697.000000,12624.000000,10722.000000,48802.000000
11679.000000,12607.000000,10723.000000,48684.000000
11640.000000,12644.000000,10694.000000,48718.000000
11694.000000,12639.000000,10731.000000,48686.000000
11633.000000,12623.000000,10657.000000,48718.000000
11629.000000,12611.000000,10679.000000,48686.000000
11596.000000,12591.000000,10679.000000,48687.000000
11631.000000,12564.000000,10690.000000,48727.000000
11607.000000,12568.000000,10705.000000,48656.000000
11607.000000,12561.000000,10649.000000,48682.000000
11564.000000,12613.000000,10645.000000,48669.000000
11593.000000,12531.000000,10704.000000,48655.000000
11600.000000,12591.000000,10685.000000,48652.000000
11549.000000,12571.000000,10696.000000,48646.000000
11549.000000,12580.000000,10667.000000,48675.000000
11575.000000,12542.000000,10657.000000,48685.000000
11549.000000,12567.000000,10665.000000,48649.000000
11564.000000,12587.000000,10623.000000,48650.000000
11581.000000,12571.000000,10644.000000,48645.000000
11561.000000,12593.000000,10633.000000,48659.000000
11556.000000,12588.000000,10646.000000,48641.000000
11559.000000,12547.000000,10634.000000,48630.000000
11525.000000,12562.000000,10689.000000,48651.000000
11517.000000,12593.000000,10634.000000,48664.000000
11529.000000,12553.000000,10645.000000,48651.000000
11534.000000,12551.000000,10611.000000,48656.000000
11579.000000,12468.000000,10589.000000,48697.000000
11572.000000,12549.000000,10613.000000,48630.000000
11579.000000,12537.000000,10598.000000,48708.000000
11557.000000,12545.000000,10585.000000,48658.000000
11570.000000,12504.000000,10640.000000,48626.000000
11568.000000,12544.000000,10592.000000,48624.000000
11530.000000,12505.000000,10600.000000,48680.000000
11504.000000,12483.000000,10591.000000,48626.000000
11561.000000,12503.000000,10567.000000,48675.000000
11520.000000,12498.000000,10558.000000,48623.000000
11538.000000,12518.000000,10578.000000,48608.000000
11497.000000,12530.000000,10562.000000,48629.000000
11509.000000,12497.000000,10550.000000,48596.000000
11498.000000,12563.000000,10563.000000,48594.000000
11484.000000,12490.000000,10550.000000,48633.000000
11457.000000,12520.000000,10577.000000,48578.000000
11484.000000,12508.000000,10539.000000,48597.000000
11443.000000,12439.000000,10547.000000,48604.000000
11479.000000,12504.000000,10507.000000,48597.000000
11480.000000,12461.000000,10530.000000,48653.000000
11443.000000,12513.000000,10511.000000,48603.000000
11457.000000,12488.000000,10480.000000,48613.000000
11443.000000,12491.000000,10518.000000,48553.000000
11420.000000,12455.000000,10523.000000,48582.000000
11423.000000,12485.000000,10536.000000,48580.000000
11411.000000,12454.000000,10468.000000,48574.000000
11343.000000,12472.000000,10531.000000,48532.000000
11426.000000,12429.000000,10450.000000,48572.000000
11386.000000,12425.000000,10507.000000,48556.000000
11422.000000,12429.000000,10440.000000,48568.000000
11354.000000,12429.000000,10470.000000,48500.000000
11345.000000,12425.000000,10415.000000,48515.000000
11323.000000,12382.000000,10424.000000,48473.000000
11328.000000,12400.000000,10386.000000,48539.000000
11283.000000,12360.000000,10397.000000,48507.000000
11269.000000,12373.000000,10337.000000,48459.000000
11276.000000,12374.000000,10318.000000,48520.000000
11229.000000,12360.000000,10372.000000,48467.000000
11221.000000,12337.000000,10289.000000,48436.000000
11201.000000,12352.000000,10279.000000,48422.000000
11217.000000,12328.000000,10279.000000,48434.000000
11189.000000,12354.000000,10322.000000,48421.000000
11213.000000,12335.000000,10294.000000,48435.000000
11146.000000,12307.000000,10317.000000,48420.000000
11158.000000,12327.000000,10265.000000,48439.000000
11127.000000,12233.000000,10270.000000,48441.000000
11136.000000,12291.000000,10240.000000,48424.000000
11200.000000,12255.000000,10219.000000,48420.000000
11122.000000,12272.000000,10223.000000,48407.000000
11163.000000,12259.000000,10209.000000,48412.000000
11132.000000,12239.000000,10198.000000,48387.000000
11126.000000,12252.000000,10211.000000,48371.000000
11113.000000,12236.000000,10239.000000,48381.000000
11122.000000,12260.000000,10183.000000,48396.000000
11089.000000,12220.000000,10204.000000,48379.000000
11128.000000,12240.000000,10207.000000,48363.000000
11114.000000,12241.000000,10161.000000,48389.000000
11125.000000,12220.000000,10169.000000,48380.000000
11089.000000,12273.000000,10161.000000,48348.000000
11118.000000,12241.000000,10158.000000,48377.000000
11062.000000,12217.000000,10174.000000,48349.000000
11122.000000,12249.000000,10134.000000,48364.000000
11143.000000,12175.000000,10161.000000,48415.000000
11087.000000,12221.000000,10181.000000,48393.000000
11182.000000,12191.000000,10145.000000,48386.000000
11159.000000,12223.000000,10110.000000,48372.000000
11154.000000,12220.000000,10134.000000,48366.000000
11195.000000,12231.000000,10149.000000,48348.000000
11168.000000,12237.000000,10182.000000,48401.000000
11140.000000,12287.000000,10178.000000,48336.000000
11164.000000,12261.000000,10187.000000,48402.000000
11148.000000,12281.000000,10204.000000,48326.000000
11201.000000,12251.000000,10208.000000,48389.000000
11149.000000,12258.000000,10229.000000,48384.000000
11212.000000,12285.000000,10211.000000,48415.000000
11203.000000,12303.000000,10207.000000,48452.000000
11251.000000,12289.000000,10222.000000,48413.000000
11223.000000,12310.000000,10263.000000,48440.000000
11293.000000,12346.000000,10266.000000,48403.000000
11253.000000,12338.000000,10294.000000,48438.000000
11321.000000,12299.000000,10283.000000,48484.000000
11298.000000,12332.000000,10306.000000,48496.000000
11340.000000,12336.000000,10311.000000,48522.000000
11337.000000,12357.000000,10365.000000,48499.000000
11400.000000,12359.000000,10351.000000,48520.000000
11389.000000,12385.000000,10398.000000,48505.000000
11419.000000,12432.000000,10373.000000,48484.000000
11430.000000,12415.000000,10394.000000,48542.000000
11415.000000,12439.000000,10435.000000,48506.000000
11471.000000,12445.000000,10473.000000,48575.000000
11434.000000,12461.000000,10515.000000,48541.000000
11491.000000,12435.000000,10476.000000,48567.000000
11531.000000,12449.000000,10527.000000,48589.000000
11568.000000,12491.000000,10499.000000,48585.000000
11512.000000,12508.000000,10562.000000,48618.000000
11562.000000,12548.000000,10562.000000,48643.000000
11568.000000,12516.000000,10565.000000,48658.000000
11616.000000,12593.000000,10575.000000,48639.000000
11614.000000,12576.000000,10646.000000,48687.000000
11585.000000,12607.000000,10647.000000,48679.000000
11643.000000,12597.000000,10683.000000,48701.000000
11687.000000,12613.000000,10657.000000,48730.000000
11688.000000,12623.000000,10711.000000,48718.000000
11718.000000,12641.000000,10729.000000,48711.000000
11708.000000,12643.000000,10783.000000,48745.000000
11704.000000,12673.000000,10776.000000,48715.000000
11725.000000,12636.000000,10753.000000,48732.000000
11794.000000,12661.000000,10806.000000,48786.000000
11777.000000,12695.000000,10789.000000,48782.000000
11771.000000,12675.000000,10797.000000,48768.000000
11782.000000,12627.000000,10783.000000,48791.000000
11788.000000,12678.000000,10778.000000,48737.000000
11807.000000,12680.000000,10738.000000,48733.000000
11787.000000,12655.000000,10757.000000,48753.000000
11717.000000,12695.000000,10738.000000,48656.000000
11754.000000,12643.000000,10713.000000,48739.000000
11732.000000,12619.000000,10759.000000,48666.000000
11727.000000,12630.000000,10708.000000,48749.000000
11713.000000,12597.000000,10760.000000,48697.000000
11746.000000,12623.000000,10700.000000,48708.000000
11710.000000,12627.000000,10671.000000,48686.000000
11717.000000,12604.000000,10682.000000,48671.000000
11710.000000,12607.000000,10684.000000,48671.000000
11694.000000,12635.000000,10635.000000,48649.000000
11703.000000,12568.000000,10652.000000,48676.000000
11664.000000,12504.000000,10632.000000,48681.000000
11683.000000,12579.000000,10625.000000,48677.000000
11665.000000,12573.000000,10578.000000,48652.000000
11679.000000,12585.000000,10589.000000,48649.000000
11694.000000,12547.000000,10578.000000,48641.000000
11654.000000,12555.000000,10592.000000,48635.000000
11632.000000,12580.000000,10591.000000,48599.000000
11641.000000,12529.000000,10579.000000,48635.000000
11672.000000,12517.000000,10571.000000,48663.000000
11614.000000,12554.000000,10584.000000,48595.000000
11650.000000,12504.000000,10538.000000,48642.000000
11640.000000,12482.000000,10506.000000,48651.000000
11620.000000,12464.000000,10530.000000,48598.000000
11620.000000,12534.000000,10535.000000,48591.000000
11609.000000,12490.000000,10516.000000,48619.000000
11585.000000,12522.000000,10508.000000,48592.000000
11621.000000,12478.000000,10506.000000,48625.000000
11564.000000,12465.000000,10529.000000,48573.000000
11605.000000,12489.000000,10479.000000,48604.000000
11590.000000,12461.000000,10510.000000,48605.000000
11631.000000,12468.000000,10468.000000,48606.000000
11605.000000,12485.000000,10485.000000,48573.000000
11589.000000,12464.000000,10451.000000,48577.000000
11563.000000,12447.000000,10449.000000,48562.000000
11583.000000,12480.000000,10453.000000,48556.000000
11594.000000,12464.000000,10483.000000,48537.000000
11550.000000,12456.000000,10423.000000,48567.000000
11587.000000,12427.000000,10436.000000,48608.000000
11607.000000,12399.000000,10397.000000,48592.000000
11553.000000,12435.000000,10444.000000,48570.000000
11590.000000,12426.000000,10409.000000,48586.000000
11563.000000,12431.000000,10413.000000,48545.000000
11620.000000,12416.000000,10375.000000,48599.000000
11555.000000,12410.000000,10376.000000,48579.000000
11560.000000,12480.000000,10377.000000,48515.000000
11586.000000,12411.000000,10369.000000,48564.000000
11544.000000,12446.000000,10377.000000,48508.000000
11521.000000,12379.000000,10375.000000,48546.000000
11559.000000,12410.000000,10384.000000,48533.000000
11565.000000,12355.000000,10326.000000,48572.000000
11575.000000,12397.000000,10337.000000,48532.000000
11583.000000,12373.000000,10340.000000,48555.000000
11536.000000,12428.000000,10345.000000,48536.000000
11649.000000,12375.000000,10334.000000,48598.000000
11544.000000,12436.000000,10351.000000,48536.000000
11564.000000,12376.000000,10323.000000,48539.000000
11511.000000,12404.000000,10317.000000,48554.000000
11564.000000,12372.000000,10353.000000,48527.000000
11557.000000,12371.000000,10347.000000,48509.000000
11547.000000,12362.000000,10319.000000,48562.000000
11546.000000,12408.000000,10300.000000,48473.000000
11552.000000,12372.000000,10281.000000,48541.000000
11511.000000,12389.000000,10315.000000,48485.000000
11502.000000,12377.000000,10325.000000,48443.000000
11497.000000,12356.000000,10347.000000,48493.000000
11552.000000,12351.000000,10310.000000,48498.000000
11491.000000,12404.000000,10325.000000,48483.000000
11496.000000,12368.000000,10313.000000,48507.000000
11481.000000,12340.000000,10297.000000,48501.000000
11508.000000,12345.000000,10287.000000,48479.000000
11518.000000,12308.000000,10273.000000,48519.000000
11539.000000,12374.000000,10286.000000,48500.000000
11531.000000,12357.000000,10233.000000,48500.000000
11483.000000,12350.000000,10254.000000,48477.000000
11475.000000,12369.000000,10219.000000,48475.000000
11498.000000,12338.000000,10265.000000,48472.000000
11509.000000,12346.000000,10240.000000,48499.000000
11455.000000,12366.000000,10253.000000,48511.000000
11472.000000,12336.000000,10231.000000,48457.000000
11533.000000,12312.000000,10254.000000,48482.000000
11486.000000,12335.000000,10242.000000,48451.000000
11503.000000,12338.000000,10234.000000,48465.000000
11491.000000,12329.000000,10242.000000,48447.000000
11509.000000,12318.000000,10263.000000,48417.000000
11466.000000,12372.000000,10216.000000,48447.000000
11479.000000,12313.000000,10234.000000,48477.000000
11454.000000,12327.000000,10225.000000,48435.000000
11517.000000,12302.000000,10209.000000,48471.000000
11447.000000,12318.000000,10189.000000,48437.000000
11455.000000,12368.000000,10209.000000,48437.000000
11481.000000,12318.000000,10223.000000,48423.000000
11444.000000,12285.000000,10217.000000,48419.000000
11446.000000,12313.000000,10237.000000,48430.000000
11464.000000,12326.000000,10211.000000,48443.000000
11461.000000,12265.000000,10178.000000,48464.000000
11436.000000,12337.000000,10197.000000,48440.000000
11506.000000,12276.000000,10156.000000,48425.000000
11430.000000,12308.000000,10187.000000,48423.000000
11510.000000,12361.000000,10167.000000,48449.000000
11456.000000,12292.000000,10169.000000,48412.000000
11441.000000,12361.000000,10188.000000,48411.000000
11441.000000,12304.000000,10209.000000,48447.000000
11449.000000,12314.000000,10156.000000,48464.000000
11419.000000,12294.000000,10170.000000,48425.000000
11448.000000,12323.000000,10172.000000,48422.000000
11513.000000,12309.000000,10151.000000,48429.000000
11482.000000,12329.000000,10203.000000,48391.000000
11460.000000,12305.000000,10170.000000,48408.000000
11455.000000,12308.000000,10198.000000,48435.000000
11462.000000,12263.000000,10165.000000,48455.000000
11423.000000,12326.000000,10162.000000,48441.000000
11443.000000,12264.000000,10178.000000,48448.000000
11475.000000,12277.000000,10158.000000,48407.000000
11499.000000,12313.000000,10141.000000,48438.000000
11462.000000,12278.000000,10171.000000,48393.000000
11455.000000,12348.000000,10161.000000,48390.000000
11470.000000,12301.000000,10178.000000,48415.000000
11453.000000,12329.000000,10213.000000,48424.000000
11404.000000,12313.000000,10215.000000,48448.000000
11445.000000,12273.000000,10205.000000,48417.000000
11467.000000,12281.000000,10196.000000,48488.000000
11462.000000,12297.000000,10190.000000,48411.000000
11464.000000,12289.000000,10202.000000,48464.000000
11472.000000,12312.000000,10177.000000,48402.000000
11534.000000,12298.000000,10221.000000,48447.000000
11493.000000,12321.000000,10192.000000,48428.000000
11515.000000,12299.000000,10183.000000,48391.000000
11516.000000,12343.000000,10164.000000,48447.000000
11490.000000,12334.000000,10264.000000,48408.000000
11508.000000,12353.000000,10213.000000,48459.000000
11525.000000,12314.000000,10226.000000,48481.000000
11539.000000,12323.000000,10211.000000,48453.000000
11577.000000,12349.000000,10201.000000,48508.000000
11548.000000,12373.000000,10244.000000,48451.000000
11554.000000,12406.000000,10270.000000,48430.000000
11562.000000,12390.000000,10269.000000,48447.000000
11596.000000,12360.000000,10302.000000,48484.000000
11563.000000,12368.000000,10278.000000,48467.000000
11591.000000,12359.000000,10288.000000,48497.000000
11559.000000,12406.000000,10343.000000,48463.000000
11612.000000,12388.000000,10311.000000,48498.000000
11595.000000,12384.000000,10395.000000,48533.000000
11647.000000,12428.000000,10353.000000,48522.000000
11669.000000,12374.000000,10361.000000,48510.000000
11640.000000,12425.000000,10368.000000,48541.000000
11705.000000,12438.000000,10406.000000,48526.000000
11648.000000,12509.000000,10405.000000,48512.000000
11681.000000,12441.000000,10466.000000,48516.000000
11684.000000,12500.000000,10454.000000,48558.000000
11724.000000,12491.000000,10446.000000,48620.000000
11732.000000,12525.000000,10464.000000,48582.000000
11740.000000,12520.000000,10468.000000,48634.000000
11791.000000,12527.000000,10508.000000,48639.000000
11794.000000,12526.000000,10562.000000,48637.000000
11856.000000,12580.000000,10552.000000,48661.000000
11826.000000,12595.000000,10577.000000,48689.000000
11861.000000,12617.000000,10582.000000,48643.000000
11869.000000,12595.000000,10607.000000,48697.000000
11900.000000,12648.000000,10662.000000,48673.000000
11927.000000,12618.000000,10676.000000,48698.000000
11957.000000,12629.000000,10736.000000,48709.000000
12003.000000,12633.000000,10707.000000,48743.000000
11970.000000,12687.000000,10741.000000,48736.000000
12008.000000,12685.000000,10729.000000,48790.000000
12025.000000,12688.000000,10721.000000,48756.000000
12100.000000,12741.000000,10701.000000,48774.000000
12039.000000,12738.000000,10777.000000,48782.000000
12006.000000,12751.000000,10728.000000,48782.000000
12044.000000,12751.000000,10778.000000,48772.000000
12012.000000,12732.000000,10761.000000,48755.000000
12050.000000,12727.000000,10777.000000,49023.000000
12016.000000,12722.000000,10746.000000,48776.000000
12261.000000,12733.000000,10774.000000,48762.000000
12021.000000,12787.000000,10721.000000,48741.000000
12019.000000,12705.000000,10739.000000,48749.000000
12005.000000,12732.000000,10800.000000,48743.000000
12050.000000,12735.000000,10735.000000,48761.000000
12029.000000,12700.000000,10745.000000,48754.000000
11998.000000,12683.000000,10739.000000,48779.000000
12042.000000,12692.000000,10735.000000,48754.000000
12059.000000,12695.000000,10700.000000,48811.000000
12000.000000,12684.000000,10708.000000,48711.000000
12007.000000,12689.000000,10705.000000,48738.000000
12016.000000,12709.000000,10720.000000,48726.000000
11983.000000,12700.000000,10710.000000,48664.000000
11970.000000,12714.000000,10695.000000,48765.000000
11948.000000,12671.000000,10754.000000,48750.000000
11978.000000,12662.000000,10707.000000,48721.000000
11968.000000,12628.000000,10731.000000,48731.000000
12010.000000,12682.000000,10671.000000,48726.000000
11996.000000,12685.000000,10677.000000,48735.000000
11979.000000,12675.000000,10684.000000,48677.000000
11987.000000,12691.000000,10690.000000,48720.000000
11939.000000,12697.000000,10698.000000,48686.000000
12001.000000,12668.000000,10682.000000,48729.000000
11932.000000,12697.000000,10634.000000,48685.000000
12007.000000,12652.000000,10654.000000,48713.000000
11927.000000,12630.000000,10646.000000,48711.000000
11983.000000,12644.000000,10648.000000,48712.000000
11957.000000,12703.000000,10608.000000,48686.000000
11944.000000,12623.000000,10632.000000,48706.000000
11918.000000,12607.000000,10658.000000,48670.000000
11950.000000,12647.000000,10633.000000,48707.000000
11943.000000,12623.000000,10588.000000,48936.000000
11962.000000,12609.000000,10601.000000,48704.000000
11908.000000,12583.000000,10595.000000,48661.000000
11946.000000,12627.000000,10560.000000,48659.000000
11922.000000,12635.000000,10614.000000,48661.000000
11901.000000,12621.000000,10556.000000,48646.000000
11919.000000,12591.000000,10562.000000,48646.000000
11874.000000,12643.000000,10586.000000,48573.000000
12156.000000,12613.000000,10569.000000,48654.000000
11881.000000,12620.000000,10623.000000,48601.000000
11920.000000,12591.000000,10571.000000,48654.000000
11894.000000,12595.000000,10570.000000,48644.000000
11885.000000,12584.000000,10547.000000,48643.000000
11865.000000,12546.000000,10546.000000,48616.000000
11908.000000,12599.000000,10513.000000,48611.000000
11871.000000,12580.000000,10538.000000,48603.000000
11861.000000,12583.000000,10484.000000,48593.000000
11843.000000,12547.000000,10462.000000,48626.000000
11848.000000,12563.000000,10461.000000,48567.000000
11811.000000,12530.000000,10432.000000,48597.000000
11807.000000,12508.000000,10453.000000,48615.000000
11793.000000,12491.000000,10445.000000,48563.000000
11812.000000,12482.000000,10375.000000,48610.000000
11749.000000,12463.000000,10412.000000,48540.000000
11765.000000,12509.000000,10385.000000,48522.000000
11766.000000,12489.000000,10424.000000,48573.000000
11716.000000,12526.000000,10396.000000,48537.000000
11721.000000,12439.000000,10412.000000,48510.000000
11711.000000,12465.000000,10393.000000,48517.000000
11768.000000,12426.000000,10340.000000,48520.000000
11760.000000,12497.000000,10358.000000,48533.000000
11715.000000,12441.000000,10351.000000,48538.000000
11701.000000,12440.000000,10350.000000,48530.000000
11719.000000,12453.000000,10260.000000,48539.000000
11662.000000,12411.000000,10300.000000,48488.000000
11704.000000,12481.000000,10271.000000,48521.000000
11693.000000,12446.000000,10291.000000,48489.000000
11665.000000,12445.000000,10280.000000,48511.000000
11625.000000,12408.000000,10298.000000,48479.000000
11653.000000,12399.000000,10259.000000,48501.000000
11689.000000,12374.000000,10272.000000,48487.000000
11668.000000,12425.000000,10247.000000,48466.000000
11641.000000,12407.000000,10221.000000,48456.000000
11626.000000,12398.000000,10252.000000,48435.000000
11666.000000,12374.000000,10212.000000,48487.000000
11652.000000,12389.000000,10242.000000,48474.000000
11610.000000,12356.000000,10278.000000,48480.000000
11627.000000,12363.000000,10213.000000,48461.000000
11637.000000,12324.000000,10171.000000,48501.000000
11628.000000,12383.000000,10197.000000,48445.000000
11626.000000,12339.000000,10196.000000,48449.000000
11606.000000,12359.000000,10191.000000,48451.000000
11597.000000,12392.000000,10176.000000,48420.000000
11604.000000,12376.000000,10170.000000,48463.000000
11519.000000,12371.000000,10166.000000,48376.000000
11591.000000,12328.000000,10163.000000,48446.000000
11577.000000,12345.000000,10142.000000,48397.000000
11536.000000,12313.000000,10118.000000,48416.000000
11562.000000,12300.000000,10108.000000,48412.000000
11573.000000,12288.000000,10063.000000,48436.000000
11530.000000,12295.000000,10128.000000,48379.000000
11564.000000,12287.000000,10077.000000,48396.000000
11546.000000,12288.000000,10094.000000,48388.000000
11535.000000,12273.000000,10086.000000,48404.000000
11507.000000,12275.000000,10056.000000,48367.000000
11495.000000,12261.000000,10085.000000,48371.000000
11477.000000,12247.000000,10065.000000,48376.000000
11515.000000,12247.000000,10072.000000,48404.000000
11470.000000,12236.000000,10039.000000,48333.000000
11488.000000,12252.000000,9997.000000,48347.000000
11482.000000,12238.000000,10018.000000,48360.000000
11468.000000,12240.000000,9994.000000,48318.000000
11452.000000,12259.000000,10034.000000,48326.000000
11454.000000,12229.000000,10043.000000,48357.000000
11410.000000,12216.000000,10005.000000,48346.000000
11452.000000,12241.000000,10009.000000,48330.000000
11435.000000,12215.000000,10042.000000,48359.000000
11453.000000,12228.000000,9989.000000,48328.000000
11455.000000,12199.000000,9978.000000,48374.000000
11405.000000,12201.000000,9962.000000,48322.000000
11444.000000,12227.000000,9939.000000,48350.000000
11370.000000,12185.000000,9928.000000,48291.000000
11407.000000,12215.000000,9947.000000,48332.000000
11343.000000,12188.000000,9937.000000,48274.000000
11363.000000,12167.000000,9935.000000,48292.000000
11350.000000,12137.000000,9916.000000,48307.000000
11390.000000,12175.000000,9877.000000,48278.000000
11327.000000,12139.000000,9923.000000,48261.000000
11346.000000,12162.000000,9902.000000,48261.000000
11342.000000,12147.000000,9868.000000,48251.000000
11329.000000,12149.000000,9891.000000,48268.000000
11284.000000,12161.000000,9842.000000,48235.000000
11303.000000,12134.000000,9854.000000,48265.000000
11258.000000,12144.000000,9833.000000,48202.000000
11296.000000,12112.000000,9830.000000,48239.000000
11210.000000,12058.000000,9854.000000,48204.000000
11245.000000,12110.000000,9801.000000,48203.000000
11255.000000,12047.000000,9853.000000,48226.000000
11272.000000,12063.000000,9774.000000,48222.000000
11292.000000,12047.000000,9793.000000,48264.000000
11250.000000,12059.000000,9747.000000,48184.000000
11224.000000,12055.000000,9785.000000,48210.000000
11222.000000,12072.000000,9767.000000,48206.000000
11224.000000,12051.000000,9775.000000,48197.000000
11237.000000,12129.000000,9730.000000,48209.000000
11237.000000,12062.000000,9779.000000,48229.000000
11207.000000,12105.000000,9776.000000,48234.000000
11253.000000,12059.000000,9799.000000,48217.000000
11257.000000,12024.000000,9799.000000,48268.000000
11248.000000,12065.000000,9774.000000,48240.000000
11267.000000,12072.000000,9749.000000,48214.000000
11289.000000,12087.000000,9798.000000,48248.000000
11298.000000,12100.000000,9806.000000,48231.000000
11302.000000,12095.000000,9842.000000,48245.000000
11261.000000,12104.000000,9853.000000,48223.000000
11311.000000,12072.000000,9856.000000,48245.000000
11284.000000,12108.000000,9844.000000,48274.000000
11248.000000,12149.000000,9857.000000,48265.000000
11319.000000,12073.000000,9860.000000,48274.000000
11281.000000,12121.000000,9936.000000,48321.000000
11321.000000,12135.000000,9889.000000,48296.000000
11393.000000,12111.000000,9883.000000,48353.000000
11356.000000,12179.000000,9933.000000,48327.000000
11414.000000,12174.000000,9951.000000,48356.000000
11380.000000,12175.000000,10004.000000,48355.000000
11477.000000,12231.000000,9991.000000,48363.000000
11407.000000,12217.000000,10016.000000,48379.000000
11485.000000,12233.000000,10047.000000,48408.000000
11448.000000,12248.000000,10082.000000,48393.000000
11467.000000,12261.000000,10096.000000,48395.000000
11499.000000,12276.000000,10137.000000,48431.000000
11521.000000,12292.000000,10136.000000,48449.000000
11547.000000,12303.000000,10142.000000,48428.000000
11569.000000,12347.000000,10191.000000,48462.000000
11553.000000,12371.000000,10209.000000,48420.000000
11621.000000,12392.000000,10228.000000,48508.000000
11624.000000,12359.000000,10287.000000,48474.000000
11672.000000,12373.000000,10286.000000,48504.000000
11679.000000,12390.000000,10312.000000,48554.000000
11688.000000,12405.000000,10321.000000,48522.000000
11738.000000,12401.000000,10287.000000,48563.000000
11729.000000,12463.000000,10344.000000,48554.000000
11747.000000,12445.000000,10340.000000,48560.000000
11766.000000,12465.000000,10337.000000,48566.000000
11749.000000,12445.000000,10365.000000,48587.000000
11708.000000,12497.000000,10355.000000,48531.000000
11726.000000,12436.000000,10375.000000,48551.000000
11643.000000,12409.000000,10371.000000,48520.000000
11705.000000,12444.000000,10296.000000,48554.000000
11644.000000,12411.000000,10353.000000,48498.000000
11629.000000,12393.000000,10294.000000,48525.000000
11622.000000,12377.000000,10285.000000,48504.000000
11589.000000,12383.000000,10257.000000,48479.000000
11560.000000,12387.000000,10260.000000,48464.000000
11596.000000,12356.000000,10235.000000,48463.000000
11543.000000,12329.000000,10237.000000,48464.000000
11508.000000,12360.000000,10197.000000,48438.000000
11544.000000,12330.000000,10183.000000,48485.000000
11528.000000,12301.000000,10183.000000,48476.000000
11546.000000,12316.000000,10185.000000,48422.000000
11569.000000,12304.000000,10140.000000,48465.000000
11519.000000,12297.000000,10165.000000,48400.000000
11572.000000,12305.000000,10134.000000,48460.000000
11492.000000,12300.000000,10157.000000,48445.000000
11519.000000,12302.000000,10123.000000,48381.000000
11500.000000,12277.000000,10153.000000,48444.000000
11477.000000,12299.000000,10120.000000,48380.000000
11519.000000,12272.000000,10152.000000,48427.000000
11525.000000,12296.000000,10122.000000,48423.000000
11456.000000,12279.000000,10130.000000,48421.000000
11475.000000,12262.000000,10097.000000,48401.000000
11503.000000,12256.000000,10085.000000,48457.000000
11486.000000,12257.000000,10147.000000,48388.000000
11502.000000,12256.000000,10096.000000,48413.000000
11471.000000,12211.000000,10078.000000,48397.000000
11509.000000,12229.000000,10080.000000,48415.000000
11463.000000,12217.000000,10073.000000,48387.000000
11437.000000,12216.000000,10099.000000,48357.000000
11468.000000,12239.000000,10063.000000,48397.000000
11429.000000,12195.000000,10100.000000,48420.000000
11472.000000,12231.000000,10060.000000,48363.000000
11455.000000,12211.000000,10025.000000,48416.000000
11441.000000,12229.000000,10044.000000,48364.000000
11471.000000,12221.000000,9983.000000,48379.000000
11434.000000,12233.000000,9995.000000,48325.000000
11412.000000,12200.000000,10011.000000,48310.000000
11385.000000,12215.000000,9991.000000,48350.000000
11431.000000,12170.000000,10003.000000,48342.000000
11379.000000,12197.000000,10008.000000,48328.000000
11413.000000,12181.000000,9989.000000,48352.000000
11355.000000,12176.000000,10017.000000,48303.000000
11419.000000,12144.000000,9981.000000,48359.000000
11352.000000,12127.000000,9997.000000,48311.000000
11380.000000,12173.000000,9960.000000,48347.000000
11372.000000,12143.000000,9928.000000,48281.000000
11345.000000,12133.000000,9928.000000,48307.000000
11325.000000,12141.000000,9911.000000,48298.000000
11317.000000,12133.000000,9937.000000,48303.000000
11323.000000,12132.000000,9951.000000,48285.000000
11327.000000,12112.000000,9909.000000,48323.000000
11331.000000,12140.000000,9868.000000,48332.000000
11338.000000,12103.000000,9859.000000,48279.000000
11262.000000,12123.000000,9876.000000,48290.000000
11308.000000,12063.000000,9816.000000,48301.000000
11296.000000,12055.000000,9875.000000,48249.000000
11329.000000,12127.000000,9772.000000,48254.000000
11254.000000,12074.000000,9812.000000,48261.000000
11238.000000,12095.000000,9824.000000,48199.000000
11252.000000,12063.000000,9818.000000,48266.000000
11229.000000,12054.000000,9819.000000,48228.000000
11250.000000,12029.000000,9777.000000,48243.000000
11250.000000,12017.000000,9824.000000,48235.000000
11272.000000,12037.000000,9742.000000,48209.000000
11228.000000,12039.000000,9782.000000,48175.000000
11211.000000,12028.000000,9740.000000,48202.000000
11191.000000,12075.000000,9747.000000,48225.000000
11216.000000,12073.000000,9695.000000,48201.000000
11213.000000,12271.000000,9703.000000,48216.000000
11163.000000,12049.000000,9701.000000,48165.000000
11206.000000,11983.000000,9731.000000,48197.000000
11226.000000,11993.000000,9668.000000,48211.000000
11171.000000,11979.000000,9687.000000,48238.000000
11149.000000,12000.000000,9677.000000,48206.000000
11135.000000,11959.000000,9684.000000,48175.000000
11126.000000,11996.000000,9682.000000,48156.000000
11146.000000,11956.000000,9679.000000,48188.000000
11131.000000,11941.000000,9671.000000,48176.000000
11138.000000,11932.000000,9647.000000,48172.000000
11136.000000,11940.000000,9651.000000,48166.000000
11095.000000,11900.000000,9652.000000,48174.000000
11114.000000,11928.000000,9628.000000,48142.000000
11158.000000,11919.000000,9630.000000,48196.000000
11122.000000,11931.000000,9639.000000,48151.000000
11152.000000,11892.000000,9583.000000,48189.000000
11109.000000,11944.000000,9651.000000,48137.000000
11154.000000,11961.000000,9595.000000,48164.000000
11096.000000,11904.000000,9616.000000,48145.000000
11082.000000,11953.000000,9579.000000,48153.000000
11131.000000,11897.000000,9592.000000,48119.000000
11118.000000,11897.000000,9584.000000,48197.000000
11093.000000,11893.000000,9595.000000,48147.000000
11085.000000,11909.000000,9570.000000,48167.000000
11105.000000,11889.000000,9601.000000,48160.000000
11063.000000,11887.000000,9566.000000,48141.000000
11002.000000,11905.000000,9560.000000,48090.000000
11034.000000,11870.000000,9568.000000,48120.000000
11035.000000,11941.000000,9513.000000,48081.000000
11039.000000,11869.000000,9554.000000,48115.000000
11003.000000,11883.000000,9537.000000,48047.000000
11002.000000,11846.000000,9552.000000,48106.000000
11003.000000,11861.000000,9563.000000,48088.000000
11008.000000,11857.000000,9511.000000,48076.000000
10998.000000,11802.000000,9521.000000,48094.000000
11006.000000,11843.000000,9490.000000,48083.000000
10982.000000,11820.000000,9501.000000,48057.000000
10952.000000,11845.000000,9501.000000,48063.000000
10968.000000,11827.000000,9484.000000,48056.000000
10982.000000,11834.000000,9438.000000,48076.000000
10935.000000,11839.000000,9473.000000,48060.000000
10930.000000,11867.000000,9426.000000,48054.000000
10912.000000,11820.000000,9482.000000,48070.000000
10923.000000,11790.000000,9417.000000,48068.000000
10893.000000,11785.000000,9443.000000,48026.000000
10900.000000,11771.000000,9458.000000,48052.000000
10890.000000,11782.000000,9442.000000,48059.000000
10927.000000,11767.000000,9438.000000,48053.000000
10851.000000,11819.000000,9451.000000,48021.000000
10868.000000,11799.000000,9388.000000,48029.000000
10873.000000,11736.000000,9430.000000,48057.000000
10840.000000,11817.000000,9429.000000,48025.000000
10808.000000,11763.000000,9384.000000,48003.000000
10850.000000,11788.000000,9429.000000,48021.000000
10823.000000,11741.000000,9438.000000,48025.000000
10845.000000,11732.000000,9397.000000,48011.000000
10834.000000,11735.000000,9452.000000,48047.000000
10814.000000,11739.000000,9380.000000,48016.000000
11103.000000,11710.000000,9362.000000,48036.000000
10811.000000,11740.000000,9379.000000,47992.000000
10848.000000,11709.000000,9376.000000,48020.000000
10818.000000,11707.000000,9368.000000,48010.000000
10822.000000,11733.000000,9379.000000,47971.000000
10774.000000,11727.000000,9358.000000,47997.000000
10786.000000,11721.000000,9364.000000,47992.000000
10797.000000,11775.000000,9333.000000,47966.000000
10807.000000,11697.000000,9341.000000,48019.000000
10810.000000,11709.000000,9346.000000,48011.000000
10807.000000,11733.000000,9335.000000,47994.000000
10814.000000,11703.000000,9329.000000,48037.000000
10817.000000,11711.000000,9369.000000,47992.000000
10831.000000,11701.000000,9338.000000,48038.000000
10819.000000,11716.000000,9349.000000,48017.000000
10860.000000,11731.000000,9334.000000,48027.000000
10816.000000,11736.000000,9370.000000,48037.000000
10811.000000,11761.000000,9380.000000,48030.000000
10849.000000,11754.000000,9385.000000,48035.000000
10805.000000,11778.000000,9393.000000,48009.000000
10793.000000,11755.000000,9421.000000,47998.000000
10815.000000,11760.000000,9431.000000,48037.000000
10824.000000,11745.000000,9468.000000,48042.000000
10859.000000,11757.000000,9447.000000,48063.000000
10836.000000,11729.000000,9457.000000,48044.000000
10885.000000,11775.000000,9489.000000,48067.000000
10840.000000,11848.000000,9489.000000,48046.000000
10892.000000,11814.000000,9501.000000,48076.000000
10907.000000,11832.000000,9519.000000,48087.000000
10896.000000,11834.000000,9541.000000,48114.000000
10930.000000,11859.000000,9470.000000,48068.000000
10945.000000,11832.000000,9523.000000,48138.000000
10945.000000,11827.000000,9590.000000,48098.000000
10969.000000,12119.000000,9608.000000,48163.000000
10963.000000,11877.000000,9617.000000,48169.000000
10980.000000,11841.000000,9603.000000,48181.000000
11009.000000,11912.000000,9597.000000,48188.000000
11083.000000,11898.000000,9634.000000,48184.000000
11045.000000,11920.000000,9673.000000,48212.000000
11119.000000,11949.000000,9652.000000,48197.000000
11059.000000,11934.000000,9714.000000,48219.000000
11065.000000,12242.000000,9750.000000,48159.000000
11090.000000,11986.000000,9733.000000,48234.000000
11098.000000,11998.000000,9846.000000,48189.000000
11165.000000,12034.000000,9814.000000,48289.000000
11158.000000,12045.000000,9835.000000,48269.000000
11235.000000,12047.000000,9865.000000,48296.000000
11197.000000,12063.000000,9840.000000,48279.000000
11245.000000,12099.000000,9884.000000,48301.000000
11264.000000,12092.000000,9905.000000,48304.000000
11267.000000,12107.000000,9919.000000,48339.000000
11291.000000,12087.000000,9916.000000,48330.000000
11327.000000,12095.000000,9888.000000,48346.000000
11290.000000,12099.000000,9916.000000,48339.000000
11314.000000,12109.000000,9910.000000,48358.000000
11306.000000,12091.000000,9916.000000,48353.000000
11347.000000,12111.000000,9906.000000,48381.000000
11294.000000,12087.000000,9893.000000,48334.000000
11308.000000,12081.000000,9880.000000,48313.000000
11289.000000,12081.000000,9894.000000,48327.000000
11285.000000,12123.000000,9898.000000,48315.000000
11240.000000,12084.000000,9874.000000,48302.000000
11254.000000,12099.000000,9906.000000,48290.000000
11279.000000,12057.000000,9891.000000,48362.000000
11279.000000,12287.000000,9874.000000,48300.000000
11250.000000,12059.000000,9825.000000,48331.000000
11247.000000,12048.000000,9827.000000,48277.000000
11246.000000,11982.000000,9843.000000,48327.000000
11229.000000,12036.000000,9845.000000,48273.000000
11273.000000,12020.000000,9819.000000,48317.000000
11237.000000,12047.000000,9835.000000,48276.000000
11233.000000,12051.000000,9856.000000,48282.000000
11229.000000,12028.000000,9822.000000,48291.000000
11229.000000,12027.000000,9807.000000,48250.000000
11247.000000,12020.000000,9794.000000,48276.000000
11181.000000,12016.000000,9824.000000,48261.000000
11188.000000,11998.000000,9786.000000,48272.000000
11192.000000,11976.000000,9774.000000,48265.000000
11196.000000,12027.000000,9753.000000,48263.000000
11194.000000,12001.000000,9751.000000,48251.000000
11254.000000,11978.000000,9752.000000,48313.000000
11191.000000,12024.000000,9765.000000,48254.000000
11230.000000,11990.000000,9699.000000,48230.000000
11195.000000,11986.000000,9750.000000,48247.000000
11158.000000,12017.000000,9704.000000,48192.000000
11170.000000,11986.000000,9743.000000,48233.000000
11123.000000,12003.000000,9743.000000,48170.000000
11151.000000,11962.000000,9714.000000,48225.000000
11073.000000,11935.000000,9753.000000,48213.000000
11124.000000,11936.000000,9667.000000,48222.000000
11147.000000,11953.000000,9692.000000,48198.000000
11132.000000,11932.000000,9706.000000,48209.000000
11108.000000,11946.000000,9682.000000,48213.000000
11160.000000,11957.000000,9645.000000,48195.000000
11109.000000,11941.000000,9656.000000,48210.000000
11112.000000,11924.000000,9649.000000,48171.000000
11107.000000,11899.000000,9658.000000,48167.000000
11133.000000,11901.000000,9673.000000,48241.000000
11105.000000,11903.000000,9646.000000,48177.000000
11104.000000,11894.000000,9678.000000,48231.000000
11092.000000,11910.000000,9653.000000,48182.000000
11127.000000,11885.000000,9635.000000,48197.000000
11120.000000,11887.000000,9638.000000,48182.000000
11085.000000,11935.000000,9569.000000,48143.000000
11075.000000,11888.000000,9623.000000,48172.000000
11071.000000,11936.000000,9606.000000,48162.000000
11052.000000,11910.000000,9630.000000,48183.000000
11098.000000,11892.000000,9646.000000,48159.000000
11055.000000,11902.000000,9669.000000,48168.000000
11086.000000,11919.000000,9607.000000,48187.000000
11063.000000,11840.000000,9638.000000,48180.000000
11090.000000,11907.000000,9606.000000,48169.000000
11074.000000,11860.000000,9642.000000,48155.000000
11057.000000,11911.000000,9624.000000,48154.000000
11059.000000,11876.000000,9608.000000,48134.000000
11058.000000,11876.000000,9599.000000,48146.000000
11034.000000,11927.000000,9619.000000,48114.000000
11052.000000,11849.000000,9582.000000,48161.000000
11039.000000,11832.000000,9576.000000,48168.000000
10990.000000,11873.000000,9577.000000,48153.000000
11071.000000,11860.000000,9570.000000,48148.000000
11019.000000,11841.000000,9559.000000,48156.000000
11006.000000,11837.000000,9538.000000,48115.000000
11040.000000,11848.000000,9523.000000,48125.000000
11011.000000,11840.000000,9513.000000,48138.000000
11009.000000,11872.000000,9485.000000,48112.000000
11006.000000,11828.000000,9519.000000,48117.000000
10958.000000,11843.000000,9525.000000,48061.000000
10954.000000,11834.000000,9512.000000,48098.000000
10931.000000,11792.000000,9556.000000,48035.000000
10984.000000,11838.000000,9524.000000,48108.000000
10978.000000,11786.000000,9499.000000,48102.000000
10979.000000,11805.000000,9494.000000,48135.000000
10942.000000,11796.000000,9516.000000,48099.000000
10970.000000,11830.000000,9453.000000,48047.000000
10956.000000,11771.000000,9488.000000,48072.000000
10944.000000,11812.000000,9457.000000,48072.000000
10947.000000,11824.000000,9488.000000,48076.000000
10954.000000,11797.000000,9434.000000,48101.000000
10934.000000,11760.000000,9452.000000,48110.000000
10939.000000,11804.000000,9452.000000,48113.000000
10983.000000,11759.000000,9452.000000,48063.000000
11011.000000,11806.000000,9453.000000,48087.000000
10949.000000,11786.000000,9474.000000,48102.000000
10925.000000,11799.000000,9460.000000,48059.000000
10943.000000,11794.000000,9472.000000,48083.000000
10947.000000,11825.000000,9506.000000,48069.000000
10964.000000,11782.000000,9485.000000,48122.000000
10998.000000,11775.000000,9503.000000,48103.000000
10993.000000,11777.000000,9471.000000,48107.000000
10965.000000,11785.000000,9477.000000,48094.000000
10991.000000,11804.000000,9467.000000,48093.000000
10991.000000,11812.000000,9481.000000,48118.000000
11014.000000,11805.000000,9465.000000,48123.000000
10973.000000,11816.000000,9483.000000,48096.000000
10973.000000,11861.000000,9457.000000,48097.000000
10981.000000,11782.000000,9515.000000,48076.000000
11002.000000,11861.000000,9529.000000,48155.000000
10984.000000,11812.000000,9526.000000,48088.000000
10990.000000,11826.000000,9518.000000,48145.000000
11058.000000,11853.000000,9524.000000,48116.000000
11001.000000,11849.000000,9482.000000,48148.000000
11068.000000,11857.000000,9551.000000,48130.000000
11023.000000,11861.000000,9574.000000,48143.000000
11093.000000,11877.000000,9580.000000,48171.000000
11019.000000,11874.000000,9574.000000,48144.000000
11061.000000,11846.000000,9623.000000,48155.000000
11057.000000,11861.000000,9568.000000,48161.000000
11085.000000,11832.000000,9638.000000,48212.000000
11071.000000,11905.000000,9620.000000,48169.000000
11080.000000,11867.000000,9588.000000,48182.000000
11082.000000,11885.000000,9628.000000,48159.000000
11086.000000,11927.000000,9624.000000,48153.000000
11091.000000,11916.000000,9635.000000,48184.000000
11033.000000,11907.000000,9684.000000,48158.000000
11098.000000,11878.000000,9631.000000,48228.000000
11088.000000,11923.000000,9668.000000,48179.000000
11086.000000,11913.000000,9678.000000,48195.000000
11087.000000,11930.000000,9698.000000,48168.000000
11149.000000,11888.000000,9663.000000,48253.000000
11095.000000,11961.000000,9706.000000,48212.000000
11152.000000,11921.000000,9669.000000,48223.000000
11088.000000,11947.000000,9713.000000,48224.000000
11138.000000,11954.000000,9671.000000,48229.000000
11106.000000,11993.000000,9755.000000,48242.000000
11121.000000,11977.000000,9777.000000,48240.000000
11114.000000,11959.000000,9749.000000,48271.000000
11174.000000,11966.000000,9786.000000,48283.000000
11167.000000,11980.000000,9789.000000,48256.000000
11136.000000,12055.000000,9803.000000,48271.000000
11177.000000,12013.000000,9798.000000,48269.000000
11141.000000,12000.000000,9835.000000,48250.000000
11130.000000,12031.000000,9842.000000,48278.000000
11124.000000,12065.000000,9856.000000,48293.000000
11150.000000,12058.000000,9872.000000,48347.000000
11141.000000,12062.000000,9862.000000,48305.000000
11168.000000,12013.000000,9888.000000,48344.000000
11177.000000,12088.000000,9901.000000,48337.000000
11223.000000,12073.000000,9866.000000,48392.000000
11188.000000,12128.000000,9935.000000,48335.000000
11170.000000,12148.000000,9932.000000,48337.000000
11172.000000,12121.000000,9928.000000,48350.000000
11184.000000,12127.000000,9940.000000,48382.000000
11197.000000,12089.000000,9982.000000,48357.000000
11198.000000,12121.000000,9977.000000,48395.000000
11231.000000,12119.000000,9992.000000,48412.000000
11206.000000,12108.000000,9995.000000,48367.000000
11236.000000,12113.000000,10026.000000,48395.000000
11256.000000,12117.000000,10018.000000,48422.000000
11253.000000,12127.000000,10090.000000,48417.000000
11242.000000,12171.000000,10079.000000,48422.000000
11239.000000,12166.000000,10109.000000,48418.000000
11247.000000,12203.000000,10076.000000,48431.000000
11269.000000,12129.000000,10121.000000,48453.000000
11287.000000,12164.000000,10127.000000,48462.000000
11301.000000,12199.000000,10088.000000,48458.000000
11315.000000,12204.000000,10161.000000,48466.000000
11337.000000,12233.000000,10160.000000,48458.000000
11307.000000,12259.000000,10203.000000,48461.000000
11361.000000,12238.000000,10245.000000,48499.000000
11356.000000,12267.000000,10265.000000,48500.000000
11403.000000,12271.000000,10264.000000,48526.000000
11393.000000,12291.000000,10276.000000,48580.000000
11425.000000,12313.000000,10295.000000,48543.000000
11452.000000,12267.000000,10336.000000,48625.000000
11460.000000,12319.000000,10308.000000,48579.000000
11501.000000,12312.000000,10332.000000,48599.000000
11475.000000,12364.000000,10341.000000,48577.000000
11496.000000,12318.000000,10361.000000,48569.000000
11472.000000,12340.000000,10321.000000,48555.000000
11457.000000,12356.000000,10350.000000,48573.000000
11388.000000,12347.000000,10375.000000,48576.000000
11451.000000,12289.000000,10353.000000,48586.000000
11411.000000,12344.000000,10296.000000,48568.000000
11430.000000,12327.000000,10267.000000,48572.000000
11420.000000,12335.000000,10262.000000,48559.000000
11390.000000,12300.000000,10289.000000,48525.000000
11403.000000,12267.000000,10227.000000,48575.000000
11423.000000,12312.000000,10275.000000,48553.000000
11405.000000,12292.000000,10250.000000,48507.000000
11380.000000,12255.000000,10271.000000,48551.000000
11353.000000,12304.000000,10234.000000,48479.000000
11397.000000,12271.000000,10235.000000,48531.000000
11309.000000,12308.000000,10254.000000,48467.000000
11354.000000,12248.000000,10230.000000,48516.000000
11350.000000,12248.000000,10258.000000,48499.000000
11368.000000,12223.000000,10204.000000,48521.000000
11347.000000,12257.000000,10221.000000,48497.000000
11372.000000,12224.000000,10155.000000,48521.000000
11307.000000,12223.000000,10179.000000,48486.000000
11319.000000,12157.000000,10183.000000,48528.000000
11282.000000,12227.000000,10139.000000,48473.000000
11291.000000,12199.000000,10146.000000,48481.000000
11253.000000,12191.000000,10117.000000,48465.000000
11220.000000,12200.000000,10144.000000,48440.000000
11248.000000,12191.000000,10092.000000,48445.000000
11235.000000,12173.000000,10123.000000,48506.000000
11263.000000,12141.000000,10120.000000,48450.000000
11252.000000,12131.000000,10085.000000,48459.000000
11238.000000,12179.000000,10060.000000,48463.000000
11227.000000,12172.000000,10007.000000,48458.000000
11200.000000,12171.000000,10062.000000,48395.000000
11199.000000,12157.000000,10067.000000,48412.000000
11239.000000,12163.000000,10028.000000,48416.000000
11193.000000,12149.000000,10030.000000,48402.000000
11188.000000,12198.000000,10058.000000,48341.000000
11174.000000,12118.000000,10044.000000,48429.000000
11129.000000,12131.000000,10046.000000,48363.000000
11166.000000,12133.000000,10049.000000,48398.000000
11136.000000,12119.000000,9950.000000,48349.000000
11127.000000,12093.000000,9963.000000,48368.000000
11123.000000,12072.000000,9981.000000,48358.000000
11163.000000,12159.000000,9971.000000,48371.000000
11140.000000,12112.000000,9936.000000,48364.000000
11169.000000,12105.000000,9945.000000,48355.000000
11149.000000,12073.000000,9961.000000,48343.000000
11159.000000,12053.000000,9924.000000,48392.000000
11120.000000,12081.000000,9929.000000,48369.000000
11082.000000,12052.000000,9956.000000,48334.000000
11143.000000,12071.000000,9941.000000,48371.000000
11136.000000,12029.000000,9948.000000,48391.000000
11123.000000,12069.000000,9947.000000,48369.000000
11148.000000,12048.000000,9927.000000,48397.000000
11108.000000,12278.000000,9903.000000,48359.000000
11170.000000,12065.000000,9884.000000,48371.000000
11111.000000,12059.000000,9924.000000,48351.000000
11127.000000,12089.000000,9876.000000,48325.000000
11114.000000,12035.000000,9906.000000,48341.000000
11085.000000,12031.000000,9868.000000,48365.000000
11043.000000,12028.000000,9886.000000,48356.000000
11097.000000,12007.000000,9872.000000,48327.000000
11056.000000,12000.000000,9898.000000,48331.000000
11061.000000,12003.000000,9873.000000,48295.000000
11011.000000,11983.000000,9853.000000,48316.000000
11052.000000,11990.000000,9856.000000,48291.000000
11039.000000,12244.000000,9824.000000,48291.000000
11077.000000,11999.000000,9836.000000,48295.000000
11043.000000,12027.000000,9835.000000,48270.000000
11081.000000,11997.000000,9823.000000,48296.000000
11009.000000,12012.000000,9860.000000,48276.000000
11043.000000,11961.000000,9833.000000,48325.000000
11068.000000,11963.000000,9831.000000,48319.000000
11044.000000,12012.000000,9763.000000,48327.000000
11125.000000,11995.000000,9807.000000,48340.000000
11111.000000,11961.000000,9818.000000,48335.000000
11064.000000,11990.000000,9778.000000,48281.000000
11093.000000,11992.000000,9738.000000,48269.000000
11099.000000,12002.000000,9813.000000,48322.000000
11055.000000,12015.000000,9822.000000,48298.000000
11071.000000,11992.000000,9837.000000,48333.000000
11079.000000,12036.000000,9815.000000,48263.000000
11068.000000,11953.000000,9818.000000,48314.000000
11021.000000,11995.000000,9835.000000,48311.000000
11097.000000,11946.000000,9824.000000,48293.000000
11066.000000,11983.000000,9800.000000,48310.000000
11082.000000,11950.000000,9837.000000,48304.000000
11056.000000,12019.000000,9817.000000,48281.000000
11155.000000,12003.000000,9783.000000,48293.000000
11080.000000,11974.000000,9822.000000,48247.000000
11111.000000,12025.000000,9800.000000,48298.000000
11095.000000,11993.000000,9829.000000,48315.000000
11097.000000,11958.000000,9828.000000,48351.000000
11107.000000,11963.000000,9867.000000,48298.000000
11116.000000,11949.000000,9841.000000,48310.000000
11129.000000,12014.000000,9869.000000,48316.000000
11173.000000,11976.000000,9824.000000,48364.000000
11135.000000,12007.000000,9870.000000,48311.000000
11114.000000,12059.000000,9831.000000,48300.000000
11168.000000,12048.000000,9864.000000,48327.000000
11161.000000,12081.000000,9883.000000,48331.000000
11094.000000,12044.000000,9878.000000,48324.000000
11133.000000,12050.000000,9911.000000,48319.000000
11174.000000,11996.000000,9913.000000,48368.000000
11161.000000,12051.000000,9907.000000,48320.000000
11171.000000,12013.000000,9915.000000,48380.000000
11179.000000,12039.000000,9917.000000,48362.000000
11209.000000,11998.000000,9944.000000,48377.000000
11170.000000,12037.000000,9887.000000,48359.000000
11197.000000,12044.000000,9923.000000,48317.000000
11216.000000,12047.000000,9908.000000,48339.000000
11176.000000,12065.000000,9912.000000,48347.000000
11186.000000,12055.000000,9917.000000,48326.000000
11184.000000,12052.000000,9894.000000,48374.000000
11147.000000,12029.000000,9910.000000,48357.000000
11205.000000,12010.000000,9872.000000,48376.000000
11162.000000,12056.000000,9878.000000,48345.000000
11174.000000,12041.000000,9883.000000,48308.000000
11150.000000,12061.000000,9850.000000,48312.000000
11160.000000,12066.000000,9880.000000,48330.000000
11140.000000,12065.000000,9875.000000,48292.000000
11145.000000,12063.000000,9869.000000,48325.000000
11114.000000,12020.000000,9936.000000,48300.000000
11152.000000,12020.000000,9853.000000,48309.000000
11104.000000,11967.000000,9904.000000,48324.000000
11105.000000,12006.000000,9855.000000,48284.000000
11147.000000,11983.000000,9862.000000,48288.000000
11111.000000,11971.000000,9827.000000,48294.000000
11113.000000,11988.000000,9845.000000,48294.000000
11032.000000,11991.000000,9841.000000,48265.000000
11079.000000,11955.000000,9830.000000,48293.000000
11030.000000,12006.000000,9850.000000,48305.000000
11046.000000,11977.000000,9824.000000,48304.000000
11016.000000,11984.000000,9865.000000,48291.000000
11066.000000,12000.000000,9790.000000,48295.000000
11059.000000,11985.000000,9815.000000,48259.000000
11078.000000,12015.000000,9805.000000,48297.000000
11070.000000,12010.000000,9806.000000,48245.000000
11076.000000,11989.000000,9835.000000,48307.000000
11057.000000,12016.000000,9859.000000,48282.000000
11103.000000,11987.000000,9846.000000,48317.000000
11095.000000,11990.000000,9868.000000,48320.000000
11120.000000,12007.000000,9872.000000,48325.000000
11145.000000,12027.000000,9855.000000,48395.000000
11117.000000,12041.000000,9877.000000,48312.000000
11157.000000,12017.000000,9878.000000,48317.000000
11143.000000,12068.000000,9908.000000,48334.000000
11144.000000,12029.000000,9913.000000,48346.000000
11137.000000,12096.000000,9964.000000,48321.000000
11207.000000,12046.000000,9923.000000,48382.000000
11137.000000,12084.000000,9997.000000,48337.000000
11197.000000,12101.000000,9977.000000,48378.000000
11205.000000,12080.000000,10007.000000,48359.000000
11209.000000,12111.000000,10005.000000,48411.000000
11221.000000,12091.000000,10020.000000,48401.000000
11233.000000,12103.000000,10039.000000,48413.000000
11213.000000,12140.000000,10059.000000,48350.000000
11254.000000,12128.000000,10056.000000,48432.000000
11283.000000,12147.000000,10121.000000,48466.000000
11313.000000,12184.000000,10153.000000,48452.000000
11348.000000,12184.000000,10151.000000,48496.000000
11343.000000,12189.000000,10124.000000,48475.000000
11377.000000,12215.000000,10210.000000,48498.000000
11456.000000,12257.000000,10165.000000,48523.000000
11396.000000,12240.000000,10225.000000,48540.000000
11448.000000,12283.000000,10255.000000,48532.000000
11507.000000,12285.000000,10291.000000,48578.000000
11494.000000,12327.000000,10325.000000,48554.000000
11551.000000,12342.000000,10348.000000,48601.000000
11538.000000,12285.000000,10406.000000,48584.000000
11555.000000,12399.000000,10401.000000,48667.000000
11597.000000,12375.000000,10460.000000,48681.000000
11618.000000,12347.000000,10425.000000,48669.000000
11640.000000,12390.000000,10456.000000,48679.000000
11659.000000,12446.000000,10437.000000,48639.000000
11665.000000,12437.000000,10462.000000,48714.000000
11621.000000,12463.000000,10477.000000,48655.000000
11647.000000,12435.000000,10484.000000,48684.000000
11631.000000,12464.000000,10506.000000,48682.000000
11640.000000,12394.000000,10508.000000,48685.000000
11615.000000,12419.000000,10482.000000,48684.000000
11647.000000,12434.000000,10454.000000,48680.000000
11625.000000,12441.000000,10432.000000,48642.000000
11601.000000,12414.000000,10479.000000,48707.000000
11592.000000,12380.000000,10442.000000,48667.000000
11579.000000,12424.000000,10456.000000,48636.000000
11596.000000,12373.000000,10457.000000,48677.000000
11553.000000,12354.000000,10424.000000,48670.000000
11612.000000,12374.000000,10433.000000,48678.000000
11611.000000,12359.000000,10402.000000,48641.000000
11549.000000,12355.000000,10376.000000,48630.000000
11589.000000,12379.000000,10356.000000,48643.000000
11573.000000,12333.000000,10363.000000,48622.000000
11532.000000,12391.000000,10357.000000,48575.000000
11553.000000,12309.000000,10367.000000,48616.000000
11481.000000,12309.000000,10412.000000,48581.000000
11537.000000,12328.000000,10365.000000,48618.000000
11556.000000,12275.000000,10342.000000,48555.000000
11503.000000,12335.000000,10299.000000,48571.000000
11517.000000,12261.000000,10328.000000,48591.000000
11483.000000,12313.000000,10300.000000,48544.000000
11434.000000,12260.000000,10336.000000,48571.000000
11462.000000,12298.000000,10304.000000,48545.000000
11495.000000,12272.000000,10270.000000,48562.000000
11454.000000,12298.000000,10259.000000,48568.000000
11442.000000,12244.000000,10236.000000,48543.000000
11435.000000,12282.000000,10215.000000,48584.000000
11482.000000,12275.000000,10278.000000,48556.000000
11478.000000,12267.000000,10177.000000,48559.000000
11440.000000,12233.000000,10231.000000,48568.000000
11450.000000,12273.000000,10208.000000,48482.000000
11457.000000,12241.000000,10217.000000,48531.000000
11397.000000,12254.000000,10220.000000,48504.000000
11414.000000,12228.000000,10247.000000,48550.000000
11437.000000,12185.000000,10254.000000,48509.000000
11454.000000,12207.000000,10201.000000,48543.000000
11445.000000,12204.000000,10231.000000,48531.000000
11418.000000,12193.000000,10153.000000,48542.000000
11425.000000,12219.000000,10167.000000,48519.000000
11482.000000,12223.000000,10132.000000,48509.000000
11446.000000,12221.000000,10182.000000,48507.000000
11430.000000,12224.000000,10157.000000,48508.000000
11429.000000,12185.000000,10171.000000,48529.000000
11461.000000,12243.000000,10156.000000,48530.000000
11398.000000,12199.000000,10155.000000,48489.000000
11430.000000,12205.000000,10146.000000,48529.000000
11452.000000,12192.000000,10151.000000,48469.000000
11459.000000,12223.000000,10111.000000,48527.000000
11439.000000,12154.000000,10155.000000,48512.000000
11425.000000,12239.000000,10144.000000,48464.000000
11458.000000,12172.000000,10141.000000,48500.000000
11429.000000,12195.000000,10154.000000,48496.000000
11395.000000,12207.000000,10153.000000,48479.000000
11432.000000,12179.000000,10142.000000,48471.000000
11379.000000,12165.000000,10188.000000,48497.000000
11406.000000,12219.000000,10137.000000,48492.000000
11422.000000,12127.000000,10119.000000,48527.000000
11447.000000,12204.000000,10135.000000,48472.000000
11457.000000,12187.000000,10094.000000,48520.000000
11414.000000,12194.000000,10115.000000,48482.000000
11412.000000,12229.000000,10110.000000,48474.000000
11402.000000,12146.000000,10148.000000,48497.000000
11395.000000,12194.000000,10152.000000,48520.000000
11404.000000,12149.000000,10142.000000,48529.000000
11408.000000,12215.000000,10136.000000,48472.000000
11463.000000,12114.000000,10166.000000,48518.000000
11365.000000,12184.000000,10127.000000,48476.000000
11366.000000,12153.000000,10150.000000,48487.000000
11398.000000,12170.000000,10108.000000,48474.000000
11383.000000,12192.000000,10113.000000,48471.000000
11391.000000,12180.000000,10118.000000,48445.000000
11411.000000,12229.000000,10088.000000,48455.000000
11408.000000,12175.000000,10072.000000,48482.000000
11376.000000,12183.000000,10100.000000,48456.000000
11363.000000,12164.000000,10080.000000,48445.000000
11383.000000,12135.000000,10087.000000,48473.000000
11377.000000,12175.000000,10090.000000,48451.000000
11412.000000,12143.000000,10079.000000,48480.000000
11401.000000,12166.000000,10047.000000,48465.000000
11362.000000,12160.000000,10071.000000,48439.000000
11374.000000,12172.000000,10013.000000,48440.000000
11336.000000,12134.000000,10040.000000,48439.000000
11311.000000,12187.000000,10035.000000,48383.000000
11326.000000,12132.000000,10032.000000,48429.000000
11309.000000,12167.000000,10069.000000,48369.000000
11321.000000,12135.000000,10025.000000,48432.000000
11301.000000,12098.000000,10034.000000,48426.000000
11342.000000,12111.000000,10032.000000,48432.000000
11346.000000,12124.000000,10006.000000,48402.000000
11314.000000,12109.000000,10032.000000,48420.000000
11329.000000,12121.000000,10016.000000,48391.000000
11327.000000,12157.000000,9969.000000,48401.000000
11313.000000,12111.000000,10026.000000,48372.000000
11311.000000,12126.000000,10045.000000,48433.000000
11325.000000,12099.000000,10031.000000,48412.000000
11371.000000,12101.000000,10020.000000,48458.000000
11357.000000,12125.000000,10020.000000,48425.000000
11358.000000,12105.000000,9994.000000,48444.000000
11365.000000,12148.000000,10036.000000,48431.000000
11408.000000,12116.000000,9986.000000,48421.000000
11344.000000,12167.000000,10039.000000,48416.000000
11326.000000,12159.000000,10036.000000,48391.000000
11376.000000,12156.000000,10052.000000,48420.000000
11323.000000,12119.000000,10044.000000,48407.000000
11346.000000,12105.000000,10027.000000,48444.000000
11382.000000,12092.000000,10060.000000,48431.000000
11414.000000,12143.000000,10024.000000,48463.000000
11387.000000,12159.000000,10062.000000,48435.000000
11383.000000,12145.000000,10017.000000,48431.000000
11394.000000,12169.000000,10060.000000,48427.000000
11453.000000,12167.000000,10008.000000,48469.000000
11402.000000,12168.000000,10082.000000,48462.000000
11414.000000,12140.000000,10063.000000,48469.000000
11394.000000,12175.000000,10113.000000,48443.000000
11414.000000,12142.000000,10076.000000,48470.000000
11394.000000,12172.000000,10076.000000,48458.000000
11402.000000,12151.000000,10073.000000,48471.000000
11462.000000,12197.000000,10086.000000,48428.000000
11411.000000,12191.000000,10080.000000,48460.000000
11419.000000,12196.000000,10105.000000,48443.000000
11400.000000,12187.000000,10168.000000,48476.000000
11425.000000,12179.000000,10187.000000,48479.000000
11415.000000,12229.000000,10145.000000,48498.000000
11386.000000,12197.000000,10126.000000,48475.000000
11386.000000,12210.000000,10123.000000,48503.000000
11398.000000,12193.000000,10127.000000,48541.000000
11402.000000,12205.000000,10114.000000,48437.000000
11436.000000,12186.000000,10062.000000,48507.000000
11396.000000,12185.000000,10140.000000,48466.000000
11416.000000,12215.000000,10090.000000,48476.000000
11344.000000,12200.000000,10132.000000,48474.000000
11367.000000,12223.000000,10110.000000,48464.000000
11377.000000,12165.000000,10186.000000,48491.000000
11380.000000,12191.000000,10119.000000,48506.000000
11363.000000,12227.000000,10186.000000,48506.000000
11387.000000,12207.000000,10158.000000,48451.000000
11381.000000,12196.000000,10191.000000,48482.000000
11393.000000,12233.000000,10168.000000,48495.000000
11423.000000,12209.000000,10209.000000,48476.000000
11407.000000,12226.000000,10226.000000,48502.000000
11384.000000,12276.000000,10236.000000,48438.000000
11442.000000,12261.000000,10205.000000,48502.000000
11432.000000,12255.000000,10242.000000,48517.000000
11445.000000,12268.000000,10236.000000,48541.000000
11477.000000,12276.000000,10271.000000,48560.000000
11462.000000,12302.000000,10247.000000,48561.000000
11486.000000,12298.000000,10226.000000,48532.000000
11435.000000,12277.000000,10279.000000,48534.000000
11494.000000,12274.000000,10293.000000,48559.000000
11485.000000,12342.000000,10308.000000,48562.000000
11534.000000,12335.000000,10360.000000,48616.000000
11491.000000,12378.000000,10416.000000,48568.000000
11535.000000,12371.000000,10386.000000,48587.000000
11493.000000,12354.000000,10434.000000,48592.000000
11618.000000,12406.000000,10386.000000,48619.000000
11586.000000,12387.000000,10435.000000,48591.000000
11602.000000,12405.000000,10426.000000,48634.000000
11628.000000,12396.000000,10480.000000,48630.000000
11661.000000,12463.000000,10491.000000,48695.000000
11641.000000,12465.000000,10517.000000,48662.000000
11687.000000,12477.000000,10551.000000,48692.000000
11700.000000,12428.000000,10575.000000,48699.000000
11754.000000,12501.000000,10579.000000,48728.000000
11753.000000,12492.000000,10627.000000,48738.000000
11775.000000,12499.000000,10635.000000,48788.000000
11807.000000,12556.000000,10664.000000,48759.000000
11854.000000,12522.000000,10686.000000,48842.000000
11813.000000,12565.000000,10709.000000,48788.000000
11886.000000,12607.000000,10712.000000,48844.000000
11903.000000,12591.000000,10804.000000,48850.000000
11938.000000,12645.000000,10776.000000,48813.000000
11954.000000,12679.000000,10826.000000,48855.000000
11923.000000,12728.000000,10836.000000,48851.000000
12030.000000,12691.000000,10887.000000,48930.000000
12003.000000,12695.000000,10901.000000,48867.000000
12038.000000,12717.000000,10919.000000,48949.000000
12023.000000,12749.000000,10949.000000,48927.000000
12090.000000,12707.000000,10933.000000,48993.000000
12088.000000,12794.000000,10987.000000,48977.000000
12180.000000,12725.000000,10969.000000,49021.000000
12084.000000,12760.000000,10973.000000,48970.000000
12138.000000,12744.000000,10997.000000,48988.000000
12117.000000,12783.000000,11000.000000,48979.000000
12122.000000,12773.000000,11025.000000,48990.000000
12120.000000,12769.000000,10981.000000,48969.000000
12118.000000,12743.000000,11005.000000,49027.000000
12088.000000,12757.000000,10999.000000,48939.000000
12116.000000,12759.000000,10947.000000,48971.000000
12078.000000,12748.000000,10948.000000,48951.000000
12056.000000,12781.000000,10966.000000,48943.000000
12052.000000,12754.000000,10959.000000,48925.000000
12035.000000,12731.000000,10919.000000,48938.000000
11997.000000,12727.000000,10962.000000,48911.000000
12015.000000,12716.000000,10904.000000,48898.000000
12007.000000,12700.000000,10956.000000,48941.000000
12055.000000,12692.000000,10900.000000,48934.000000
12006.000000,12659.000000,10907.000000,48969.000000
11972.000000,12704.000000,10902.000000,48914.000000
12052.000000,12669.000000,10868.000000,48919.000000
12015.000000,12698.000000,10851.000000,48911.000000
12024.000000,12657.000000,10905.000000,48849.000000
11993.000000,12695.000000,10855.000000,48913.000000
12010.000000,12683.000000,10865.000000,48890.000000
11969.000000,12653.000000,10864.000000,48873.000000
12020.000000,12691.000000,10834.000000,48890.000000
11963.000000,12645.000000,10851.000000,48849.000000
12009.000000,12644.000000,10825.000000,48870.000000
11987.000000,12701.000000,10826.000000,48840.000000
11978.000000,12655.000000,10795.000000,48844.000000
11982.000000,12672.000000,10779.000000,48866.000000
11990.000000,12664.000000,10792.000000,48861.000000
12004.000000,12671.000000,10789.000000,48829.000000
12235.000000,12631.000000,10809.000000,48863.000000
11917.000000,12659.000000,10837.000000,48852.000000
11944.000000,12615.000000,10780.000000,48863.000000
11955.000000,12619.000000,10811.000000,48884.000000
11978.000000,12587.000000,10772.000000,48853.000000
11967.000000,12601.000000,10750.000000,48851.000000
11986.000000,12636.000000,10752.000000,48847.000000
11923.000000,12646.000000,10755.000000,48863.000000
11910.000000,12639.000000,10772.000000,48794.000000
11925.000000,12616.000000,10737.000000,48846.000000
11909.000000,12627.000000,10749.000000,48766.000000
11920.000000,12641.000000,10746.000000,48850.000000
11908.000000,12631.000000,10754.000000,48825.000000
11957.000000,12628.000000,10731.000000,48830.000000
11919.000000,12622.000000,10690.000000,48842.000000
11902.000000,12615.000000,10729.000000,48816.000000
11884.000000,12605.000000,10760.000000,48810.000000
11871.000000,12573.000000,10739.000000,48831.000000
11865.000000,12568.000000,10724.000000,48768.000000
11889.000000,12587.000000,10710.000000,48819.000000
11891.000000,12537.000000,10652.000000,48814.000000
11892.000000,12529.000000,10656.000000,48809.000000
11881.000000,12571.000000,10680.000000,48824.000000
11899.000000,12548.000000,10667.000000,48801.000000
11850.000000,12549.000000,10681.000000,48778.000000
11910.000000,12559.000000,10629.000000,48743.000000
11845.000000,12555.000000,10661.000000,48781.000000
11872.000000,12597.000000,10664.000000,48727.000000
11862.000000,12541.000000,10651.000000,48766.000000
11813.000000,12557.000000,10681.000000,48729.000000
11870.000000,12551.000000,10650.000000,48742.000000
11852.000000,12522.000000,10648.000000,48735.000000
11890.000000,12523.000000,10609.000000,48734.000000
11848.000000,12559.000000,10617.000000,48758.000000
11828.000000,12536.000000,10638.000000,48768.000000
11829.000000,12543.000000,10641.000000,48733.000000
11871.000000,12554.000000,10588.000000,48751.000000
11809.000000,12528.000000,10598.000000,48743.000000
11799.000000,12564.000000,10616.000000,48781.000000
11818.000000,12542.000000,10631.000000,48765.000000
11850.000000,12524.000000,10614.000000,48794.000000
11802.000000,12536.000000,10620.000000,48772.000000
11855.000000,12494.000000,10571.000000,48782.000000
11825.000000,12545.000000,10650.000000,48753.000000
11835.000000,12542.000000,10616.000000,48741.000000
11811.000000,12504.000000,10606.000000,48781.000000
11803.000000,12523.000000,10664.000000,48732.000000
11846.000000,12518.000000,10614.000000,48758.000000
11848.000000,12519.000000,10639.000000,48774.000000
11820.000000,12510.000000,10624.000000,48780.000000
11842.000000,12517.000000,10589.000000,48770.000000
11869.000000,12513.000000,10626.000000,48814.000000
11840.000000,12499.000000,10617.000000,48755.000000
11869.000000,12557.000000,10566.000000,48789.000000
11844.000000,12521.000000,10628.000000,48768.000000
11859.000000,12547.000000,10577.000000,48835.000000
11821.000000,12530.000000,10629.000000,48772.000000
11830.000000,12534.000000,10597.000000,48764.000000
11810.000000,12491.000000,10618.000000,48776.000000
11839.000000,12492.000000,10596.000000,48770.000000
11817.000000,12539.000000,10635.000000,48738.000000
