660nm,730nm,850nm,940nm
7957.000000,4005.000000,1033.000000,43741.000000
8015.000000,3959.000000,988.000000,43837.000000
8005.000000,4011.000000,1035.000000,43700.000000
7972.000000,3991.000000,950.000000,43701.000000
7967.000000,4033.000000,908.000000,43743.000000
7935.000000,4084.000000,938.000000,43682.000000
7975.000000,3983.000000,833.000000,43732.000000
7962.000000,4043.000000,914.000000,43798.000000
7913.000000,4021.000000,851.000000,43725.000000
7966.000000,4040.000000,933.000000,43764.000000
7985.000000,4019.000000,999.000000,43772.000000
7946.000000,4053.000000,889.000000,43708.000000
7940.000000,3937.000000,892.000000,43768.000000
7900.000000,4027.000000,879.000000,43719.000000
7811.000000,3959.000000,855.000000,43683.000000
7897.000000,3996.000000,932.000000,43681.000000
7861.000000,4105.000000,883.000000,43596.000000
7871.000000,4034.000000,809.000000,43687.000000
7895.000000,4016.000000,865.000000,43763.000000
7886.000000,3994.000000,813.000000,43689.000000
7953.000000,3943.000000,839.000000,43705.000000
7906.000000,4035.000000,877.000000,43686.000000
7925.000000,4004.000000,819.000000,43717.000000
7993.000000,3978.000000,867.000000,43772.000000
7938.000000,4039.000000,804.000000,43732.000000
7881.000000,4085.000000,719.000000,43683.000000
7969.000000,4051.000000,773.000000,43727.000000
7897.000000,4207.000000,720.000000,43636.000000
7994.000000,4081.000000,792.000000,43771.000000
8085.000000,4146.000000,758.000000,43811.000000
8028.000000,4095.000000,712.000000,43777.000000
8097.000000,4109.000000,734.000000,43868.000000
8061.000000,4151.000000,756.000000,43805.000000
8071.000000,4121.000000,714.000000,43783.000000
8092.000000,4178.000000,767.000000,43839.000000
8125.000000,4197.000000,720.000000,43788.000000
8210.000000,4187.000000,632.000000,43892.000000
8172.000000,4268.000000,687.000000,43863.000000
8167.000000,4289.000000,662.000000,43847.000000
8264.000000,4309.000000,695.000000,43927.000000
8349.000000,4381.000000,794.000000,43967.000000
8352.000000,4342.000000,732.000000,44019.000000
8512.000000,4280.000000,774.000000,44154.000000
8460.000000,4399.000000,678.000000,44058.000000
8534.000000,4365.000000,770.000000,44159.000000
8544.000000,4445.000000,814.000000,44124.000000
8606.000000,4513.000000,750.000000,44117.000000
8652.000000,4572.000000,681.000000,44162.000000
8677.000000,4588.000000,777.000000,44210.000000
8775.000000,4581.000000,696.000000,44265.000000
8816.000000,4909.000000,807.000000,44300.000000
8759.000000,4682.000000,875.000000,44277.000000
8843.000000,4707.000000,817.000000,44346.000000
9032.000000,4674.000000,837.000000,44346.000000
8910.000000,4714.000000,820.000000,44345.000000
8971.000000,4644.000000,797.000000,44439.000000
8983.000000,4750.000000,835.000000,44364.000000
8854.000000,4728.000000,861.000000,44338.000000
8976.000000,4755.000000,922.000000,44362.000000
8876.000000,4800.000000,915.000000,44288.000000
8931.000000,4739.000000,880.000000,44347.000000
8966.000000,5027.000000,961.000000,44424.000000
8960.000000,4725.000000,928.000000,44367.000000
8993.000000,4760.000000,1049.000000,44416.000000
8905.000000,4784.000000,1168.000000,44338.000000
9011.000000,4730.000000,1137.000000,44397.000000
8994.000000,4781.000000,1166.000000,44428.000000
9000.000000,4778.000000,1232.000000,44368.000000
8938.000000,4715.000000,1223.000000,44312.000000
8981.000000,4780.000000,1298.000000,44385.000000
8942.000000,4907.000000,1339.000000,44301.000000
8957.000000,4807.000000,1383.000000,44356.000000
9030.000000,4821.000000,1399.000000,44379.000000
8980.000000,4790.000000,1453.000000,44357.000000
9026.000000,4750.000000,1467.000000,44459.000000
9006.000000,4772.000000,1596.000000,44393.000000
8968.000000,4785.000000,1512.000000,44312.000000
9013.000000,4798.000000,1479.000000,44369.000000
8918.000000,4830.000000,1550.000000,44310.000000
8988.000000,4769.000000,1471.000000,44443.000000
8959.000000,4817.000000,1532.000000,44356.000000
8910.000000,4855.000000,1611.000000,44321.000000
8964.000000,4787.000000,1503.000000,44386.000000
9078.000000,4783.000000,1533.000000,44456.000000
8948.000000,4794.000000,1505.000000,44401.000000
8983.000000,4724.000000,1488.000000,44467.000000
8962.000000,4805.000000,1535.000000,44365.000000
8929.000000,4753.000000,1512.000000,44400.000000
8956.000000,4813.000000,1426.000000,44399.000000
8908.000000,4796.000000,1516.000000,44347.000000
8960.000000,4843.000000,1427.000000,44344.000000
8938.000000,4844.000000,1496.000000,44380.000000
8920.000000,4804.000000,1585.000000,44398.000000
8955.000000,4838.000000,1498.000000,44386.000000
8871.000000,4865.000000,1559.000000,44301.000000
8933.000000,4836.000000,1507.000000,44366.000000
9009.000000,4763.000000,1434.000000,44427.000000
8939.000000,4828.000000,1509.000000,44377.000000
8855.000000,4759.000000,1465.000000,44327.000000
8917.000000,4828.000000,1554.000000,44366.000000
8853.000000,4810.000000,1459.000000,44293.000000
8928.000000,4814.000000,1470.000000,44351.000000
8943.000000,4877.000000,1496.000000,44375.000000
8943.000000,4831.000000,1540.000000,44365.000000
8937.000000,4820.000000,1468.000000,44391.000000
8859.000000,4778.000000,1573.000000,44364.000000
8942.000000,4752.000000,1465.000000,44364.000000
8908.000000,4843.000000,1469.000000,44343.000000
8877.000000,4791.000000,1464.000000,44374.000000
8927.000000,4755.000000,1381.000000,44402.000000
8853.000000,4778.000000,1441.000000,44330.000000
8780.000000,4834.000000,1446.000000,44245.000000
8861.000000,4786.000000,1445.000000,44324.000000
8799.000000,4935.000000,1451.000000,44244.000000
8864.000000,4773.000000,1361.000000,44326.000000
8904.000000,4787.000000,1408.000000,44403.000000
8847.000000,4755.000000,1466.000000,44313.000000
8886.000000,4768.000000,1378.000000,44345.000000
8835.000000,4761.000000,1377.000000,44285.000000
8854.000000,4712.000000,1392.000000,44288.000000
8891.000000,4822.000000,1275.000000,44295.000000
8798.000000,4796.000000,1345.000000,44246.000000
8859.000000,4742.000000,1301.000000,44327.000000
8814.000000,4760.000000,1338.000000,44251.000000
8762.000000,4804.000000,1396.000000,44241.000000
8791.000000,4746.000000,1350.000000,44291.000000
8851.000000,4802.000000,1354.000000,44312.000000
8795.000000,4734.000000,1305.000000,44315.000000
8900.000000,4667.000000,1314.000000,44424.000000
8786.000000,4748.000000,1372.000000,44302.000000
8814.000000,4682.000000,1261.000000,44340.000000
8789.000000,4730.000000,1197.000000,44305.000000
8763.000000,4743.000000,1242.000000,44243.000000
8801.000000,4728.000000,1172.000000,44296.000000
8779.000000,4795.000000,1230.000000,44291.000000
8763.000000,4693.000000,1311.000000,44361.000000
8757.000000,4768.000000,1219.000000,44321.000000
8655.000000,4798.000000,1191.000000,44249.000000
8725.000000,4753.000000,1167.000000,44260.000000
8825.000000,4722.000000,1134.000000,44381.000000
8717.000000,4780.000000,1136.000000,44308.000000
8728.000000,4690.000000,1066.000000,44339.000000
8707.000000,4753.000000,1147.000000,44284.000000
8614.000000,4750.000000,1052.000000,44196.000000
8673.000000,4742.000000,1028.000000,44274.000000
8595.000000,4766.000000,1092.000000,44153.000000
8653.000000,4728.000000,1131.000000,44236.000000
8699.000000,4693.000000,1073.000000,44307.000000
8596.000000,4750.000000,1161.000000,44231.000000
8650.000000,4688.000000,1033.000000,44265.000000
8693.000000,4714.000000,995.000000,44250.000000
8595.000000,4715.000000,1031.000000,44222.000000
8588.000000,4670.000000,972.000000,44200.000000
8605.000000,4698.000000,963.000000,44240.000000
8552.000000,4842.000000,1045.000000,44159.000000
8560.000000,4684.000000,1013.000000,44225.000000
8661.000000,4749.000000,1048.000000,44237.000000
8539.000000,4723.000000,960.000000,44204.000000
8606.000000,4632.000000,988.000000,44279.000000
8538.000000,4676.000000,1044.000000,44181.000000
8562.000000,4596.000000,989.000000,44165.000000
8487.000000,4695.000000,922.000000,44196.000000
8448.000000,4726.000000,982.000000,44120.000000
8525.000000,4623.000000,861.000000,44174.000000
8453.000000,4665.000000,961.000000,44137.000000
8409.000000,4633.000000,906.000000,44124.000000
8440.000000,4607.000000,913.000000,44155.000000
8518.000000,4632.000000,986.000000,44186.000000
8431.000000,4615.000000,921.000000,44135.000000
8519.000000,4520.000000,877.000000,44264.000000
8428.000000,4632.000000,811.000000,44131.000000
8430.000000,4539.000000,821.000000,44191.000000
8469.000000,4638.000000,870.000000,44135.000000
8356.000000,4627.000000,798.000000,44078.000000
8398.000000,4872.000000,717.000000,44103.000000
8383.000000,4653.000000,787.000000,44088.000000
8461.000000,4599.000000,668.000000,44168.000000
8477.000000,4903.000000,774.000000,44200.000000
8414.000000,4658.000000,769.000000,44101.000000
8457.000000,4627.000000,807.000000,44201.000000
8495.000000,4695.000000,870.000000,44137.000000
8484.000000,4652.000000,816.000000,44172.000000
8482.000000,4561.000000,822.000000,44177.000000
8484.000000,4667.000000,781.000000,44156.000000
8439.000000,4755.000000,765.000000,44062.000000
8523.000000,4691.000000,860.000000,44176.000000
8505.000000,4748.000000,743.000000,44141.000000
8531.000000,4702.000000,727.000000,44223.000000
8595.000000,4713.000000,775.000000,44273.000000
8544.000000,4685.000000,819.000000,44208.000000
8624.000000,4697.000000,799.000000,44243.000000
8633.000000,5033.000000,883.000000,44181.000000
8641.000000,4715.000000,760.000000,44204.000000
8688.000000,4721.000000,758.000000,44311.000000
8666.000000,4770.000000,727.000000,44248.000000
8578.000000,4812.000000,712.000000,44251.000000
8676.000000,4791.000000,748.000000,44276.000000
8710.000000,4896.000000,820.000000,44272.000000
8724.000000,4864.000000,777.000000,44352.000000
8837.000000,4785.000000,826.000000,44495.000000
8782.000000,4868.000000,750.000000,44416.000000
8885.000000,4818.000000,845.000000,44455.000000
8854.000000,4917.000000,867.000000,44451.000000
8906.000000,4940.000000,845.000000,44419.000000
9001.000000,4927.000000,823.000000,44435.000000
8970.000000,5023.000000,862.000000,44479.000000
9053.000000,4967.000000,800.000000,44547.000000
9085.000000,5053.000000,908.000000,44569.000000
9055.000000,5092.000000,898.000000,44536.000000
9132.000000,5080.000000,910.000000,44574.000000
9280.000000,5073.000000,1003.000000,44682.000000
9167.000000,5123.000000,972.000000,44591.000000
9104.000000,5027.000000,1000.000000,44594.000000
9157.000000,5103.000000,1018.000000,44588.000000
9098.000000,5136.000000,1067.000000,44510.000000
9186.000000,5079.000000,1136.000000,44608.000000
9096.000000,5151.000000,1139.000000,44539.000000
9191.000000,5089.000000,1130.000000,44583.000000
9168.000000,5053.000000,1227.000000,44621.000000
9103.000000,5059.000000,1227.000000,44543.000000
9100.000000,5040.000000,1334.000000,44563.000000
9127.000000,5080.000000,1433.000000,44545.000000
9080.000000,5044.000000,1440.000000,44508.000000
9101.000000,4955.000000,1523.000000,44538.000000
9084.000000,5037.000000,1546.000000,44556.000000
9001.000000,5168.000000,1540.000000,44412.000000
9073.000000,5031.000000,1620.000000,44528.000000
9141.000000,5052.000000,1613.000000,44553.000000
9056.000000,4993.000000,1743.000000,44498.000000
9126.000000,4935.000000,1727.000000,44627.000000
9011.000000,4961.000000,1734.000000,44474.000000
9055.000000,4963.000000,1779.000000,44481.000000
9031.000000,5017.000000,1865.000000,44480.000000
8960.000000,4968.000000,1832.000000,44435.000000
9001.000000,4917.000000,1938.000000,44514.000000
8956.000000,4997.000000,1824.000000,44483.000000
8909.000000,4991.000000,1851.000000,44424.000000
8948.000000,4944.000000,1856.000000,44460.000000
9055.000000,4939.000000,1831.000000,44545.000000
8941.000000,4939.000000,1856.000000,44459.000000
8933.000000,4809.000000,1827.000000,44511.000000
8928.000000,4912.000000,1850.000000,44447.000000
8801.000000,4936.000000,1920.000000,44357.000000
8935.000000,4912.000000,1832.000000,44415.000000
8857.000000,4979.000000,1895.000000,44407.000000
8908.000000,4884.000000,1985.000000,44414.000000
8866.000000,4921.000000,1886.000000,44467.000000
8833.000000,4864.000000,1830.000000,44448.000000
8918.000000,4856.000000,1879.000000,44430.000000
8912.000000,4919.000000,1772.000000,44419.000000
8854.000000,4876.000000,1875.000000,44393.000000
8883.000000,4776.000000,1876.000000,44441.000000
8848.000000,4865.000000,1879.000000,44373.000000
8759.000000,4967.000000,1967.000000,44305.000000
8829.000000,4819.000000,1887.000000,44359.000000
8886.000000,4915.000000,1875.000000,44326.000000
8833.000000,4805.000000,1928.000000,44359.000000
8897.000000,4738.000000,1897.000000,44463.000000
8810.000000,4840.000000,1896.000000,44362.000000
8828.000000,4773.000000,1910.000000,44287.000000
8815.000000,4819.000000,1831.000000,44352.000000
8760.000000,4849.000000,1910.000000,44263.000000
8865.000000,4739.000000,1887.000000,44371.000000
8766.000000,4855.000000,1880.000000,44308.000000
8709.000000,4845.000000,1986.000000,44271.000000
8787.000000,4772.000000,1892.000000,44290.000000
8861.000000,4762.000000,1921.000000,44384.000000
8778.000000,4767.000000,1875.000000,44299.000000
8758.000000,4632.000000,1843.000000,44416.000000
8732.000000,4766.000000,1909.000000,44319.000000
8619.000000,4762.000000,1845.000000,44169.000000
8709.000000,4741.000000,1913.000000,44296.000000
8632.000000,4787.000000,1889.000000,44189.000000
8715.000000,4953.000000,1839.000000,44272.000000
8725.000000,4727.000000,1891.000000,44373.000000
8614.000000,4681.000000,2019.000000,44269.000000
8691.000000,4678.000000,1864.000000,44307.000000
8677.000000,4716.000000,1990.000000,44191.000000
8612.000000,4627.000000,1880.000000,44222.000000
8652.000000,4616.000000,1837.000000,44270.000000
8583.000000,4635.000000,1879.000000,44205.000000
8494.000000,4756.000000,1793.000000,44126.000000
8614.000000,4648.000000,1886.000000,44208.000000
8618.000000,4693.000000,1887.000000,44181.000000
8555.000000,4623.000000,1818.000000,44198.000000
8609.000000,4536.000000,1879.000000,44293.000000
8516.000000,4592.000000,1838.000000,44160.000000
8512.000000,4520.000000,1819.000000,44139.000000
8498.000000,4600.000000,1871.000000,44160.000000
8502.000000,4649.000000,1818.000000,44073.000000
8535.000000,4532.000000,1777.000000,44168.000000
8443.000000,4579.000000,1825.000000,44106.000000
8431.000000,4568.000000,1731.000000,44126.000000
8474.000000,4521.000000,1798.000000,44104.000000
8484.000000,4587.000000,1827.000000,44090.000000
8443.000000,4520.000000,1810.000000,44129.000000
8536.000000,4403.000000,1848.000000,44223.000000
8417.000000,4503.000000,1758.000000,44116.000000
8372.000000,4409.000000,1820.000000,44136.000000
8397.000000,4492.000000,1806.000000,44087.000000
8325.000000,4515.000000,1825.000000,43982.000000
8371.000000,4517.000000,1801.000000,44089.000000
8333.000000,4581.000000,1800.000000,44039.000000
8418.000000,4452.000000,1660.000000,44079.000000
8416.000000,4427.000000,1806.000000,44147.000000
8287.000000,4484.000000,1699.000000,44034.000000
8336.000000,4421.000000,1783.000000,44089.000000
8374.000000,4487.000000,1803.000000,44090.000000
8311.000000,4482.000000,1790.000000,44040.000000
8282.000000,4376.000000,1833.000000,44015.000000
8316.000000,4453.000000,1806.000000,44040.000000
8203.000000,4539.000000,1773.000000,43909.000000
8277.000000,4437.000000,1827.000000,44028.000000
8256.000000,4524.000000,1763.000000,43906.000000
8295.000000,4427.000000,1825.000000,44010.000000
8309.000000,4428.000000,1807.000000,44065.000000
8234.000000,4393.000000,1704.000000,43987.000000
8290.000000,4375.000000,1795.000000,44042.000000
8200.000000,4427.000000,1815.000000,43970.000000
8243.000000,4335.000000,1794.000000,43949.000000
8202.000000,4367.000000,1866.000000,43976.000000
8176.000000,4333.000000,1749.000000,43960.000000
8147.000000,4355.000000,1756.000000,43914.000000
8227.000000,4373.000000,1739.000000,43970.000000
8208.000000,4479.000000,1725.000000,43885.000000
8241.000000,4395.000000,1773.000000,43981.000000
8378.000000,4440.000000,1743.000000,44070.000000
8308.000000,4475.000000,1667.000000,44016.000000
8398.000000,4423.000000,1765.000000,44091.000000
8358.000000,4517.000000,1815.000000,44008.000000
8432.000000,4479.000000,1720.000000,44025.000000
8453.000000,4508.000000,1692.000000,44105.000000
8443.000000,4511.000000,1708.000000,44131.000000
8438.000000,4508.000000,1579.000000,44075.000000
8468.000000,4540.000000,1704.000000,44132.000000
8466.000000,4600.000000,1680.000000,44105.000000
8514.000000,4593.000000,1682.000000,44140.000000
8578.000000,4636.000000,1726.000000,44207.000000
8603.000000,4614.000000,1679.000000,44206.000000
8683.000000,4651.000000,1620.000000,44215.000000
8664.000000,4661.000000,1590.000000,44221.000000
8677.000000,4689.000000,1572.000000,44237.000000
8716.000000,4754.000000,1677.000000,44249.000000
8725.000000,4714.000000,1597.000000,44295.000000
8800.000000,4727.000000,1532.000000,44300.000000
8773.000000,4774.000000,1589.000000,44345.000000
8852.000000,4803.000000,1541.000000,44340.000000
8872.000000,4855.000000,1580.000000,44402.000000
8928.000000,4853.000000,1635.000000,44441.000000
8951.000000,4895.000000,1562.000000,44443.000000
8969.000000,4943.000000,1619.000000,44439.000000
9055.000000,4973.000000,1587.000000,44520.000000
9080.000000,5047.000000,1565.000000,44579.000000
9088.000000,5035.000000,1586.000000,44547.000000
9196.000000,5085.000000,1540.000000,44599.000000
9167.000000,5095.000000,1629.000000,44641.000000
9214.000000,5099.000000,1570.000000,44624.000000
9281.000000,5153.000000,1610.000000,44642.000000
9242.000000,5089.000000,1643.000000,44632.000000
9287.000000,5133.000000,1714.000000,44668.000000
9291.000000,5154.000000,1655.000000,44644.000000
9287.000000,5096.000000,1712.000000,44687.000000
9272.000000,5111.000000,1678.000000,44671.000000
9273.000000,5049.000000,1618.000000,44683.000000
9218.000000,5122.000000,1713.000000,44642.000000
9213.000000,5116.000000,1646.000000,44602.000000
9226.000000,5131.000000,1754.000000,44646.000000
9205.000000,5166.000000,1769.000000,44597.000000
9243.000000,5130.000000,1749.000000,44656.000000
9242.000000,5165.000000,1846.000000,44655.000000
9155.000000,5079.000000,1779.000000,44612.000000
9183.000000,5113.000000,1822.000000,44653.000000
9221.000000,5107.000000,1899.000000,44644.000000
9171.000000,5132.000000,1867.000000,44628.000000
9203.000000,5030.000000,1807.000000,44680.000000
9174.000000,5092.000000,1912.000000,44591.000000
9184.000000,5050.000000,1884.000000,44638.000000
9156.000000,5096.000000,1998.000000,44611.000000
9140.000000,5103.000000,2010.000000,44575.000000
9178.000000,5101.000000,2041.000000,44595.000000
9102.000000,5130.000000,2139.000000,44582.000000
9145.000000,5063.000000,2093.000000,44594.000000
9133.000000,5055.000000,2140.000000,44659.000000
9087.000000,5072.000000,2184.000000,44605.000000
9139.000000,5055.000000,2216.000000,44602.000000
9097.000000,5072.000000,2267.000000,44582.000000
9089.000000,5060.000000,2301.000000,44619.000000
9064.000000,5037.000000,2219.000000,44573.000000
9067.000000,5055.000000,2312.000000,44549.000000
8955.000000,5107.000000,2424.000000,44449.000000
9046.000000,5020.000000,2310.000000,44545.000000
9028.000000,5116.000000,2376.000000,44472.000000
9012.000000,5016.000000,2291.000000,44558.000000
9042.000000,4959.000000,2251.000000,44583.000000
9011.000000,5023.000000,2259.000000,44503.000000
9046.000000,4943.000000,2238.000000,44548.000000
8959.000000,4983.000000,2266.000000,44515.000000
8936.000000,5023.000000,2240.000000,44443.000000
9063.000000,4959.000000,2185.000000,44501.000000
8962.000000,4961.000000,2229.000000,44440.000000
8940.000000,4960.000000,2257.000000,44463.000000
8989.000000,4967.000000,2198.000000,44476.000000
9036.000000,5011.000000,2138.000000,44491.000000
8967.000000,4964.000000,2173.000000,44476.000000
9023.000000,4909.000000,2050.000000,44557.000000
8948.000000,4943.000000,2165.000000,44486.000000
8984.000000,4863.000000,2115.000000,44493.000000
8945.000000,4915.000000,2147.000000,44470.000000
8852.000000,4943.000000,2208.000000,44353.000000
8926.000000,4931.000000,2142.000000,44443.000000
8942.000000,4945.000000,2141.000000,44487.000000
8912.000000,4869.000000,2123.000000,44445.000000
8927.000000,4871.000000,2078.000000,44482.000000
8887.000000,4959.000000,2168.000000,44416.000000
8901.000000,4929.000000,2064.000000,44459.000000
8943.000000,4869.000000,2015.000000,44485.000000
8865.000000,4903.000000,2066.000000,44409.000000
8911.000000,4820.000000,2156.000000,44499.000000
8864.000000,4895.000000,2058.000000,44439.000000
8791.000000,4853.000000,2155.000000,44388.000000
8838.000000,4907.000000,2043.000000,44432.000000
8782.000000,4880.000000,1987.000000,44363.000000
8793.000000,4841.000000,2036.000000,44386.000000
8758.000000,4884.000000,1952.000000,44396.000000
8775.000000,4843.000000,2025.000000,44392.000000
8781.000000,4842.000000,2009.000000,44405.000000
8716.000000,4802.000000,1923.000000,44425.000000
8790.000000,4806.000000,1976.000000,44406.000000
8767.000000,4845.000000,1943.000000,44355.000000
8736.000000,4797.000000,1939.000000,44347.000000
8762.000000,4753.000000,1945.000000,44351.000000
8704.000000,4800.000000,1901.000000,44367.000000
8722.000000,4735.000000,1775.000000,44345.000000
8685.000000,4785.000000,1895.000000,44313.000000
8643.000000,4750.000000,1871.000000,44245.000000
8680.000000,4754.000000,1882.000000,44304.000000
8645.000000,4753.000000,1962.000000,44249.000000
8640.000000,4758.000000,1868.000000,44305.000000
8640.000000,4754.000000,1825.000000,44295.000000
8637.000000,4758.000000,1800.000000,44302.000000
8632.000000,4692.000000,1789.000000,44267.000000
8587.000000,4698.000000,1863.000000,44278.000000
8597.000000,4691.000000,1832.000000,44251.000000
8576.000000,4694.000000,1708.000000,44244.000000
8635.000000,4682.000000,1824.000000,44254.000000
8522.000000,4716.000000,1867.000000,44196.000000
8613.000000,4684.000000,1757.000000,44236.000000
8595.000000,4715.000000,1876.000000,44232.000000
8568.000000,4681.000000,1756.000000,44242.000000
8602.000000,4638.000000,1731.000000,44259.000000
8585.000000,4680.000000,1741.000000,44223.000000
8567.000000,4645.000000,1678.000000,44238.000000
8551.000000,4677.000000,1728.000000,44240.000000
8569.000000,4603.000000,1709.000000,44263.000000
8561.000000,4681.000000,1649.000000,44223.000000
8573.000000,4642.000000,1706.000000,44205.000000
8509.000000,4573.000000,1695.000000,44229.000000
8495.000000,4636.000000,1651.000000,44205.000000
8420.000000,4639.000000,1665.000000,44195.000000
8531.000000,4652.000000,1647.000000,44222.000000
8509.000000,4727.000000,1506.000000,44163.000000
8508.000000,4638.000000,1617.000000,44180.000000
8565.000000,4575.000000,1557.000000,44294.000000
8475.000000,4575.000000,1555.000000,44194.000000
8466.000000,4561.000000,1586.000000,44157.000000
8446.000000,4583.000000,1527.000000,44201.000000
8440.000000,4600.000000,1516.000000,44126.000000
8429.000000,4588.000000,1481.000000,44157.000000
8402.000000,4614.000000,1464.000000,44088.000000
8438.000000,4545.000000,1563.000000,44157.000000
8418.000000,4560.000000,1448.000000,44130.000000
8441.000000,4545.000000,1406.000000,44125.000000
8431.000000,4572.000000,1399.000000,44159.000000
8376.000000,4612.000000,1414.000000,44074.000000
8396.000000,4543.000000,1435.000000,44109.000000
8359.000000,4569.000000,1525.000000,44116.000000
8350.000000,4535.000000,1439.000000,44098.000000
8436.000000,4583.000000,1426.000000,44172.000000
8392.000000,4546.000000,1373.000000,44130.000000
8429.000000,4484.000000,1367.000000,44197.000000
8361.000000,4551.000000,1330.000000,44128.000000
8414.000000,4533.000000,1333.000000,44116.000000
8445.000000,4589.000000,1369.000000,44125.000000
8333.000000,4549.000000,1318.000000,44093.000000
8465.000000,4519.000000,1258.000000,44186.000000
8420.000000,4591.000000,1338.000000,44130.000000
8397.000000,4531.000000,1393.000000,44156.000000
8444.000000,4597.000000,1304.000000,44197.000000
8429.000000,4623.000000,1342.000000,44161.000000
8494.000000,4631.000000,1321.000000,44199.000000
8471.000000,4584.000000,1245.000000,44180.000000
8513.000000,4649.000000,1243.000000,44196.000000
8461.000000,4911.000000,1200.000000,44160.000000
8516.000000,4649.000000,1239.000000,44222.000000
8514.000000,4668.000000,1239.000000,44266.000000
8583.000000,4669.000000,1268.000000,44225.000000
8629.000000,4627.000000,1283.000000,44295.000000
8580.000000,4729.000000,1177.000000,44234.000000
8609.000000,4714.000000,1215.000000,44319.000000
8975.000000,4687.000000,1258.000000,44339.000000
8644.000000,4726.000000,1208.000000,44295.000000
8603.000000,4721.000000,1154.000000,44347.000000
8661.000000,4765.000000,1206.000000,44318.000000
8714.000000,4746.000000,1210.000000,44354.000000
8760.000000,4808.000000,1327.000000,44355.000000
8795.000000,4767.000000,1327.000000,44491.000000
8769.000000,4829.000000,1378.000000,44402.000000
8762.000000,4843.000000,1398.000000,44357.000000
8852.000000,4891.000000,1340.000000,44451.000000
8814.000000,4931.000000,1404.000000,44411.000000
8982.000000,4943.000000,1501.000000,44523.000000
8943.000000,5006.000000,1462.000000,44480.000000
9019.000000,4929.000000,1448.000000,44615.000000
9052.000000,5040.000000,1498.000000,44587.000000
9073.000000,5001.000000,1501.000000,44603.000000
9083.000000,5083.000000,1576.000000,44602.000000
9067.000000,5051.000000,1586.000000,44609.000000
9152.000000,5085.000000,1641.000000,44617.000000
9126.000000,5215.000000,1664.000000,44582.000000
9139.000000,5096.000000,1664.000000,44644.000000
9244.000000,5119.000000,1758.000000,44732.000000
9157.000000,5088.000000,1771.000000,44627.000000
9211.000000,5058.000000,1824.000000,44686.000000
9140.000000,5059.000000,1859.000000,44612.000000
9107.000000,5099.000000,1865.000000,44599.000000
9120.000000,5041.000000,1947.000000,44630.000000
9167.000000,5055.000000,1978.000000,44652.000000
9139.000000,5147.000000,2029.000000,44556.000000
9129.000000,5090.000000,2099.000000,44631.000000
9268.000000,4977.000000,2113.000000,44705.000000
9163.000000,5080.000000,2207.000000,44615.000000
9142.000000,5039.000000,2227.000000,44619.000000
9123.000000,5035.000000,2315.000000,44608.000000
9232.000000,4991.000000,2273.000000,44711.000000
9135.000000,5043.000000,2327.000000,44600.000000
9095.000000,4959.000000,2376.000000,44537.000000
9098.000000,5051.000000,2324.000000,44572.000000
8988.000000,5089.000000,2391.000000,44465.000000
9079.000000,5011.000000,2342.000000,44543.000000
9073.000000,4989.000000,2363.000000,44503.000000
9107.000000,5009.000000,2401.000000,44563.000000
9072.000000,4969.000000,2361.000000,44560.000000
9117.000000,4892.000000,2390.000000,44624.000000
9042.000000,4968.000000,2375.000000,44577.000000
8907.000000,5051.000000,2335.000000,44440.000000
9079.000000,4992.000000,2358.000000,44555.000000
8991.000000,5073.000000,2296.000000,44492.000000
9064.000000,5017.000000,2406.000000,44529.000000
8974.000000,4940.000000,2288.000000,44418.000000
9035.000000,4984.000000,2269.000000,44532.000000
8944.000000,5059.000000,2324.000000,44525.000000
9038.000000,4964.000000,2311.000000,44535.000000
9031.000000,4987.000000,2348.000000,44581.000000
8998.000000,4951.000000,2370.000000,44523.000000
8958.000000,5001.000000,2285.000000,44513.000000
9015.000000,4889.000000,2359.000000,44551.000000
8972.000000,4936.000000,2294.000000,44504.000000
8824.000000,4989.000000,2251.000000,44425.000000
8929.000000,4938.000000,2302.000000,44488.000000
8881.000000,5079.000000,2248.000000,44450.000000
8952.000000,4928.000000,2296.000000,44503.000000
8826.000000,4953.000000,2263.000000,44380.000000
8950.000000,4931.000000,2203.000000,44494.000000
8899.000000,4989.000000,2237.000000,44414.000000
8943.000000,4900.000000,2274.000000,44477.000000
8924.000000,4989.000000,2246.000000,44517.000000
8955.000000,4872.000000,2263.000000,44459.000000
8891.000000,4911.000000,2225.000000,44485.000000
8961.000000,4856.000000,2170.000000,44520.000000
8909.000000,4904.000000,2165.000000,44455.000000
8788.000000,4933.000000,2141.000000,44401.000000
8891.000000,4851.000000,2167.000000,44488.000000
8901.000000,4996.000000,2201.000000,44440.000000
8884.000000,4877.000000,2141.000000,44447.000000
8746.000000,4951.000000,2132.000000,44270.000000
8882.000000,4867.000000,2109.000000,44466.000000
8904.000000,4887.000000,2142.000000,44529.000000
8850.000000,4868.000000,2145.000000,44463.000000
8884.000000,4826.000000,2089.000000,44537.000000
8848.000000,4830.000000,2023.000000,44413.000000
8764.000000,4857.000000,2066.000000,44409.000000
8808.000000,4808.000000,1971.000000,44412.000000
8855.000000,4891.000000,2066.000000,44479.000000
8724.000000,4892.000000,2106.000000,44363.000000
8815.000000,4808.000000,2026.000000,44426.000000
8824.000000,4861.000000,2033.000000,44371.000000
8806.000000,4827.000000,2024.000000,44384.000000
8779.000000,4967.000000,1989.000000,44306.000000
8805.000000,4805.000000,2010.000000,44395.000000
8996.000000,4679.000000,1987.000000,44584.000000
8790.000000,4782.000000,1971.000000,44411.000000
8824.000000,4779.000000,1992.000000,44423.000000
8796.000000,4811.000000,1946.000000,44344.000000
8869.000000,4774.000000,2027.000000,44457.000000
8758.000000,4764.000000,2015.000000,44355.000000
8850.000000,4753.000000,1986.000000,44446.000000
8721.000000,4793.000000,2110.000000,44372.000000
8745.000000,4817.000000,1974.000000,44404.000000
8707.000000,4786.000000,2050.000000,44381.000000
8727.000000,4785.000000,1924.000000,44339.000000
8781.000000,4849.000000,1861.000000,44312.000000
8716.000000,4737.000000,1940.000000,44331.000000
8820.000000,4706.000000,1868.000000,44492.000000
8689.000000,4775.000000,1912.000000,44345.000000
8699.000000,4892.000000,1863.000000,44331.000000
8661.000000,4750.000000,1850.000000,44315.000000
8767.000000,4703.000000,1849.000000,44460.000000
8671.000000,4739.000000,1834.000000,44320.000000
8693.000000,4697.000000,1818.000000,44353.000000
8685.000000,4752.000000,1859.000000,44304.000000
8646.000000,4780.000000,1821.000000,44335.000000
8619.000000,4726.000000,1899.000000,44261.000000
8673.000000,4749.000000,1804.000000,44311.000000
8724.000000,4756.000000,1820.000000,44254.000000
8647.000000,4735.000000,1789.000000,44268.000000
8521.000000,4856.000000,1727.000000,44180.000000
8617.000000,4726.000000,1765.000000,44308.000000
8770.000000,4702.000000,1742.000000,44425.000000
8632.000000,4700.000000,1765.000000,44253.000000
8632.000000,4724.000000,1683.000000,44288.000000
8606.000000,4727.000000,1739.000000,44269.000000
8616.000000,4743.000000,1664.000000,44271.000000
8609.000000,4688.000000,1738.000000,44287.000000
8583.000000,4697.000000,1681.000000,44328.000000
8532.000000,4670.000000,1642.000000,44238.000000
8556.000000,4637.000000,1651.000000,44212.000000
8536.000000,4587.000000,1626.000000,44274.000000
8554.000000,4891.000000,1651.000000,44211.000000
8457.000000,4747.000000,1708.000000,44110.000000
8540.000000,4625.000000,1651.000000,44208.000000
8453.000000,4664.000000,1683.000000,44183.000000
8486.000000,4617.000000,1619.000000,44200.000000
8372.000000,4707.000000,1649.000000,44035.000000
8490.000000,4568.000000,1633.000000,44176.000000
8456.000000,4704.000000,1652.000000,44162.000000
8490.000000,4597.000000,1706.000000,44188.000000
8437.000000,4569.000000,1596.000000,44145.000000
8498.000000,4603.000000,1554.000000,44209.000000
8460.000000,4664.000000,1621.000000,44148.000000
8471.000000,4559.000000,1510.000000,44248.000000
8493.000000,4623.000000,1566.000000,44160.000000
8573.000000,4659.000000,1625.000000,44232.000000
8537.000000,4663.000000,1564.000000,44238.000000
8487.000000,4559.000000,1625.000000,44235.000000
8555.000000,4603.000000,1553.000000,44251.000000
8402.000000,4713.000000,1578.000000,44077.000000
8584.000000,4643.000000,1513.000000,44226.000000
8613.000000,4560.000000,1528.000000,44317.000000
8618.000000,4655.000000,1484.000000,44252.000000
8590.000000,4613.000000,1518.000000,44226.000000
8641.000000,4663.000000,1458.000000,44305.000000
8561.000000,4719.000000,1492.000000,44220.000000
8618.000000,4688.000000,1467.000000,44291.000000
8680.000000,4738.000000,1500.000000,44341.000000
8731.000000,4726.000000,1401.000000,44305.000000
8696.000000,4722.000000,1479.000000,44332.000000
8759.000000,4622.000000,1470.000000,44437.000000
8700.000000,4715.000000,1498.000000,44369.000000
8861.000000,4760.000000,1544.000000,44413.000000
8759.000000,4751.000000,1491.000000,44409.000000
8851.000000,4664.000000,1523.000000,44499.000000
8798.000000,4773.000000,1505.000000,44408.000000
8802.000000,4790.000000,1557.000000,44336.000000
8858.000000,4827.000000,1568.000000,44413.000000
8950.000000,4827.000000,1544.000000,44543.000000
8913.000000,4853.000000,1538.000000,44532.000000
8983.000000,4857.000000,1599.000000,44499.000000
9037.000000,4973.000000,1608.000000,44515.000000
9030.000000,4968.000000,1629.000000,44569.000000
9030.000000,5035.000000,1550.000000,44544.000000
9147.000000,5011.000000,1622.000000,44637.000000
9314.000000,5134.000000,1579.000000,44662.000000
9256.000000,5076.000000,1645.000000,44688.000000
9414.000000,5008.000000,1620.000000,44895.000000
9300.000000,5141.000000,1690.000000,44710.000000
9320.000000,5305.000000,1709.000000,44976.000000
9346.000000,5171.000000,1669.000000,44758.000000
9464.000000,5134.000000,1741.000000,44884.000000
9368.000000,5220.000000,1794.000000,44773.000000
9443.000000,5211.000000,1788.000000,44859.000000
9421.000000,5202.000000,1870.000000,44784.000000
9412.000000,5238.000000,1856.000000,44779.000000
9320.000000,5267.000000,1901.000000,44731.000000
9393.000000,5229.000000,1903.000000,44785.000000
9373.000000,5348.000000,2055.000000,44689.000000
9409.000000,5231.000000,2001.000000,44789.000000
9305.000000,5256.000000,2133.000000,44722.000000
9385.000000,5243.000000,2066.000000,44806.000000
9348.000000,5380.000000,2160.000000,44700.000000
9376.000000,5227.000000,2188.000000,44767.000000
9391.000000,5297.000000,2221.000000,44772.000000
9353.000000,5264.000000,2254.000000,44764.000000
9300.000000,5153.000000,2291.000000,44696.000000
9343.000000,5217.000000,2411.000000,44774.000000
9298.000000,5245.000000,2344.000000,44667.000000
9403.000000,5232.000000,2245.000000,44717.000000
9338.000000,5204.000000,2323.000000,44711.000000
9376.000000,5272.000000,2175.000000,44704.000000
9345.000000,5207.000000,2293.000000,44787.000000
9410.000000,5087.000000,2301.000000,44839.000000
9295.000000,5204.000000,2262.000000,44728.000000
9337.000000,5059.000000,2241.000000,44843.000000
9329.000000,5223.000000,2309.000000,44763.000000
9413.000000,5239.000000,2231.000000,44764.000000
9317.000000,5221.000000,2244.000000,44729.000000
9392.000000,5117.000000,2281.000000,44859.000000
9304.000000,5179.000000,2199.000000,44725.000000
9304.000000,5154.000000,2269.000000,44750.000000
9328.000000,5183.000000,2267.000000,44742.000000
9300.000000,5209.000000,2257.000000,44764.000000
9189.000000,5165.000000,2145.000000,44713.000000
9275.000000,5170.000000,2250.000000,44726.000000
9252.000000,5262.000000,2315.000000,44670.000000
9271.000000,5179.000000,2215.000000,44712.000000
9160.000000,5135.000000,2264.000000,44658.000000
9233.000000,5170.000000,2200.000000,44702.000000
9084.000000,5305.000000,2228.000000,44543.000000
9262.000000,5166.000000,2189.000000,44695.000000
9198.000000,5179.000000,2226.000000,44630.000000
9241.000000,5143.000000,2186.000000,44702.000000
9170.000000,5151.000000,2194.000000,44612.000000
9227.000000,5140.000000,2299.000000,44701.000000
9141.000000,5116.000000,2183.000000,44667.000000
9217.000000,5178.000000,2149.000000,44691.000000
9230.000000,5152.000000,2164.000000,44755.000000
9150.000000,5202.000000,2278.000000,44655.000000
9212.000000,5175.000000,2158.000000,44702.000000
9327.000000,5075.000000,2044.000000,44787.000000
9201.000000,5146.000000,2174.000000,44661.000000
9149.000000,5160.000000,2054.000000,44705.000000
9165.000000,5149.000000,2137.000000,44672.000000
9281.000000,5163.000000,2130.000000,44762.000000
9172.000000,5157.000000,2085.000000,44703.000000
9272.000000,5057.000000,2110.000000,44797.000000
9161.000000,5129.000000,2176.000000,44679.000000
9109.000000,5159.000000,2109.000000,44597.000000
9165.000000,5129.000000,2013.000000,44694.000000
9161.000000,5142.000000,2078.000000,44724.000000
9049.000000,5175.000000,2163.000000,44643.000000
9123.000000,5123.000000,2043.000000,44654.000000
9093.000000,5114.000000,1973.000000,44633.000000
9091.000000,5122.000000,2098.000000,44657.000000
8984.000000,5231.000000,1965.000000,44553.000000
9089.000000,5086.000000,2034.000000,44638.000000
9156.000000,5207.000000,2057.000000,44686.000000
9085.000000,5081.000000,1997.000000,44619.000000
8970.000000,5157.000000,2020.000000,44474.000000
9050.000000,5096.000000,2109.000000,44624.000000
9003.000000,5153.000000,2016.000000,44630.000000
9026.000000,5058.000000,1932.000000,44631.000000
9031.000000,5116.000000,2018.000000,44650.000000
8985.000000,5060.000000,2106.000000,44611.000000
9003.000000,5033.000000,1962.000000,44543.000000
8976.000000,4976.000000,1862.000000,44637.000000
8985.000000,5045.000000,1970.000000,44610.000000
8861.000000,5081.000000,1891.000000,44534.000000
8974.000000,5051.000000,1993.000000,44565.000000
9046.000000,4916.000000,1960.000000,44631.000000
8953.000000,5064.000000,1953.000000,44598.000000
8876.000000,4939.000000,1917.000000,44516.000000
8945.000000,5037.000000,2004.000000,44569.000000
8847.000000,5012.000000,1938.000000,44415.000000
8929.000000,5003.000000,1903.000000,44535.000000
8922.000000,4949.000000,1930.000000,44566.000000
8888.000000,4972.000000,1799.000000,44517.000000
8883.000000,4899.000000,1904.000000,44503.000000
8894.000000,4975.000000,1810.000000,44535.000000
8876.000000,4964.000000,1873.000000,44487.000000
8839.000000,4975.000000,1883.000000,44508.000000
8891.000000,4955.000000,1889.000000,44528.000000
8971.000000,4913.000000,1804.000000,44578.000000
8864.000000,4933.000000,1866.000000,44499.000000
8964.000000,4811.000000,1860.000000,44642.000000
8851.000000,4887.000000,1899.000000,44480.000000
8905.000000,4947.000000,1891.000000,44514.000000
8838.000000,4919.000000,1871.000000,44489.000000
8896.000000,4837.000000,1874.000000,44622.000000
8813.000000,4905.000000,1736.000000,44489.000000
8867.000000,4896.000000,1861.000000,44550.000000
8856.000000,4923.000000,1695.000000,44469.000000
8881.000000,4912.000000,1852.000000,44460.000000
8814.000000,4817.000000,1745.000000,44528.000000
8835.000000,4898.000000,1831.000000,44496.000000
8758.000000,4879.000000,1730.000000,44469.000000
8856.000000,4903.000000,1787.000000,44482.000000
8869.000000,4808.000000,1785.000000,44566.000000
8855.000000,4904.000000,1798.000000,44453.000000
8692.000000,5011.000000,1703.000000,44336.000000
8792.000000,4872.000000,1844.000000,44468.000000
8731.000000,4988.000000,1777.000000,44360.000000
9051.000000,4902.000000,1687.000000,44509.000000
8802.000000,4818.000000,1791.000000,44506.000000
8748.000000,4875.000000,1789.000000,44450.000000
8687.000000,4899.000000,1774.000000,44378.000000
8774.000000,4869.000000,1621.000000,44419.000000
8750.000000,4883.000000,1770.000000,44458.000000
8754.000000,4883.000000,1775.000000,44408.000000
8706.000000,4850.000000,1744.000000,44424.000000
8853.000000,4737.000000,1642.000000,44500.000000
8722.000000,4868.000000,1726.000000,44432.000000
8678.000000,4773.000000,1649.000000,44426.000000
8717.000000,4833.000000,1697.000000,44441.000000
8829.000000,4810.000000,1724.000000,44577.000000
8752.000000,4852.000000,1712.000000,44470.000000
9103.000000,4750.000000,1642.000000,44543.000000
8741.000000,4873.000000,1639.000000,44449.000000
8746.000000,4869.000000,1615.000000,44486.000000
8703.000000,4832.000000,1600.000000,44459.000000
8772.000000,4888.000000,1600.000000,44535.000000
8656.000000,4889.000000,1623.000000,44450.000000
8785.000000,4909.000000,1603.000000,44488.000000
8714.000000,4920.000000,1511.000000,44421.000000
8777.000000,4896.000000,1589.000000,44484.000000
8614.000000,4999.000000,1657.000000,44365.000000
8794.000000,4876.000000,1623.000000,44487.000000
8739.000000,5066.000000,1597.000000,44463.000000
8776.000000,4923.000000,1636.000000,44559.000000
8774.000000,4995.000000,1606.000000,44472.000000
9088.000000,4935.000000,1660.000000,44528.000000
8776.000000,5008.000000,1654.000000,44469.000000
8833.000000,4984.000000,1800.000000,44558.000000
8843.000000,5025.000000,1658.000000,44459.000000
8904.000000,4955.000000,1790.000000,44574.000000
8923.000000,4961.000000,1709.000000,44622.000000
9021.000000,4987.000000,1766.000000,44656.000000
9002.000000,5061.000000,1711.000000,44621.000000
8923.000000,4967.000000,1831.000000,44686.000000
9040.000000,5124.000000,1724.000000,44712.000000
9203.000000,5055.000000,1819.000000,44765.000000
9147.000000,5123.000000,1748.000000,44726.000000
9088.000000,5083.000000,1788.000000,44708.000000
9274.000000,5172.000000,1728.000000,44749.000000
9225.000000,5215.000000,1823.000000,44681.000000
9343.000000,5258.000000,1845.000000,44803.000000
9394.000000,5283.000000,1860.000000,44932.000000
9378.000000,5282.000000,1731.000000,44841.000000
9452.000000,5233.000000,1906.000000,44898.000000
9339.000000,5338.000000,1970.000000,44809.000000
9395.000000,5292.000000,1904.000000,44916.000000
9325.000000,5343.000000,2054.000000,44840.000000
9394.000000,5328.000000,1993.000000,44875.000000
9441.000000,5381.000000,1959.000000,44870.000000
9366.000000,5286.000000,2090.000000,44856.000000
9507.000000,5320.000000,2181.000000,44954.000000
9374.000000,5282.000000,2164.000000,44835.000000
9322.000000,5399.000000,2198.000000,44729.000000
9386.000000,5287.000000,2289.000000,44867.000000
9419.000000,5340.000000,2301.000000,44921.000000
9362.000000,5259.000000,2218.000000,44808.000000
9390.000000,5291.000000,2405.000000,44856.000000
9372.000000,5236.000000,2413.000000,44808.000000
9369.000000,5273.000000,2496.000000,44772.000000
9253.000000,5205.000000,2430.000000,44846.000000
9329.000000,5221.000000,2536.000000,44813.000000
9183.000000,5306.000000,2491.000000,44737.000000
9314.000000,5249.000000,2591.000000,44819.000000
9306.000000,5088.000000,2553.000000,44858.000000
9273.000000,5210.000000,2601.000000,44785.000000
9162.000000,5312.000000,2505.000000,44626.000000
9300.000000,5246.000000,2574.000000,44780.000000
9170.000000,5292.000000,2586.000000,44640.000000
9299.000000,5187.000000,2580.000000,44785.000000
9296.000000,5133.000000,2574.000000,44770.000000
9292.000000,5247.000000,2768.000000,44782.000000
9215.000000,5214.000000,2607.000000,44696.000000
9306.000000,5169.000000,2509.000000,44776.000000
9293.000000,5175.000000,2616.000000,44746.000000
9226.000000,5237.000000,2465.000000,44727.000000
9261.000000,5188.000000,2594.000000,44779.000000
9323.000000,5041.000000,2666.000000,44876.000000
9268.000000,5137.000000,2589.000000,44743.000000
9205.000000,5029.000000,2641.000000,44757.000000
9204.000000,5166.000000,2537.000000,44739.000000
9305.000000,5126.000000,2612.000000,44858.000000
9188.000000,5134.000000,2519.000000,44741.000000
9255.000000,5039.000000,2554.000000,44763.000000
9153.000000,5121.000000,2558.000000,44704.000000
9165.000000,5121.000000,2581.000000,44754.000000
9183.000000,5121.000000,2629.000000,44715.000000
9143.000000,5143.000000,2572.000000,44778.000000
9077.000000,5135.000000,2396.000000,44717.000000
9128.000000,5087.000000,2554.000000,44707.000000
9106.000000,5189.000000,2572.000000,44644.000000
9099.000000,5107.000000,2544.000000,44690.000000
8973.000000,5199.000000,2580.000000,44585.000000
9112.000000,5128.000000,2510.000000,44698.000000
9067.000000,5255.000000,2491.000000,44581.000000
9113.000000,5103.000000,2614.000000,44689.000000
9101.000000,5092.000000,2530.000000,44716.000000
9106.000000,5111.000000,2545.000000,44680.000000
9020.000000,5112.000000,2533.000000,44602.000000
9120.000000,5096.000000,2676.000000,44673.000000
9048.000000,5165.000000,2528.000000,44667.000000
9099.000000,5030.000000,2590.000000,44658.000000
9059.000000,5047.000000,2499.000000,44689.000000
9063.000000,5007.000000,2520.000000,44718.000000
9070.000000,5051.000000,2496.000000,44656.000000
8914.000000,5136.000000,2588.000000,44578.000000
9057.000000,5073.000000,2499.000000,44633.000000
8933.000000,5119.000000,2565.000000,44535.000000
9009.000000,5063.000000,2476.000000,44610.000000
8874.000000,5060.000000,2465.000000,44506.000000
8994.000000,5025.000000,2481.000000,44634.000000
8879.000000,5129.000000,2492.000000,44468.000000
8976.000000,5067.000000,2464.000000,44627.000000
9007.000000,4980.000000,2498.000000,44622.000000
8947.000000,4989.000000,2470.000000,44601.000000
8922.000000,4987.000000,2486.000000,44546.000000
9012.000000,4953.000000,2312.000000,44629.000000
8977.000000,4972.000000,2461.000000,44551.000000
8961.000000,4945.000000,2404.000000,44633.000000
8953.000000,4981.000000,2448.000000,44581.000000
9011.000000,4840.000000,2457.000000,44666.000000
8933.000000,4963.000000,2456.000000,44577.000000
8860.000000,4877.000000,2366.000000,44507.000000
8917.000000,4955.000000,2473.000000,44577.000000
8990.000000,4943.000000,2403.000000,44649.000000
8894.000000,4939.000000,2478.000000,44555.000000
8899.000000,4861.000000,2428.000000,44544.000000
8893.000000,4956.000000,2443.000000,44567.000000
8884.000000,4857.000000,2434.000000,44562.000000
8874.000000,4949.000000,2276.000000,44506.000000
8908.000000,4961.000000,2424.000000,44521.000000
8862.000000,5000.000000,2451.000000,44515.000000
8864.000000,4924.000000,2421.000000,44549.000000
9010.000000,4883.000000,2308.000000,44572.000000
8869.000000,4919.000000,2390.000000,44495.000000
8839.000000,5050.000000,2304.000000,44423.000000
8838.000000,4920.000000,2364.000000,44508.000000
8981.000000,4843.000000,2423.000000,44673.000000
8837.000000,4912.000000,2396.000000,44512.000000
8893.000000,4776.000000,2367.000000,44590.000000
8838.000000,4907.000000,2423.000000,44502.000000
8812.000000,4946.000000,2335.000000,44571.000000
8831.000000,4872.000000,2377.000000,44495.000000
8851.000000,4807.000000,2305.000000,44574.000000
8779.000000,4907.000000,2449.000000,44471.000000
8821.000000,4859.000000,2269.000000,44543.000000
8765.000000,4927.000000,2353.000000,44473.000000
8799.000000,4833.000000,2237.000000,44465.000000
8854.000000,4978.000000,2270.000000,44464.000000
8796.000000,4866.000000,2246.000000,44473.000000
8922.000000,4900.000000,2335.000000,44607.000000
8797.000000,4842.000000,2191.000000,44481.000000
8764.000000,4967.000000,2194.000000,44387.000000
8747.000000,4851.000000,2166.000000,44495.000000
8812.000000,4896.000000,2169.000000,44540.000000
8762.000000,4850.000000,2075.000000,44507.000000
8727.000000,4909.000000,2181.000000,44432.000000
8754.000000,4837.000000,2195.000000,44424.000000
8705.000000,4849.000000,2155.000000,44413.000000
8698.000000,4783.000000,2003.000000,44488.000000
8714.000000,4848.000000,2147.000000,44433.000000
8604.000000,4799.000000,2140.000000,44416.000000
8712.000000,4833.000000,2142.000000,44444.000000
8793.000000,4650.000000,2117.000000,44513.000000
8711.000000,4819.000000,2105.000000,44465.000000
8569.000000,4893.000000,2143.000000,44307.000000
8738.000000,4813.000000,2175.000000,44484.000000
8683.000000,4889.000000,2112.000000,44313.000000
8745.000000,4856.000000,2219.000000,44493.000000
8748.000000,4769.000000,2161.000000,44485.000000
8774.000000,4860.000000,2181.000000,44511.000000
8724.000000,4931.000000,2143.000000,44425.000000
8835.000000,4919.000000,2242.000000,44523.000000
8783.000000,4921.000000,2140.000000,44529.000000
8803.000000,4954.000000,2148.000000,44479.000000
8801.000000,4939.000000,2127.000000,44530.000000
8872.000000,4815.000000,2209.000000,44656.000000
8864.000000,4939.000000,2094.000000,44580.000000
8815.000000,4885.000000,2202.000000,44543.000000
8868.000000,4987.000000,2080.000000,44589.000000
8987.000000,4860.000000,2077.000000,44737.000000
8876.000000,4977.000000,2111.000000,44605.000000
8915.000000,4837.000000,2100.000000,44572.000000
8915.000000,5001.000000,2047.000000,44596.000000
8950.000000,4993.000000,2091.000000,44643.000000
8965.000000,4997.000000,2222.000000,44631.000000
8973.000000,5019.000000,2063.000000,44708.000000
8972.000000,5095.000000,2034.000000,44599.000000
8979.000000,5029.000000,2117.000000,44679.000000
9096.000000,5064.000000,2127.000000,44706.000000
9080.000000,5107.000000,2156.000000,44724.000000
9021.000000,5235.000000,2067.000000,44667.000000
9135.000000,5135.000000,2136.000000,44757.000000
9336.000000,5119.000000,2089.000000,44953.000000
9204.000000,5175.000000,2235.000000,44779.000000
9258.000000,5244.000000,2161.000000,44845.000000
9303.000000,5213.000000,2186.000000,44848.000000
9371.000000,5307.000000,2161.000000,44947.000000
9381.000000,5277.000000,2250.000000,44915.000000
9470.000000,5319.000000,2211.000000,44992.000000
9473.000000,5337.000000,2089.000000,44935.000000
9508.000000,5384.000000,2224.000000,44915.000000
9497.000000,5304.000000,2304.000000,44979.000000
9510.000000,5383.000000,2249.000000,44953.000000
9391.000000,5366.000000,2286.000000,44917.000000
9517.000000,5363.000000,2299.000000,44957.000000
9560.000000,5262.000000,2278.000000,45037.000000
9494.000000,5379.000000,2302.000000,44907.000000
9416.000000,5372.000000,2377.000000,44850.000000
9496.000000,5377.000000,2379.000000,44933.000000
9361.000000,5463.000000,2414.000000,44824.000000
9480.000000,5353.000000,2521.000000,44923.000000
9521.000000,5286.000000,2494.000000,44947.000000
9458.000000,5370.000000,2519.000000,44931.000000
9449.000000,5341.000000,2565.000000,44883.000000
9530.000000,5385.000000,2801.000000,44915.000000
9431.000000,5324.000000,2666.000000,44902.000000
9475.000000,5400.000000,2832.000000,44939.000000
9439.000000,5337.000000,2720.000000,44929.000000
9509.000000,5213.000000,2736.000000,45026.000000
9426.000000,5316.000000,2759.000000,44908.000000
9277.000000,5329.000000,2826.000000,44835.000000
9417.000000,5330.000000,2803.000000,44917.000000
9524.000000,5205.000000,2816.000000,45058.000000
9388.000000,5371.000000,2814.000000,44904.000000
9343.000000,5279.000000,2776.000000,44844.000000
9387.000000,5355.000000,2675.000000,44906.000000
9350.000000,5321.000000,2762.000000,44852.000000
9338.000000,5300.000000,2610.000000,44922.000000
9358.000000,5283.000000,2780.000000,44939.000000
9352.000000,5380.000000,2755.000000,44843.000000
9362.000000,5326.000000,2731.000000,44923.000000
9435.000000,5282.000000,2642.000000,44925.000000
9359.000000,5309.000000,2732.000000,44873.000000
9280.000000,5469.000000,2690.000000,44789.000000
9315.000000,5335.000000,2719.000000,44868.000000
9427.000000,5253.000000,2753.000000,44991.000000
9304.000000,5291.000000,2797.000000,44859.000000
9372.000000,5204.000000,2718.000000,44981.000000
9296.000000,5315.000000,2798.000000,44833.000000
9272.000000,5358.000000,2694.000000,44840.000000
9312.000000,5268.000000,2805.000000,44815.000000
9284.000000,5323.000000,2671.000000,44913.000000
9206.000000,5244.000000,2729.000000,44835.000000
9225.000000,5289.000000,2661.000000,44834.000000
9305.000000,5225.000000,2661.000000,44847.000000
9234.000000,5238.000000,2668.000000,44844.000000
9083.000000,5304.000000,2736.000000,44718.000000
9224.000000,5229.000000,2644.000000,44794.000000
9105.000000,5385.000000,2648.000000,44647.000000
9188.000000,5219.000000,2606.000000,44801.000000
9207.000000,5083.000000,2651.000000,44870.000000
9197.000000,5210.000000,2580.000000,44795.000000
9081.000000,5260.000000,2610.000000,44658.000000
9145.000000,5229.000000,2676.000000,44797.000000
9103.000000,5239.000000,2609.000000,44701.000000
9142.000000,5216.000000,2731.000000,44768.000000
9144.000000,5169.000000,2561.000000,44791.000000
9155.000000,5217.000000,2448.000000,44738.000000
9105.000000,5171.000000,2569.000000,44787.000000
9201.000000,5083.000000,2611.000000,44846.000000
9107.000000,5175.000000,2584.000000,44737.000000
9155.000000,5240.000000,2578.000000,44760.000000
9110.000000,5188.000000,2532.000000,44731.000000
9164.000000,4993.000000,2482.000000,44825.000000
9052.000000,5173.000000,2565.000000,44721.000000
9073.000000,5059.000000,2558.000000,44774.000000
9066.000000,5179.000000,2514.000000,44709.000000
9100.000000,5149.000000,2497.000000,44785.000000
9049.000000,5143.000000,2575.000000,44751.000000
9096.000000,5112.000000,2519.000000,44775.000000
9019.000000,5167.000000,2410.000000,44652.000000
9010.000000,5146.000000,2542.000000,44729.000000
8916.000000,5152.000000,2466.000000,44630.000000
8982.000000,5113.000000,2495.000000,44678.000000
9067.000000,5151.000000,2504.000000,44721.000000
8942.000000,5115.000000,2489.000000,44679.000000
9117.000000,4943.000000,2447.000000,44863.000000
8954.000000,5109.000000,2435.000000,44662.000000
8981.000000,5184.000000,2453.000000,44631.000000
8961.000000,5111.000000,2486.000000,44652.000000
9063.000000,4939.000000,2474.000000,44822.000000
8913.000000,5079.000000,2544.000000,44638.000000
8997.000000,5020.000000,2461.000000,44706.000000
8927.000000,5037.000000,2468.000000,44644.000000
8893.000000,5072.000000,2407.000000,44648.000000
8861.000000,5053.000000,2574.000000,44618.000000
8891.000000,5052.000000,2408.000000,44647.000000
8932.000000,5128.000000,2420.000000,44554.000000
8843.000000,5027.000000,2403.000000,44616.000000
8777.000000,5119.000000,2420.000000,44536.000000
8849.000000,5015.000000,2369.000000,44619.000000
8858.000000,5149.000000,2460.000000,44593.000000
8830.000000,5033.000000,2338.000000,44592.000000
8893.000000,4984.000000,2333.000000,44680.000000
8827.000000,5005.000000,2388.000000,44574.000000
8741.000000,5045.000000,2314.000000,44556.000000
8773.000000,4975.000000,2313.000000,44559.000000
8806.000000,4995.000000,2329.000000,44548.000000
8731.000000,4912.000000,2488.000000,44565.000000
8746.000000,4977.000000,2334.000000,44552.000000
8677.000000,4927.000000,2219.000000,44515.000000
8720.000000,4933.000000,2286.000000,44539.000000
8577.000000,4955.000000,2387.000000,44517.000000
8719.000000,4936.000000,2279.000000,44519.000000
8585.000000,5096.000000,2344.000000,44410.000000
8726.000000,4955.000000,2264.000000,44531.000000
8589.000000,4999.000000,2224.000000,44372.000000
8682.000000,4910.000000,2260.000000,44504.000000
8613.000000,4959.000000,2257.000000,44461.000000
8741.000000,4913.000000,2160.000000,44468.000000
8689.000000,4969.000000,2248.000000,44497.000000
8700.000000,4892.000000,2178.000000,44473.000000
8677.000000,4866.000000,2202.000000,44474.000000
8651.000000,4788.000000,2151.000000,44511.000000
8643.000000,4851.000000,2224.000000,44458.000000
8499.000000,4821.000000,2272.000000,44428.000000
8668.000000,4839.000000,2216.000000,44468.000000
8616.000000,4749.000000,2116.000000,44496.000000
8640.000000,4832.000000,2186.000000,44483.000000
8545.000000,4915.000000,2185.000000,44338.000000
8650.000000,4819.000000,2187.000000,44458.000000
8622.000000,4837.000000,2205.000000,44420.000000
8624.000000,4845.000000,2218.000000,44440.000000
8649.000000,4800.000000,2151.000000,44408.000000
8654.000000,4729.000000,2019.000000,44491.000000
8663.000000,4845.000000,2181.000000,44472.000000
8585.000000,4811.000000,2006.000000,44484.000000
8669.000000,4833.000000,2164.000000,44499.000000
8755.000000,4773.000000,2122.000000,44491.000000
8706.000000,4850.000000,2149.000000,44477.000000
8745.000000,4695.000000,2028.000000,44571.000000
8698.000000,4824.000000,2192.000000,44509.000000
8593.000000,4921.000000,2050.000000,44374.000000
8750.000000,4847.000000,2117.000000,44540.000000
8658.000000,4911.000000,2134.000000,44434.000000
8768.000000,4856.000000,2161.000000,44533.000000
8769.000000,4888.000000,2104.000000,44567.000000
8748.000000,4939.000000,2191.000000,44500.000000
8798.000000,4899.000000,2103.000000,44581.000000
8887.000000,4819.000000,2158.000000,44663.000000
8838.000000,4943.000000,2127.000000,44590.000000
8821.000000,4833.000000,2262.000000,44631.000000
8889.000000,4964.000000,2170.000000,44630.000000
8741.000000,5001.000000,2183.000000,44482.000000
8957.000000,4973.000000,2196.000000,44611.000000
8956.000000,4903.000000,2247.000000,44703.000000
8980.000000,5009.000000,2203.000000,44648.000000
8963.000000,5014.000000,2261.000000,44627.000000
9080.000000,5046.000000,2205.000000,44725.000000
9038.000000,5131.000000,2305.000000,44645.000000
9173.000000,5119.000000,2212.000000,44764.000000
9123.000000,5170.000000,2251.000000,44731.000000
9228.000000,5151.000000,2314.000000,44833.000000
9228.000000,5149.000000,2315.000000,44803.000000
9229.000000,5210.000000,2438.000000,44842.000000
9344.000000,5228.000000,2331.000000,44861.000000
9278.000000,5160.000000,2277.000000,44823.000000
9369.000000,5242.000000,2355.000000,44857.000000
9277.000000,5393.000000,2494.000000,44722.000000
9434.000000,5265.000000,2400.000000,44919.000000
9451.000000,5361.000000,2386.000000,44885.000000
9394.000000,5251.000000,2447.000000,44896.000000
9496.000000,5262.000000,2438.000000,45000.000000
9428.000000,5286.000000,2494.000000,44890.000000
9440.000000,5206.000000,2508.000000,44960.000000
9358.000000,5269.000000,2474.000000,44865.000000
9403.000000,5222.000000,2567.000000,44924.000000
9373.000000,5259.000000,2582.000000,44876.000000
9375.000000,5262.000000,2638.000000,44875.000000
9326.000000,5360.000000,2559.000000,44775.000000
9371.000000,5258.000000,2709.000000,44853.000000
9456.000000,5285.000000,2705.000000,44960.000000
9357.000000,5248.000000,2814.000000,44860.000000
9386.000000,5096.000000,2742.000000,44932.000000
9352.000000,5244.000000,2897.000000,44840.000000
9291.000000,5201.000000,2868.000000,44810.000000
9352.000000,5209.000000,2967.000000,44832.000000
9256.000000,5232.000000,3020.000000,44785.000000
9340.000000,5250.000000,2988.000000,44865.000000
9249.000000,5244.000000,2977.000000,44719.000000
9338.000000,5184.000000,3103.000000,44871.000000
9290.000000,5210.000000,3000.000000,44809.000000
9319.000000,5222.000000,3057.000000,44839.000000
9294.000000,5204.000000,3002.000000,44817.000000
9281.000000,5165.000000,3102.000000,44844.000000
9251.000000,5180.000000,2975.000000,44815.000000
9153.000000,5229.000000,2981.000000,44702.000000
9237.000000,5178.000000,2966.000000,44786.000000
9187.000000,5278.000000,2999.000000,44702.000000
9235.000000,5155.000000,2973.000000,44793.000000
9266.000000,5166.000000,3012.000000,44870.000000
9238.000000,5168.000000,2913.000000,44753.000000
9208.000000,5127.000000,2966.000000,44840.000000
9101.000000,5132.000000,2882.000000,44762.000000
9176.000000,5116.000000,2952.000000,44793.000000
9186.000000,5170.000000,2985.000000,44746.000000
9132.000000,5099.000000,2949.000000,44744.000000
9185.000000,5113.000000,3129.000000,44746.000000
9140.000000,5130.000000,2946.000000,44745.000000
9119.000000,5168.000000,2948.000000,44732.000000
9107.000000,5125.000000,2975.000000,44725.000000
9221.000000,5077.000000,3011.000000,44832.000000
9107.000000,5125.000000,2934.000000,44706.000000
9074.000000,5055.000000,2956.000000,44705.000000
9078.000000,5086.000000,2936.000000,44724.000000
9002.000000,5127.000000,2914.000000,44628.000000
9056.000000,5121.000000,2877.000000,44709.000000
8989.000000,5134.000000,2924.000000,44635.000000
9061.000000,5039.000000,2776.000000,44732.000000
9008.000000,5077.000000,2899.000000,44635.000000
8960.000000,5073.000000,2811.000000,44636.000000
9026.000000,5059.000000,2862.000000,44693.000000
9012.000000,5063.000000,2732.000000,44619.000000
9014.000000,5032.000000,2854.000000,44679.000000
8986.000000,5115.000000,2878.000000,44625.000000
8966.000000,5039.000000,2876.000000,44665.000000
9040.000000,4985.000000,2817.000000,44693.000000
9004.000000,5013.000000,2816.000000,44669.000000
8971.000000,5015.000000,2755.000000,44620.000000
8978.000000,5011.000000,2876.000000,44668.000000
8990.000000,4995.000000,2864.000000,44652.000000
9181.000000,4989.000000,2785.000000,44641.000000
8989.000000,4989.000000,2832.000000,44639.000000
8946.000000,5063.000000,2871.000000,44559.000000
8990.000000,4971.000000,2803.000000,44598.000000
9014.000000,4969.000000,2802.000000,44647.000000
8949.000000,4952.000000,2787.000000,44598.000000
8929.000000,4891.000000,2868.000000,44609.000000
8915.000000,4957.000000,2761.000000,44615.000000
8853.000000,5007.000000,2836.000000,44547.000000
8931.000000,4969.000000,2724.000000,44627.000000
8921.000000,5025.000000,2772.000000,44569.000000
8906.000000,4923.000000,2740.000000,44588.000000
8904.000000,5004.000000,2755.000000,44579.000000
8882.000000,4938.000000,2659.000000,44588.000000
8877.000000,4923.000000,2710.000000,44653.000000
8821.000000,4948.000000,2647.000000,44534.000000
8817.000000,4897.000000,2718.000000,44596.000000
8819.000000,4964.000000,2591.000000,44523.000000
8803.000000,4923.000000,2708.000000,44564.000000
8854.000000,4943.000000,2756.000000,44559.000000
8774.000000,4885.000000,2672.000000,44568.000000
8836.000000,4820.000000,2798.000000,44592.000000
8710.000000,4850.000000,2693.000000,44543.000000
8711.000000,4833.000000,2610.000000,44450.000000
8706.000000,4859.000000,2683.000000,44502.000000
8685.000000,4863.000000,2637.000000,44485.000000
8706.000000,4838.000000,2676.000000,44518.000000
8644.000000,4774.000000,2615.000000,44428.000000
8971.000000,5084.000000,2671.000000,44491.000000
8672.000000,4842.000000,2653.000000,44479.000000
8676.000000,4793.000000,2510.000000,44479.000000
8665.000000,4761.000000,2619.000000,44487.000000
8638.000000,4797.000000,2581.000000,44478.000000
8677.000000,4806.000000,2610.000000,44485.000000
8645.000000,4817.000000,2473.000000,44455.000000
8680.000000,4801.000000,2548.000000,44470.000000
8679.000000,4814.000000,2540.000000,44476.000000
8660.000000,4779.000000,2527.000000,44482.000000
8625.000000,4816.000000,2550.000000,44443.000000
8625.000000,4779.000000,2554.000000,44487.000000
8611.000000,4841.000000,2472.000000,44444.000000
8624.000000,4756.000000,2590.000000,44434.000000
8592.000000,4761.000000,2523.000000,44459.000000
8590.000000,4746.000000,2435.000000,44435.000000
8574.000000,4745.000000,2491.000000,44459.000000
8540.000000,4824.000000,2510.000000,44399.000000
8567.000000,4750.000000,2476.000000,44448.000000
8552.000000,4716.000000,2344.000000,44435.000000
8526.000000,4721.000000,2475.000000,44415.000000
8518.000000,4931.000000,2315.000000,44415.000000
8507.000000,4705.000000,2447.000000,44407.000000
8472.000000,4698.000000,2451.000000,44413.000000
8511.000000,4687.000000,2420.000000,44392.000000
8448.000000,4684.000000,2352.000000,44340.000000
8483.000000,4669.000000,2430.000000,44383.000000
8419.000000,4699.000000,2339.000000,44308.000000
8451.000000,4669.000000,2432.000000,44385.000000
8445.000000,4705.000000,2367.000000,44407.000000
8425.000000,4653.000000,2465.000000,44395.000000
8440.000000,4671.000000,2363.000000,44397.000000
8392.000000,4673.000000,2343.000000,44326.000000
8475.000000,4669.000000,2361.000000,44403.000000
8552.000000,4708.000000,2400.000000,44433.000000
8481.000000,4694.000000,2338.000000,44414.000000
8589.000000,4609.000000,2312.000000,44466.000000
8572.000000,5007.000000,2337.000000,44459.000000
8602.000000,4649.000000,2264.000000,44471.000000
8550.000000,4702.000000,2283.000000,44464.000000
8556.000000,4678.000000,2244.000000,44442.000000
8610.000000,4738.000000,2318.000000,44455.000000
8540.000000,4728.000000,2282.000000,44415.000000
8652.000000,4762.000000,2385.000000,44440.000000
8593.000000,4750.000000,2247.000000,44415.000000
8609.000000,4704.000000,2331.000000,44477.000000
8590.000000,4983.000000,2244.000000,44443.000000
8513.000000,4730.000000,2297.000000,44419.000000
8623.000000,4742.000000,2235.000000,44498.000000
8593.000000,4796.000000,2243.000000,44502.000000
8631.000000,4755.000000,2254.000000,44530.000000
8686.000000,4758.000000,2267.000000,44567.000000
8677.000000,4771.000000,2273.000000,44495.000000
8728.000000,4732.000000,2257.000000,44567.000000
8678.000000,4779.000000,2367.000000,44511.000000
8702.000000,4746.000000,2275.000000,44587.000000
8741.000000,4823.000000,2262.000000,44536.000000
8768.000000,4808.000000,2271.000000,44601.000000
8786.000000,4776.000000,2366.000000,44575.000000
8809.000000,5095.000000,2276.000000,44604.000000
8825.000000,4903.000000,2393.000000,44593.000000
8887.000000,4907.000000,2332.000000,44632.000000
8998.000000,4907.000000,2403.000000,44736.000000
8946.000000,4919.000000,2348.000000,44682.000000
9062.000000,4872.000000,2398.000000,44823.000000
9050.000000,4961.000000,2387.000000,44728.000000
9070.000000,4907.000000,2431.000000,44765.000000
9114.000000,5052.000000,2384.000000,44765.000000
9068.000000,5103.000000,2404.000000,44685.000000
9132.000000,5043.000000,2574.000000,44760.000000
9107.000000,5115.000000,2466.000000,44744.000000
9203.000000,5055.000000,2640.000000,44743.000000
9155.000000,5123.000000,2510.000000,44775.000000
9132.000000,5020.000000,2600.000000,44795.000000
9135.000000,5104.000000,2572.000000,44786.000000
9088.000000,5112.000000,2741.000000,44714.000000
9170.000000,5037.000000,2607.000000,44776.000000
9209.000000,5051.000000,2700.000000,44794.000000
9153.000000,5089.000000,2687.000000,44747.000000
9199.000000,4968.000000,2730.000000,44854.000000
9092.000000,5049.000000,2787.000000,44745.000000
9160.000000,4988.000000,2816.000000,44794.000000
9120.000000,5035.000000,2881.000000,44726.000000
9143.000000,5073.000000,2848.000000,44746.000000
9097.000000,5029.000000,3067.000000,44715.000000
9117.000000,5031.000000,2874.000000,44736.000000
9072.000000,5000.000000,2944.000000,44720.000000
9092.000000,5024.000000,2921.000000,44763.000000
9066.000000,5051.000000,2854.000000,44648.000000
9031.000000,4987.000000,2931.000000,44718.000000
9165.000000,4953.000000,2880.000000,44745.000000
9048.000000,4949.000000,2952.000000,44686.000000
9108.000000,4845.000000,2925.000000,44809.000000
9032.000000,4965.000000,2935.000000,44700.000000
9026.000000,4935.000000,2936.000000,44642.000000
9035.000000,4951.000000,2924.000000,44665.000000
8970.000000,4936.000000,2917.000000,44588.000000
9024.000000,4919.000000,2897.000000,44677.000000
8966.000000,4955.000000,2930.000000,44625.000000
9022.000000,4947.000000,2834.000000,44655.000000
8976.000000,4937.000000,2890.000000,44611.000000
8981.000000,4931.000000,2990.000000,44630.000000
9019.000000,4884.000000,2896.000000,44613.000000
9003.000000,4925.000000,3013.000000,44643.000000
8970.000000,4903.000000,2900.000000,44637.000000
9003.000000,4821.000000,2996.000000,44683.000000
8953.000000,4892.000000,2898.000000,44627.000000
8912.000000,4824.000000,2933.000000,44571.000000
8937.000000,4872.000000,2898.000000,44619.000000
8869.000000,4973.000000,2879.000000,44499.000000
8920.000000,4895.000000,2888.000000,44615.000000
8872.000000,4955.000000,2838.000000,44523.000000
8922.000000,4850.000000,2886.000000,44570.000000
8889.000000,4903.000000,2843.000000,44569.000000
8878.000000,4829.000000,2898.000000,44592.000000
8867.000000,4867.000000,2811.000000,44600.000000
8847.000000,4833.000000,2789.000000,44583.000000
8912.000000,4825.000000,2851.000000,44581.000000
8842.000000,4884.000000,2733.000000,44526.000000
8908.000000,4813.000000,2789.000000,44550.000000
8897.000000,4815.000000,2774.000000,44578.000000
8877.000000,4806.000000,2823.000000,44596.000000
8838.000000,4807.000000,2806.000000,44502.000000
8866.000000,4820.000000,2718.000000,44573.000000
8804.000000,4828.000000,2769.000000,44541.000000
8853.000000,4779.000000,2761.000000,44831.000000
8870.000000,4790.000000,2733.000000,44566.000000
8803.000000,5031.000000,2634.000000,44552.000000
8874.000000,4725.000000,2746.000000,44561.000000
8792.000000,4817.000000,2722.000000,44503.000000
8826.000000,4742.000000,2984.000000,44522.000000
8834.000000,4701.000000,2835.000000,44521.000000
8834.000000,4767.000000,2691.000000,44518.000000
8791.000000,4671.000000,2777.000000,44529.000000
8749.000000,4747.000000,2726.000000,44500.000000
8670.000000,4760.000000,2684.000000,44413.000000
8761.000000,4738.000000,2683.000000,44514.000000
8727.000000,4764.000000,2713.000000,44407.000000
8781.000000,4728.000000,2744.000000,44469.000000
8732.000000,4776.000000,2662.000000,44503.000000
8743.000000,4693.000000,2600.000000,44451.000000
8748.000000,4690.000000,2645.000000,44485.000000
8704.000000,4661.000000,2514.000000,44422.000000
8742.000000,4639.000000,2581.000000,44466.000000
8649.000000,4710.000000,2570.000000,44408.000000
8698.000000,4656.000000,2582.000000,44446.000000
8725.000000,4641.000000,2571.000000,44465.000000
8668.000000,4625.000000,2572.000000,44423.000000
8603.000000,4659.000000,2540.000000,44379.000000
8686.000000,4623.000000,2555.000000,44405.000000
8636.000000,4642.000000,2505.000000,44390.000000
8676.000000,4626.000000,2526.000000,44410.000000
8637.000000,4633.000000,2563.000000,44354.000000
8662.000000,4603.000000,2454.000000,44368.000000
8624.000000,4648.000000,2513.000000,44356.000000
8667.000000,4594.000000,2560.000000,44383.000000
8610.000000,4569.000000,2506.000000,44365.000000
8670.000000,4590.000000,2474.000000,44409.000000
8607.000000,4575.000000,2486.000000,44347.000000
8588.000000,4609.000000,2435.000000,44360.000000
8592.000000,4575.000000,2469.000000,44379.000000
8603.000000,4595.000000,2416.000000,44321.000000
8567.000000,4541.000000,2457.000000,44355.000000
8520.000000,4577.000000,2405.000000,44323.000000
8552.000000,4544.000000,2473.000000,44327.000000
8525.000000,4528.000000,2396.000000,44331.000000
8570.000000,4509.000000,2383.000000,44346.000000
8516.000000,4499.000000,2443.000000,44302.000000
8526.000000,4488.000000,2336.000000,44306.000000
8536.000000,4543.000000,2426.000000,44289.000000
8504.000000,4489.000000,2388.000000,44306.000000
8522.000000,4489.000000,2352.000000,44271.000000
8501.000000,4469.000000,2411.000000,44287.000000
8462.000000,4459.000000,2348.000000,44269.000000
8466.000000,4503.000000,2372.000000,44279.000000
8440.000000,4444.000000,2331.000000,44281.000000
8457.000000,4472.000000,2405.000000,44214.000000
8461.000000,4448.000000,2311.000000,44282.000000
8469.000000,4469.000000,2310.000000,44270.000000
8456.000000,4440.000000,2309.000000,44277.000000
8458.000000,4401.000000,2321.000000,44251.000000
8438.000000,4439.000000,2345.000000,44260.000000
8429.000000,4421.000000,2279.000000,44244.000000
8432.000000,4397.000000,2286.000000,44261.000000
8397.000000,4404.000000,2290.000000,44202.000000
8396.000000,4385.000000,2243.000000,44234.000000
8370.000000,4394.000000,2260.000000,44185.000000
8409.000000,4380.000000,2277.000000,44241.000000
8431.000000,4399.000000,2251.000000,44262.000000
8436.000000,4419.000000,2270.000000,44276.000000
8469.000000,4395.000000,2245.000000,44228.000000
8456.000000,4447.000000,2252.000000,44223.000000
8458.000000,4401.000000,2228.000000,44277.000000
8535.000000,4439.000000,2234.000000,44311.000000
8479.000000,4417.000000,2236.000000,44290.000000
8573.000000,4432.000000,2186.000000,44274.000000
8505.000000,4463.000000,2143.000000,44320.000000
8488.000000,4481.000000,2170.000000,44303.000000
8518.000000,4481.000000,2227.000000,44318.000000
8537.000000,4521.000000,2117.000000,44344.000000
8585.000000,4488.000000,2208.000000,44343.000000
8535.000000,4527.000000,2154.000000,44304.000000
8561.000000,4536.000000,2186.000000,44338.000000
8585.000000,4524.000000,2116.000000,44379.000000
8599.000000,4545.000000,2112.000000,44360.000000
8562.000000,4548.000000,2092.000000,44392.000000
8635.000000,4539.000000,2065.000000,44415.000000
8592.000000,4579.000000,2141.000000,44392.000000
8669.000000,4515.000000,2103.000000,44448.000000
8632.000000,4549.000000,2177.000000,44396.000000
8696.000000,4601.000000,2121.000000,44425.000000
8669.000000,4576.000000,2088.000000,44418.000000
8689.000000,4587.000000,2141.000000,44437.000000
8722.000000,4611.000000,2181.000000,44465.000000
8727.000000,4593.000000,2176.000000,44444.000000
8734.000000,4607.000000,2244.000000,44481.000000
8734.000000,4624.000000,2192.000000,44480.000000
8822.000000,4599.000000,2240.000000,44500.000000
8811.000000,4625.000000,2219.000000,44544.000000
8837.000000,4591.000000,2250.000000,44515.000000
8834.000000,4665.000000,2178.000000,44543.000000
8884.000000,4620.000000,2222.000000,44595.000000
8928.000000,4737.000000,2262.000000,44597.000000
8920.000000,4712.000000,2208.000000,44601.000000
8991.000000,4781.000000,2335.000000,44639.000000
9053.000000,4794.000000,2245.000000,44684.000000
9061.000000,4781.000000,2197.000000,44671.000000
9140.000000,4830.000000,2268.000000,44725.000000
9107.000000,4822.000000,2206.000000,44700.000000
9151.000000,4840.000000,2279.000000,44683.000000
9145.000000,4816.000000,2283.000000,44726.000000
9159.000000,4862.000000,2322.000000,44727.000000
9156.000000,4835.000000,2329.000000,44737.000000
9115.000000,4851.000000,2333.000000,44681.000000
9103.000000,4854.000000,2341.000000,44707.000000
9125.000000,4850.000000,2388.000000,44671.000000
9114.000000,4839.000000,2402.000000,44670.000000
9069.000000,4865.000000,2458.000000,44669.000000
9034.000000,4867.000000,2496.000000,44685.000000
9049.000000,4875.000000,2524.000000,44679.000000
9095.000000,4824.000000,2577.000000,44709.000000
9005.000000,4842.000000,2609.000000,44676.000000
9046.000000,4771.000000,2646.000000,44673.000000
9020.000000,4820.000000,2762.000000,44613.000000
9023.000000,4791.000000,2696.000000,44656.000000
9031.000000,4743.000000,2731.000000,44657.000000
8980.000000,4806.000000,2723.000000,44620.000000
8939.000000,4738.000000,2677.000000,44662.000000
9006.000000,4782.000000,2732.000000,44626.000000
8926.000000,4771.000000,2653.000000,44615.000000
8991.000000,4755.000000,2757.000000,44617.000000
8971.000000,4756.000000,2708.000000,44531.000000
8938.000000,4757.000000,2722.000000,44606.000000
8906.000000,4749.000000,2680.000000,44580.000000
8960.000000,4770.000000,2609.000000,44593.000000
8989.000000,4706.000000,2667.000000,44621.000000
8918.000000,4718.000000,2654.000000,44590.000000
8935.000000,4672.000000,2689.000000,44581.000000
8710.000000,4838.000000,2654.000000,44702.000000
8654.000000,4790.000000,2650.000000,44691.000000
8692.000000,4822.000000,2605.000000,44695.000000
8593.000000,4789.000000,2638.000000,44664.000000
8676.000000,4792.000000,2551.000000,44663.000000
8629.000000,4825.000000,2675.000000,44555.000000
8634.000000,4821.000000,2560.000000,44675.000000
8563.000000,4813.000000,2583.000000,44657.000000
8630.000000,4789.000000,2595.000000,44637.000000
8658.000000,4773.000000,2500.000000,44679.000000
8642.000000,4724.000000,2614.000000,44629.000000
8628.000000,4755.000000,2559.000000,44687.000000
8566.000000,4813.000000,2575.000000,44619.000000
8626.000000,4771.000000,2634.000000,44638.000000
8644.000000,4778.000000,2575.000000,44663.000000
8613.000000,4754.000000,2565.000000,44629.000000
8669.000000,4709.000000,2517.000000,44686.000000
8592.000000,4727.000000,2560.000000,44635.000000
8616.000000,4692.000000,2496.000000,44665.000000
8615.000000,4783.000000,2490.000000,44606.000000
8603.000000,4685.000000,2497.000000,44625.000000
8601.000000,4720.000000,2527.000000,44600.000000
8587.000000,4647.000000,2441.000000,44609.000000
8594.000000,4749.000000,2488.000000,44610.000000
8546.000000,4715.000000,2523.000000,44559.000000
8569.000000,4674.000000,2418.000000,44595.000000
8500.000000,4675.000000,2519.000000,44552.000000
8559.000000,4684.000000,2421.000000,44642.000000
8533.000000,4674.000000,2440.000000,44573.000000
8449.000000,4719.000000,2417.000000,44493.000000
8489.000000,4653.000000,2417.000000,44574.000000
8491.000000,4734.000000,2381.000000,44543.000000
8511.000000,4674.000000,2365.000000,44570.000000
8531.000000,4665.000000,2401.000000,44598.000000
8521.000000,4665.000000,2331.000000,44545.000000
8544.000000,4658.000000,2387.000000,44606.000000
8466.000000,4658.000000,2306.000000,44547.000000
8551.000000,4647.000000,2365.000000,44615.000000
8485.000000,4730.000000,2322.000000,44550.000000
8535.000000,4672.000000,2289.000000,44535.000000
8545.000000,4703.000000,2267.000000,44528.000000
8523.000000,4673.000000,2316.000000,44555.000000
8568.000000,4615.000000,2282.000000,44625.000000
8519.000000,4702.000000,2218.000000,44567.000000
8477.000000,4726.000000,2264.000000,44545.000000
8584.000000,4700.000000,2227.000000,44567.000000
8508.000000,4805.000000,2216.000000,44519.000000
8560.000000,4722.000000,2237.000000,44590.000000
8635.000000,4767.000000,2232.000000,44613.000000
8598.000000,4767.000000,2252.000000,44616.000000
8673.000000,4793.000000,2195.000000,44626.000000
8593.000000,4782.000000,2196.000000,44670.000000
8667.000000,4780.000000,2264.000000,44615.000000
8642.000000,4823.000000,2170.000000,44641.000000
8685.000000,4785.000000,2233.000000,44650.000000
8749.000000,4854.000000,2171.000000,44662.000000
8727.000000,4795.000000,2119.000000,44681.000000
8886.000000,4787.000000,2147.000000,44786.000000
8773.000000,4840.000000,2071.000000,44712.000000
8789.000000,4858.000000,2077.000000,44700.000000
8852.000000,4883.000000,2048.000000,44754.000000
8841.000000,4939.000000,2076.000000,44718.000000
8936.000000,4947.000000,2111.000000,44797.000000
8919.000000,5000.000000,2024.000000,44764.000000
9031.000000,4980.000000,2020.000000,44843.000000
9020.000000,5057.000000,2026.000000,44849.000000
9063.000000,5031.000000,2025.000000,44930.000000
9092.000000,5117.000000,2054.000000,44945.000000
9150.000000,5095.000000,1990.000000,44926.000000
9190.000000,5137.000000,2003.000000,44975.000000
9215.000000,5172.000000,1983.000000,44959.000000
9259.000000,5153.000000,2010.000000,45020.000000
9293.000000,5266.000000,1960.000000,44994.000000
9305.000000,5172.000000,1923.000000,45051.000000
9368.000000,5144.000000,1920.000000,45063.000000
9305.000000,5198.000000,1943.000000,45044.000000
9299.000000,5158.000000,1919.000000,45012.000000
9300.000000,5184.000000,1909.000000,45026.000000
9300.000000,5142.000000,1881.000000,45027.000000
9284.000000,5209.000000,1850.000000,45036.000000
9297.000000,5137.000000,1890.000000,45050.000000
9343.000000,5141.000000,1864.000000,45047.000000
9322.000000,5145.000000,1836.000000,45017.000000
9291.000000,5103.000000,1846.000000,45095.000000
9266.000000,5154.000000,1872.000000,45008.000000
9238.000000,5103.000000,1826.000000,45040.000000
9281.000000,5143.000000,1824.000000,45023.000000
9252.000000,5119.000000,1801.000000,44976.000000
9300.000000,5141.000000,1778.000000,45004.000000
9245.000000,5219.000000,1830.000000,44948.000000
9323.000000,5173.000000,1811.000000,44993.000000
9320.000000,5149.000000,1828.000000,45083.000000
9279.000000,5148.000000,1776.000000,44996.000000
9318.000000,5127.000000,1761.000000,45025.000000
9265.000000,5092.000000,1760.000000,45017.000000
9289.000000,5107.000000,1730.000000,45023.000000
9265.000000,5162.000000,1743.000000,44955.000000
9229.000000,5128.000000,1664.000000,45007.000000
9331.000000,5084.000000,1732.000000,44989.000000
9226.000000,5091.000000,1732.000000,44979.000000
9282.000000,5016.000000,1709.000000,44996.000000
9198.000000,5081.000000,1695.000000,44957.000000
9195.000000,5044.000000,1691.000000,44987.000000
9191.000000,5121.000000,1666.000000,44941.000000
9133.000000,5071.000000,1685.000000,44915.000000
9209.000000,5111.000000,1686.000000,44940.000000
9109.000000,5120.000000,1686.000000,44944.000000
9171.000000,5081.000000,1700.000000,44902.000000
9147.000000,5100.000000,1654.000000,44931.000000
9183.000000,5026.000000,1682.000000,44966.000000
9176.000000,5083.000000,1668.000000,44897.000000
9129.000000,5095.000000,1682.000000,44904.000000
9130.000000,5069.000000,1672.000000,44852.000000
9168.000000,5025.000000,1726.000000,44937.000000
9083.000000,5052.000000,1776.000000,44889.000000
9149.000000,5027.000000,1749.000000,44949.000000
9082.000000,5051.000000,1766.000000,44893.000000
9161.000000,5000.000000,1833.000000,44957.000000
9089.000000,5053.000000,1779.000000,44865.000000
9115.000000,4993.000000,1817.000000,44911.000000
9076.000000,5059.000000,1862.000000,44883.000000
9082.000000,5011.000000,1845.000000,44844.000000
9088.000000,5044.000000,1867.000000,44859.000000
9081.000000,5047.000000,1847.000000,44809.000000
9116.000000,5022.000000,1899.000000,44877.000000
9074.000000,5003.000000,1843.000000,44843.000000
9056.000000,5001.000000,1929.000000,44835.000000
9042.000000,5008.000000,1888.000000,44856.000000
9014.000000,5039.000000,1919.000000,44808.000000
9051.000000,4999.000000,1923.000000,44868.000000
9043.000000,5007.000000,1936.000000,44783.000000
9035.000000,4972.000000,1958.000000,44844.000000
9005.000000,4997.000000,1955.000000,44778.000000
8997.000000,4963.000000,2003.000000,44806.000000
8962.000000,5047.000000,2019.000000,44752.000000
8987.000000,4935.000000,2044.000000,44807.000000
8991.000000,4925.000000,2058.000000,44788.000000
8966.000000,4948.000000,2098.000000,44774.000000
8941.000000,4914.000000,2096.000000,44796.000000
8870.000000,4952.000000,2129.000000,44723.000000
8952.000000,4897.000000,2209.000000,44826.000000
8926.000000,4928.000000,2210.000000,44745.000000
8906.000000,4912.000000,2253.000000,44752.000000
8939.000000,4867.000000,2278.000000,44760.000000
8902.000000,4861.000000,2283.000000,44748.000000
8891.000000,4895.000000,2310.000000,44706.000000
8893.000000,4875.000000,2388.000000,44725.000000
8860.000000,4897.000000,2386.000000,44741.000000
8876.000000,4871.000000,2384.000000,44751.000000
8899.000000,4802.000000,2388.000000,44734.000000
8904.000000,5115.000000,2395.000000,44755.000000
8893.000000,4825.000000,2395.000000,44725.000000
8855.000000,4843.000000,2380.000000,44707.000000
8857.000000,4825.000000,2436.000000,44702.000000
8907.000000,4756.000000,2396.000000,44724.000000
8860.000000,4791.000000,2439.000000,44685.000000
8854.000000,4796.000000,2378.000000,44746.000000
8855.000000,4770.000000,2405.000000,44675.000000
8873.000000,4765.000000,2353.000000,44740.000000
8825.000000,4787.000000,2366.000000,44672.000000
8807.000000,4741.000000,2364.000000,44690.000000
8831.000000,4762.000000,2324.000000,44663.000000
8807.000000,4780.000000,2337.000000,44641.000000
8844.000000,4743.000000,2311.000000,44685.000000
8842.000000,4768.000000,2294.000000,44683.000000
8843.000000,4790.000000,2304.000000,44677.000000
8793.000000,4784.000000,2322.000000,44677.000000
8740.000000,4746.000000,2284.000000,44668.000000
8803.000000,4727.000000,2312.000000,44658.000000
8787.000000,4767.000000,2251.000000,44657.000000
8800.000000,4744.000000,2280.000000,44678.000000
8841.000000,4750.000000,2198.000000,44666.000000
8783.000000,4748.000000,2212.000000,44651.000000
8808.000000,4718.000000,2202.000000,44665.000000
8739.000000,4720.000000,2223.000000,44639.000000
8745.000000,4663.000000,2195.000000,44697.000000
8776.000000,4693.000000,2187.000000,44632.000000
8772.000000,4653.000000,2179.000000,44633.000000
8733.000000,4702.000000,2190.000000,44625.000000
8703.000000,4698.000000,2202.000000,44593.000000
8803.000000,4702.000000,2175.000000,44589.000000
8732.000000,4689.000000,2267.000000,44601.000000
8764.000000,4613.000000,2308.000000,44625.000000
8709.000000,4709.000000,2219.000000,44611.000000
8721.000000,4705.000000,2260.000000,44603.000000
8722.000000,4708.000000,2228.000000,44622.000000
8794.000000,4719.000000,2244.000000,44631.000000
8752.000000,4692.000000,2270.000000,44625.000000
8761.000000,4755.000000,2224.000000,44617.000000
8751.000000,4740.000000,2288.000000,44630.000000
8791.000000,4787.000000,2219.000000,44623.000000
8803.000000,4695.000000,2283.000000,44655.000000
8877.000000,4741.000000,2252.000000,44710.000000
8826.000000,4792.000000,2269.000000,44648.000000
8815.000000,4756.000000,2227.000000,44663.000000
8887.000000,4756.000000,2269.000000,44701.000000
8852.000000,4777.000000,2232.000000,44701.000000
8901.000000,4701.000000,2287.000000,44747.000000
8940.000000,4778.000000,2272.000000,44712.000000
8928.000000,4850.000000,2381.000000,44713.000000
9013.000000,4795.000000,2398.000000,44772.000000
9030.000000,4893.000000,2396.000000,44712.000000
9016.000000,4816.000000,2407.000000,44768.000000
9145.000000,4861.000000,2398.000000,44839.000000
9087.000000,4871.000000,2418.000000,44811.000000
9139.000000,4873.000000,2479.000000,44888.000000
9127.000000,4939.000000,2472.000000,44888.000000
9229.000000,4887.000000,2455.000000,44876.000000
9227.000000,4977.000000,2486.000000,44857.000000
9197.000000,4980.000000,2442.000000,44886.000000
9305.000000,5023.000000,2516.000000,44955.000000
9285.000000,5041.000000,2496.000000,44989.000000
9383.000000,5055.000000,2579.000000,45026.000000
9367.000000,5089.000000,2625.000000,45008.000000
9546.000000,5111.000000,2621.000000,45163.000000
9571.000000,5196.000000,2664.000000,45119.000000
9557.000000,5245.000000,2675.000000,45115.000000
9619.000000,5307.000000,2671.000000,45183.000000
9651.000000,5333.000000,2735.000000,45211.000000
9737.000000,5272.000000,2753.000000,45248.000000
9733.000000,5336.000000,2823.000000,45270.000000
9700.000000,5392.000000,2869.000000,45224.000000
9723.000000,5343.000000,2864.000000,45249.000000
9783.000000,5384.000000,2961.000000,45230.000000
9748.000000,5391.000000,2948.000000,45257.000000
9773.000000,5323.000000,3021.000000,45259.000000
9704.000000,5381.000000,3069.000000,45256.000000
9736.000000,5319.000000,3044.000000,45313.000000
9673.000000,5353.000000,3117.000000,45230.000000
9700.000000,5308.000000,3095.000000,45287.000000
9641.000000,5299.000000,3116.000000,45219.000000
9684.000000,5297.000000,3028.000000,45302.000000
9617.000000,5300.000000,3065.000000,45232.000000
9670.000000,5249.000000,3101.000000,45225.000000
9624.000000,5327.000000,3067.000000,45207.000000
9622.000000,5293.000000,3084.000000,45186.000000
9619.000000,5210.000000,3038.000000,45270.000000
9570.000000,5284.000000,2949.000000,45173.000000
9540.000000,5267.000000,3012.000000,45171.000000
9592.000000,5321.000000,2995.000000,45200.000000
9506.000000,5325.000000,2995.000000,45091.000000
9619.000000,5292.000000,2949.000000,45187.000000
9605.000000,5352.000000,2997.000000,45199.000000
9575.000000,5290.000000,2955.000000,45202.000000
9631.000000,5295.000000,2954.000000,45215.000000
9572.000000,5300.000000,2955.000000,45190.000000
9592.000000,5344.000000,2903.000000,45160.000000
9580.000000,5329.000000,2919.000000,45177.000000
9559.000000,5274.000000,2919.000000,45186.000000
9594.000000,5269.000000,2916.000000,45191.000000
9591.000000,5272.000000,2952.000000,45162.000000
9547.000000,5325.000000,2890.000000,45158.000000
9540.000000,5280.000000,2923.000000,45189.000000
9614.000000,5297.000000,2897.000000,45183.000000
9550.000000,5316.000000,2838.000000,45167.000000
9593.000000,5234.000000,2890.000000,45220.000000
9575.000000,5295.000000,2821.000000,45160.000000
9599.000000,5242.000000,2897.000000,45243.000000
9574.000000,5284.000000,2849.000000,45188.000000
9591.000000,5221.000000,2861.000000,45199.000000
9563.000000,5279.000000,2799.000000,45152.000000
9524.000000,5294.000000,2819.000000,45140.000000
9571.000000,5244.000000,2824.000000,45168.000000
9569.000000,5302.000000,2775.000000,45157.000000
9530.000000,5213.000000,2819.000000,45156.000000
9543.000000,5257.000000,2737.000000,45152.000000
9535.000000,5269.000000,2801.000000,45189.000000
9571.000000,5226.000000,2810.000000,45124.000000
9572.000000,5220.000000,2784.000000,45202.000000
9478.000000,5233.000000,2754.000000,45156.000000
9511.000000,5236.000000,2780.000000,45184.000000
9517.000000,5262.000000,2777.000000,45144.000000
9515.000000,5259.000000,2749.000000,45184.000000
9493.000000,5234.000000,2739.000000,45122.000000
9444.000000,5174.000000,2751.000000,45126.000000
9487.000000,5240.000000,2701.000000,45117.000000
9474.000000,5249.000000,2720.000000,45165.000000
9463.000000,5209.000000,2737.000000,45141.000000
9434.000000,5229.000000,2643.000000,45114.000000
9419.000000,5161.000000,2700.000000,45096.000000
9409.000000,5208.000000,2620.000000,45109.000000
9416.000000,5185.000000,2688.000000,45131.000000
9394.000000,5195.000000,2707.000000,45086.000000
9404.000000,5177.000000,2650.000000,45110.000000
9380.000000,5157.000000,2622.000000,45071.000000
9335.000000,5179.000000,2640.000000,45123.000000
9350.000000,5191.000000,2634.000000,45042.000000
9310.000000,5154.000000,2574.000000,45110.000000
9306.000000,5156.000000,2597.000000,45057.000000
9278.000000,5149.000000,2606.000000,45050.000000
9323.000000,5163.000000,2565.000000,45075.000000
9240.000000,5132.000000,2573.000000,45060.000000
9236.000000,5126.000000,2534.000000,45063.000000
9254.000000,5133.000000,2518.000000,45036.000000
9241.000000,5157.000000,2523.000000,44999.000000
9224.000000,5136.000000,2431.000000,45030.000000
9202.000000,5093.000000,2521.000000,45011.000000
9241.000000,5107.000000,2515.000000,44992.000000
9172.000000,5099.000000,2470.000000,44951.000000
9204.000000,5091.000000,2517.000000,45020.000000
9229.000000,5095.000000,2467.000000,45019.000000
9233.000000,5071.000000,2464.000000,44999.000000
9225.000000,5043.000000,2430.000000,45002.000000
9148.000000,5040.000000,2448.000000,44976.000000
9188.000000,5011.000000,2473.000000,44982.000000
9159.000000,5039.000000,2414.000000,44976.000000
9107.000000,5028.000000,2478.000000,44959.000000
9160.000000,4951.000000,2369.000000,44959.000000
9124.000000,4992.000000,2439.000000,44945.000000
9085.000000,4975.000000,2366.000000,44959.000000
9085.000000,4968.000000,2367.000000,44915.000000
9002.000000,4929.000000,2333.000000,44897.000000
9042.000000,4959.000000,2303.000000,44885.000000
8975.000000,4975.000000,2313.000000,44893.000000
9000.000000,4963.000000,2263.000000,44884.000000
8974.000000,4939.000000,2316.000000,44904.000000
8987.000000,4925.000000,2310.000000,44875.000000
9013.000000,4911.000000,2326.000000,44894.000000
8917.000000,4877.000000,2244.000000,44872.000000
8940.000000,4873.000000,2251.000000,44869.000000
8934.000000,4895.000000,2238.000000,44881.000000
8926.000000,4908.000000,2254.000000,44831.000000
8977.000000,4860.000000,2232.000000,44861.000000
8915.000000,4888.000000,2251.000000,44842.000000
8854.000000,4867.000000,2247.000000,44839.000000
8920.000000,4864.000000,2304.000000,44838.000000
8875.000000,4847.000000,2251.000000,44865.000000
8892.000000,4883.000000,2244.000000,44821.000000
8838.000000,4826.000000,2216.000000,44778.000000
8916.000000,4848.000000,2192.000000,44819.000000
8867.000000,4855.000000,2152.000000,44859.000000
8900.000000,4865.000000,2135.000000,44822.000000
8903.000000,4841.000000,2166.000000,44859.000000
8898.000000,4785.000000,2146.000000,44827.000000
8911.000000,4841.000000,2149.000000,44829.000000
8928.000000,4849.000000,2131.000000,44835.000000
8919.000000,4859.000000,2074.000000,44868.000000
8970.000000,4807.000000,2166.000000,44894.000000
8940.000000,4854.000000,2095.000000,44866.000000
8918.000000,4849.000000,2119.000000,44891.000000
8954.000000,4860.000000,2066.000000,44906.000000
8933.000000,4849.000000,2116.000000,44900.000000
8967.000000,4865.000000,2067.000000,44895.000000
8956.000000,4854.000000,2134.000000,44863.000000
9012.000000,4911.000000,2184.000000,44888.000000
9001.000000,4933.000000,2121.000000,44925.000000
8992.000000,4907.000000,2208.000000,44914.000000
9037.000000,4912.000000,2157.000000,44928.000000
8979.000000,4898.000000,2169.000000,44903.000000
9056.000000,4939.000000,2181.000000,44921.000000
9040.000000,4939.000000,2167.000000,44979.000000
9082.000000,4931.000000,2165.000000,44957.000000
9083.000000,4904.000000,2178.000000,44974.000000
9085.000000,5000.000000,2141.000000,44992.000000
9134.000000,4975.000000,2223.000000,45016.000000
9130.000000,5016.000000,2168.000000,45023.000000
9163.000000,4996.000000,2240.000000,45091.000000
9179.000000,5011.000000,2179.000000,45034.000000
9247.000000,5007.000000,2295.000000,45062.000000
9242.000000,5076.000000,2320.000000,45069.000000
9286.000000,5051.000000,2287.000000,45119.000000
9351.000000,5131.000000,2326.000000,45134.000000
9368.000000,5144.000000,2308.000000,45151.000000
9459.000000,5145.000000,2398.000000,45226.000000
9482.000000,5178.000000,2432.000000,45209.000000
9542.000000,5198.000000,2426.000000,45279.000000
9564.000000,5256.000000,2467.000000,45280.000000
9602.000000,5250.000000,2514.000000,45331.000000
9720.000000,5333.000000,2568.000000,45317.000000
9685.000000,5318.000000,2596.000000,45321.000000
9733.000000,5389.000000,2610.000000,45361.000000
9710.000000,5435.000000,2722.000000,45393.000000
9819.000000,5435.000000,2679.000000,45389.000000
9850.000000,5407.000000,2792.000000,45417.000000
9816.000000,5401.000000,2795.000000,45391.000000
9815.000000,5459.000000,2836.000000,45428.000000
9788.000000,5496.000000,2873.000000,45365.000000
9804.000000,5431.000000,2840.000000,45395.000000
9827.000000,5415.000000,2891.000000,45420.000000
9808.000000,5423.000000,2871.000000,45397.000000
9776.000000,5347.000000,2880.000000,45463.000000
9793.000000,5420.000000,2971.000000,45379.000000
9765.000000,5387.000000,2874.000000,45432.000000
9786.000000,5431.000000,2965.000000,45388.000000
9724.000000,5465.000000,2884.000000,45363.000000
9790.000000,5455.000000,2930.000000,45389.000000
9746.000000,5483.000000,2855.000000,45348.000000
9784.000000,5423.000000,2879.000000,45380.000000
9814.000000,5446.000000,2849.000000,45396.000000
9762.000000,5423.000000,2838.000000,45349.000000
9754.000000,5431.000000,2897.000000,45335.000000
9745.000000,5477.000000,2842.000000,45331.000000
9749.000000,5401.000000,2927.000000,45360.000000
9800.000000,5389.000000,2821.000000,45400.000000
9731.000000,5407.000000,2805.000000,45382.000000
9757.000000,5330.000000,2833.000000,45429.000000
9703.000000,5395.000000,2772.000000,45328.000000
9693.000000,5350.000000,2796.000000,45374.000000
9708.000000,5415.000000,2789.000000,45344.000000
9717.000000,5379.000000,2783.000000,45309.000000
9760.000000,5388.000000,2772.000000,45327.000000
9689.000000,5425.000000,2773.000000,45331.000000
9703.000000,5340.000000,2749.000000,45338.000000
9719.000000,5389.000000,2732.000000,45370.000000
9659.000000,5376.000000,2791.000000,45302.000000
9690.000000,5409.000000,2749.000000,45351.000000
9738.000000,5439.000000,2747.000000,45338.000000
9696.000000,5360.000000,2828.000000,45335.000000
9698.000000,5335.000000,2742.000000,45355.000000
9674.000000,5401.000000,2793.000000,45314.000000
9681.000000,5370.000000,2742.000000,45365.000000
9668.000000,5376.000000,2697.000000,45345.000000
9687.000000,5352.000000,2708.000000,45355.000000
9641.000000,5409.000000,2706.000000,45301.000000
9664.000000,5357.000000,2734.000000,45300.000000
9628.000000,5371.000000,2691.000000,45332.000000
9605.000000,5387.000000,2719.000000,45297.000000
9600.000000,5364.000000,2690.000000,45313.000000
9634.000000,5421.000000,2652.000000,45327.000000
9552.000000,5372.000000,2646.000000,45311.000000
9545.000000,5375.000000,2611.000000,45304.000000
9593.000000,5381.000000,2646.000000,45314.000000
9577.000000,5407.000000,2616.000000,45268.000000
9518.000000,5344.000000,2625.000000,45269.000000
9546.000000,5397.000000,2616.000000,45272.000000
9545.000000,5356.000000,2624.000000,45289.000000
9549.000000,5357.000000,2639.000000,45247.000000
9503.000000,5338.000000,2602.000000,45247.000000
9516.000000,5380.000000,2625.000000,45252.000000
9498.000000,5371.000000,2538.000000,45268.000000
9481.000000,5359.000000,2595.000000,45267.000000
9492.000000,5365.000000,2569.000000,45235.000000
9465.000000,5324.000000,2563.000000,45225.000000
9444.000000,5358.000000,2539.000000,45222.000000
9421.000000,5360.000000,2549.000000,45243.000000
9453.000000,5360.000000,2535.000000,45238.000000
9463.000000,5343.000000,2535.000000,45251.000000
9453.000000,5359.000000,2497.000000,45241.000000
9389.000000,5348.000000,2504.000000,45174.000000
9388.000000,5322.000000,2484.000000,45202.000000
9387.000000,5333.000000,2426.000000,45209.000000
9404.000000,5329.000000,2457.000000,45206.000000
9330.000000,5314.000000,2467.000000,45175.000000
9377.000000,5307.000000,2436.000000,45191.000000
9371.000000,5333.000000,2464.000000,45218.000000
9381.000000,5288.000000,2442.000000,45171.000000
9357.000000,5301.000000,2417.000000,45178.000000
9341.000000,5356.000000,2420.000000,45140.000000
9331.000000,5284.000000,2421.000000,45156.000000
9330.000000,5313.000000,2394.000000,45115.000000
9295.000000,5282.000000,2366.000000,45132.000000
9268.000000,5348.000000,2351.000000,45085.000000
9261.000000,5251.000000,2349.000000,45141.000000
9297.000000,5281.000000,2345.000000,45149.000000
9233.000000,5284.000000,2325.000000,45137.000000
9254.000000,5254.000000,2312.000000,45115.000000
9258.000000,5260.000000,2275.000000,45130.000000
9177.000000,5253.000000,2307.000000,45058.000000
9172.000000,5237.000000,2257.000000,45099.000000
9208.000000,5226.000000,2271.000000,45087.000000
9226.000000,5269.000000,2268.000000,45109.000000
9197.000000,5206.000000,2272.000000,45078.000000
9232.000000,5274.000000,2260.000000,45080.000000
9161.000000,5194.000000,2232.000000,45053.000000
9213.000000,5248.000000,2195.000000,45129.000000
9192.000000,5220.000000,2284.000000,45074.000000
9227.000000,5192.000000,2221.000000,45083.000000
9178.000000,5276.000000,2243.000000,45071.000000
9200.000000,5231.000000,2216.000000,45086.000000
9179.000000,5242.000000,2177.000000,45081.000000
9163.000000,5252.000000,2212.000000,45034.000000
9114.000000,5209.000000,2179.000000,45035.000000
9159.000000,5183.000000,2256.000000,45055.000000
9115.000000,5168.000000,2239.000000,45039.000000
9085.000000,5179.000000,2173.000000,45019.000000
9161.000000,5145.000000,2185.000000,45092.000000
9088.000000,5216.000000,2134.000000,45014.000000
9105.000000,5207.000000,2187.000000,45013.000000
9099.000000,5204.000000,2133.000000,45015.000000
9124.000000,5227.000000,2157.000000,45005.000000
9171.000000,5230.000000,2116.000000,45021.000000
9149.000000,5262.000000,2146.000000,45066.000000
9187.000000,5221.000000,2130.000000,45019.000000
9238.000000,5234.000000,2100.000000,45062.000000
9199.000000,5333.000000,2116.000000,45048.000000
9239.000000,5256.000000,2082.000000,45082.000000
9319.000000,5281.000000,2146.000000,45149.000000
9257.000000,5250.000000,2097.000000,45109.000000
9329.000000,5235.000000,2112.000000,45140.000000
9259.000000,5282.000000,2114.000000,45142.000000
9322.000000,5319.000000,2119.000000,45162.000000
9248.000000,5309.000000,2078.000000,45120.000000
9303.000000,5242.000000,2164.000000,45137.000000
9281.000000,5300.000000,2133.000000,45133.000000
9291.000000,5293.000000,2180.000000,45111.000000
9335.000000,5307.000000,2151.000000,45132.000000
9282.000000,5294.000000,2184.000000,45145.000000
9366.000000,5326.000000,2168.000000,45160.000000
9354.000000,5340.000000,2225.000000,45178.000000
9375.000000,5312.000000,2242.000000,45216.000000
9384.000000,5342.000000,2192.000000,45223.000000
9398.000000,5294.000000,2239.000000,45214.000000
9403.000000,5391.000000,2276.000000,45253.000000
9421.000000,5487.000000,2250.000000,45237.000000
9455.000000,5447.000000,2308.000000,45239.000000
9488.000000,5465.000000,2310.000000,45246.000000
9518.000000,5455.000000,2290.000000,45297.000000
9548.000000,5507.000000,2349.000000,45292.000000
9584.000000,5535.000000,2319.000000,45330.000000
9663.000000,5567.000000,2414.000000,45351.000000
9727.000000,5585.000000,2409.000000,45388.000000
9729.000000,5589.000000,2497.000000,45393.000000
9839.000000,5624.000000,2532.000000,45466.000000
9837.000000,5692.000000,2481.000000,45453.000000
10137.000000,5656.000000,2603.000000,45543.000000
9949.000000,5719.000000,2576.000000,45493.000000
9989.000000,5705.000000,2698.000000,45499.000000
10027.000000,5750.000000,2659.000000,45531.000000
10046.000000,5744.000000,2750.000000,45519.000000
10041.000000,5767.000000,2903.000000,45548.000000
10074.000000,5743.000000,2926.000000,45521.000000
10095.000000,5772.000000,3020.000000,45527.000000
10053.000000,5773.000000,3060.000000,45546.000000
10044.000000,5726.000000,3024.000000,45530.000000
10073.000000,5788.000000,3093.000000,45520.000000
9956.000000,5781.000000,3073.000000,45451.000000
10014.000000,5720.000000,3191.000000,45494.000000
10058.000000,5761.000000,3165.000000,45526.000000
9986.000000,6007.000000,3110.000000,45476.000000
10020.000000,5678.000000,3178.000000,45519.000000
9968.000000,5710.000000,3139.000000,45475.000000
9889.000000,5732.000000,3159.000000,45388.000000
9956.000000,5738.000000,3149.000000,45477.000000
9923.000000,5733.000000,3142.000000,45411.000000
9973.000000,5693.000000,3111.000000,45483.000000
9955.000000,5705.000000,3146.000000,45501.000000
10019.000000,5656.000000,3073.000000,45489.000000
9974.000000,5706.000000,3123.000000,45472.000000
9905.000000,5657.000000,3150.000000,45467.000000
9967.000000,5697.000000,3086.000000,45443.000000
9880.000000,5707.000000,3155.000000,45363.000000
9964.000000,5654.000000,3109.000000,45449.000000
9892.000000,5708.000000,3105.000000,45377.000000
10007.000000,5634.000000,3165.000000,45443.000000
9974.000000,5663.000000,3121.000000,45494.000000
9962.000000,5675.000000,3176.000000,45397.000000
9949.000000,5654.000000,3119.000000,45474.000000
9970.000000,5651.000000,3065.000000,45427.000000
9982.000000,5665.000000,3092.000000,45445.000000
9933.000000,5621.000000,3079.000000,45440.000000
9922.000000,5662.000000,3111.000000,45408.000000
9861.000000,5664.000000,3093.000000,45416.000000
9954.000000,5639.000000,3124.000000,45415.000000
9854.000000,5737.000000,3062.000000,45321.000000
10171.000000,5627.000000,3115.000000,45392.000000
9988.000000,5649.000000,3060.000000,45448.000000
9929.000000,5638.000000,3071.000000,45390.000000
9955.000000,5527.000000,3066.000000,45436.000000
9918.000000,5617.000000,2999.000000,45379.000000
9926.000000,5572.000000,3066.000000,45393.000000
9895.000000,5602.000000,3002.000000,45375.000000
9873.000000,5584.000000,3101.000000,45368.000000
9850.000000,5560.000000,3057.000000,45407.000000
9907.000000,5599.000000,3072.000000,45420.000000
9822.000000,5623.000000,3093.000000,45297.000000
9887.000000,5585.000000,3075.000000,45344.000000
9977.000000,5587.000000,3049.000000,45379.000000
9889.000000,5599.000000,3024.000000,45364.000000
9919.000000,5491.000000,3041.000000,45407.000000
9854.000000,5565.000000,3074.000000,45334.000000
9866.000000,5558.000000,3047.000000,45353.000000
9863.000000,5548.000000,2979.000000,45313.000000
9904.000000,5543.000000,3035.000000,45400.000000
9892.000000,5537.000000,2992.000000,45309.000000
9906.000000,5503.000000,3035.000000,45381.000000
9829.000000,5527.000000,3024.000000,45314.000000
9886.000000,5460.000000,3021.000000,45331.000000
9880.000000,5527.000000,2997.000000,45309.000000
9824.000000,5527.000000,3006.000000,45312.000000
9847.000000,5471.000000,2982.000000,45336.000000
9825.000000,5527.000000,2989.000000,45276.000000
9837.000000,5631.000000,2977.000000,45265.000000
9795.000000,5479.000000,2964.000000,45278.000000
9915.000000,5416.000000,2981.000000,45458.000000
9788.000000,5473.000000,3022.000000,45247.000000
9764.000000,5387.000000,2958.000000,45263.000000
9733.000000,5449.000000,2966.000000,45215.000000
9740.000000,5366.000000,2971.000000,45270.000000
9754.000000,5464.000000,2998.000000,45221.000000
9779.000000,5436.000000,2932.000000,45238.000000
9689.000000,5424.000000,2893.000000,45225.000000
9780.000000,5477.000000,2963.000000,45276.000000
9785.000000,5522.000000,2922.000000,45143.000000
9734.000000,5385.000000,2888.000000,45165.000000
9877.000000,5415.000000,2908.000000,45262.000000
9707.000000,5427.000000,2844.000000,45174.000000
9792.000000,5264.000000,2853.000000,45270.000000
9724.000000,5421.000000,2856.000000,45181.000000
9816.000000,5383.000000,2872.000000,45304.000000
9739.000000,5409.000000,2853.000000,45172.000000
9757.000000,5268.000000,2807.000000,45268.000000
9665.000000,5393.000000,2889.000000,45161.000000
9670.000000,5311.000000,2788.000000,45163.000000
9692.000000,5389.000000,2799.000000,45147.000000
9689.000000,5336.000000,2820.000000,45114.000000
9661.000000,5311.000000,2771.000000,45138.000000
9673.000000,5368.000000,2760.000000,45176.000000
9755.000000,5419.000000,2780.000000,45135.000000
9687.000000,5354.000000,2779.000000,45150.000000
9774.000000,5250.000000,2740.000000,45246.000000
9668.000000,5351.000000,2716.000000,45154.000000
9727.000000,5121.000000,2651.000000,45271.000000
9691.000000,5311.000000,2658.000000,45128.000000
9714.000000,5303.000000,2645.000000,45220.000000
9695.000000,5311.000000,2648.000000,45121.000000
9773.000000,5279.000000,2637.000000,45236.000000
9688.000000,5304.000000,2692.000000,45117.000000
9727.000000,5235.000000,2626.000000,45142.000000
9656.000000,5412.000000,2652.000000,45068.000000
9705.000000,5270.000000,2629.000000,45137.000000
9691.000000,5265.000000,2590.000000,45081.000000
9680.000000,5292.000000,2628.000000,45090.000000
9522.000000,5384.000000,2595.000000,45040.000000
9664.000000,5261.000000,2620.000000,45116.000000
9776.000000,5312.000000,2573.000000,45212.000000
9646.000000,5295.000000,2579.000000,45097.000000
9818.000000,5223.000000,2531.000000,45303.000000
9646.000000,5269.000000,2590.000000,45099.000000
9596.000000,5373.000000,2521.000000,45069.000000
9670.000000,5313.000000,2600.000000,45126.000000
9663.000000,5314.000000,2535.000000,45118.000000
9669.000000,5289.000000,2546.000000,45118.000000
9691.000000,5325.000000,2517.000000,45136.000000
9588.000000,5353.000000,2522.000000,45094.000000
9676.000000,5328.000000,2465.000000,45158.000000
9649.000000,5267.000000,2456.000000,45172.000000
9706.000000,5339.000000,2487.000000,45123.000000
9548.000000,5419.000000,2448.000000,45045.000000
9727.000000,5364.000000,2510.000000,45182.000000
9674.000000,5558.000000,2428.000000,45078.000000
9735.000000,5352.000000,2428.000000,45178.000000
9852.000000,5367.000000,2486.000000,45303.000000
9747.000000,5365.000000,2487.000000,45175.000000
9674.000000,5445.000000,2544.000000,45088.000000
9783.000000,5415.000000,2584.000000,45223.000000
9755.000000,5512.000000,2568.000000,45140.000000
9819.000000,5392.000000,2598.000000,45277.000000
9758.000000,5500.000000,2574.000000,45251.000000
9751.000000,5433.000000,2626.000000,45213.000000
9834.000000,5456.000000,2609.000000,45253.000000
9923.000000,5293.000000,2574.000000,45376.000000
9855.000000,5479.000000,2657.000000,45300.000000
9782.000000,5456.000000,2623.000000,45220.000000
9931.000000,5523.000000,2715.000000,45324.000000
9816.000000,5695.000000,2677.000000,45145.000000
9958.000000,5543.000000,2683.000000,45327.000000
10005.000000,5511.000000,2665.000000,45375.000000
10044.000000,5587.000000,2731.000000,45391.000000
10085.000000,5567.000000,2765.000000,45476.000000
10063.000000,5636.000000,2745.000000,45471.000000
10099.000000,5607.000000,2756.000000,45429.000000
10256.000000,5654.000000,2798.000000,45526.000000
10212.000000,5734.000000,2809.000000,45509.000000
10231.000000,5817.000000,2874.000000,45511.000000
10246.000000,5774.000000,2869.000000,45538.000000
10373.000000,5829.000000,2923.000000,45584.000000
10264.000000,5761.000000,2959.000000,45531.000000
10379.000000,5583.000000,2975.000000,45712.000000
10303.000000,5809.000000,3026.000000,45522.000000
10257.000000,5755.000000,3073.000000,45525.000000
10278.000000,5762.000000,3154.000000,45525.000000
10361.000000,5779.000000,3197.000000,45624.000000
10270.000000,5738.000000,3277.000000,45529.000000
10325.000000,5731.000000,3304.000000,45571.000000
10215.000000,5831.000000,3372.000000,45516.000000
10281.000000,5674.000000,3353.000000,45547.000000
10244.000000,5730.000000,3312.000000,45479.000000
10284.000000,5729.000000,3393.000000,45503.000000
10083.000000,5770.000000,3373.000000,45437.000000
10274.000000,5693.000000,3438.000000,45476.000000
10265.000000,5841.000000,3411.000000,45449.000000
10248.000000,5647.000000,3403.000000,45456.000000
10366.000000,5666.000000,3424.000000,45613.000000
10229.000000,5663.000000,3431.000000,45445.000000
10066.000000,5733.000000,3416.000000,45351.000000
10228.000000,5627.000000,3451.000000,45436.000000
10142.000000,5658.000000,3393.000000,45400.000000
10200.000000,5634.000000,3469.000000,45451.000000
10155.000000,5691.000000,3433.000000,45521.000000
10080.000000,5609.000000,3415.000000,45448.000000
10156.000000,5627.000000,3379.000000,45473.000000
10189.000000,5487.000000,3400.000000,45547.000000
10170.000000,5647.000000,3359.000000,45451.000000
10015.000000,5607.000000,3349.000000,45383.000000
10157.000000,5631.000000,3366.000000,45392.000000
10030.000000,5818.000000,3351.000000,45263.000000
10140.000000,5640.000000,3357.000000,45383.000000
10103.000000,5593.000000,3385.000000,45377.000000
10110.000000,5580.000000,3339.000000,45407.000000
10059.000000,5530.000000,3388.000000,45287.000000
10092.000000,5578.000000,3369.000000,45418.000000
10049.000000,5653.000000,3339.000000,45343.000000
10083.000000,5508.000000,3400.000000,45373.000000
10066.000000,5539.000000,3353.000000,45374.000000
10084.000000,5504.000000,3349.000000,45391.000000
10119.000000,5541.000000,3341.000000,45371.000000
10160.000000,5381.000000,3335.000000,45508.000000
10089.000000,5536.000000,3332.000000,45376.000000
9923.000000,5591.000000,3338.000000,45217.000000
10065.000000,5493.000000,3343.000000,45384.000000
9988.000000,5627.000000,3339.000000,45231.000000
10064.000000,5504.000000,3296.000000,45332.000000
10058.000000,5407.000000,3345.000000,45346.000000
10011.000000,5512.000000,3308.000000,45323.000000
9984.000000,5471.000000,3321.000000,45296.000000
10077.000000,5532.000000,3332.000000,45328.000000
9995.000000,5545.000000,3355.000000,45231.000000
10032.000000,5465.000000,3369.000000,45369.000000
10009.000000,5495.000000,3302.000000,45338.000000
10103.000000,5487.000000,3314.000000,45347.000000
9987.000000,5492.000000,3328.000000,45312.000000
10046.000000,5346.000000,3301.000000,45411.000000
9975.000000,5514.000000,3363.000000,45314.000000
9920.000000,5324.000000,3306.000000,45331.000000
9923.000000,5487.000000,3329.000000,45290.000000
10066.000000,5394.000000,3295.000000,45424.000000
9926.000000,5447.000000,3295.000000,45297.000000
10024.000000,5375.000000,3275.000000,45352.000000
9895.000000,5436.000000,3331.000000,45285.000000
9932.000000,5345.000000,3278.000000,45295.000000
9881.000000,5492.000000,3307.000000,45246.000000
9931.000000,5451.000000,3294.000000,45268.000000
9775.000000,5451.000000,3334.000000,45193.000000
10157.000000,5415.000000,3272.000000,45260.000000
9951.000000,5491.000000,3289.000000,45222.000000
9889.000000,5403.000000,3259.000000,45245.000000
10063.000000,5415.000000,3235.000000,45374.000000
9869.000000,5407.000000,3307.000000,45236.000000
9846.000000,5381.000000,3237.000000,45263.000000
9859.000000,5379.000000,3277.000000,45239.000000
9774.000000,5457.000000,3256.000000,45137.000000
9843.000000,5381.000000,3287.000000,45213.000000
9839.000000,5428.000000,3236.000000,45257.000000
9836.000000,5336.000000,3230.000000,45216.000000
9808.000000,5350.000000,3204.000000,45182.000000
9820.000000,5357.000000,3206.000000,45191.000000
9819.000000,5316.000000,3217.000000,45153.000000
9805.000000,5193.000000,3207.000000,45238.000000
9732.000000,5301.000000,3199.000000,45144.000000
9547.000000,5365.000000,3214.000000,45000.000000
9726.000000,5291.000000,3155.000000,45191.000000
9606.000000,5456.000000,3178.000000,45004.000000
9726.000000,5290.000000,3161.000000,45143.000000
9571.000000,5286.000000,3161.000000,45025.000000
9707.000000,5286.000000,3126.000000,45123.000000
9604.000000,5317.000000,3140.000000,45034.000000
9638.000000,5273.000000,3148.000000,45100.000000
9634.000000,5364.000000,3097.000000,45096.000000
9676.000000,5229.000000,3149.000000,45112.000000
9672.000000,5234.000000,3119.000000,45069.000000
9723.000000,5229.000000,3119.000000,45139.000000
9648.000000,5250.000000,3052.000000,45095.000000
9648.000000,5099.000000,3094.000000,45219.000000
9649.000000,5216.000000,3093.000000,45107.000000
9474.000000,5355.000000,3066.000000,44911.000000
9638.000000,5214.000000,3018.000000,45085.000000
9725.000000,5160.000000,3068.000000,45156.000000
9659.000000,5238.000000,2996.000000,45091.000000
9637.000000,5169.000000,3019.000000,45039.000000
9644.000000,5202.000000,2963.000000,45088.000000
9549.000000,5286.000000,3035.000000,44999.000000
9674.000000,5258.000000,3048.000000,45092.000000
9616.000000,5258.000000,3055.000000,45023.000000
9648.000000,5290.000000,3023.000000,45047.000000
9616.000000,5184.000000,3007.000000,45087.000000
9713.000000,5157.000000,3020.000000,45132.000000
9618.000000,5214.000000,3004.000000,45081.000000
9468.000000,5154.000000,2981.000000,44983.000000
9608.000000,5233.000000,2902.000000,45092.000000
9547.000000,5300.000000,2954.000000,45023.000000
9583.000000,5237.000000,2926.000000,45033.000000
9546.000000,5116.000000,2953.000000,45024.000000
9577.000000,5246.000000,2939.000000,45048.000000
9513.000000,5310.000000,2934.000000,44990.000000
9613.000000,5288.000000,2960.000000,45083.000000
9539.000000,5347.000000,2911.000000,45028.000000
9631.000000,5262.000000,2906.000000,45122.000000
9597.000000,5239.000000,2993.000000,45073.000000
9688.000000,5324.000000,3007.000000,45080.000000
9591.000000,5275.000000,2975.000000,45095.000000
9499.000000,5260.000000,2997.000000,45086.000000
9602.000000,5285.000000,2965.000000,45099.000000
9435.000000,5403.000000,3062.000000,44908.000000
9613.000000,5297.000000,3003.000000,45089.000000
9541.000000,5235.000000,3072.000000,45073.000000
9627.000000,5299.000000,3035.000000,45118.000000
9582.000000,5347.000000,3107.000000,45027.000000
9656.000000,5337.000000,3086.000000,45148.000000
9614.000000,5429.000000,3117.000000,45061.000000
9661.000000,5337.000000,3104.000000,45162.000000
9737.000000,5329.000000,3112.000000,45183.000000
9802.000000,5381.000000,3110.000000,45209.000000
9721.000000,5380.000000,3114.000000,45184.000000
9761.000000,5309.000000,3173.000000,45295.000000
9797.000000,5441.000000,3184.000000,45240.000000
9617.000000,5583.000000,3209.000000,45110.000000
9826.000000,5480.000000,3282.000000,45262.000000
9905.000000,5401.000000,3278.000000,45368.000000
9924.000000,5523.000000,3277.000000,45309.000000
9929.000000,5471.000000,3303.000000,45352.000000
9962.000000,5569.000000,3273.000000,45351.000000
9932.000000,5627.000000,3322.000000,45299.000000
10049.000000,5666.000000,3337.000000,45410.000000
10049.000000,5728.000000,3463.000000,45391.000000
10090.000000,5743.000000,3416.000000,45423.000000
10142.000000,5698.000000,3480.000000,45563.000000
10248.000000,5721.000000,3566.000000,45507.000000
10164.000000,5711.000000,3531.000000,45469.000000
10202.000000,5536.000000,3653.000000,45587.000000
10177.000000,5714.000000,3657.000000,45473.000000
10135.000000,5672.000000,3689.000000,45454.000000
10150.000000,5719.000000,3742.000000,45444.000000
10267.000000,5575.000000,3704.000000,45642.000000
10128.000000,5731.000000,3731.000000,45465.000000
10133.000000,5657.000000,3735.000000,45439.000000
10137.000000,5733.000000,3746.000000,45452.000000
10150.000000,5649.000000,3730.000000,45401.000000
10138.000000,5732.000000,3718.000000,45437.000000
10203.000000,5699.000000,3731.000000,45506.000000
10060.000000,5767.000000,3703.000000,45351.000000
10119.000000,5719.000000,3791.000000,45456.000000
10274.000000,5668.000000,3684.000000,45474.000000
10146.000000,5719.000000,3671.000000,45427.000000
10141.000000,5473.000000,3661.000000,45516.000000
10105.000000,5690.000000,3735.000000,45391.000000
10258.000000,5663.000000,3621.000000,45532.000000
10108.000000,5704.000000,3704.000000,45423.000000
10169.000000,5647.000000,3651.000000,45538.000000
10127.000000,5680.000000,3670.000000,45411.000000
10129.000000,5580.000000,3605.000000,45435.000000
10063.000000,5662.000000,3637.000000,45367.000000
10104.000000,5656.000000,3576.000000,45393.000000
10043.000000,5618.000000,3577.000000,45390.000000
10059.000000,5707.000000,3646.000000,45360.000000
9975.000000,5749.000000,3601.000000,45281.000000
10030.000000,5673.000000,3627.000000,45360.000000
10190.000000,5723.000000,3559.000000,45435.000000
10019.000000,5651.000000,3527.000000,45372.000000
9976.000000,5774.000000,3535.000000,45300.000000
10002.000000,5668.000000,3466.000000,45359.000000
10046.000000,5794.000000,3507.000000,45323.000000
10003.000000,5668.000000,3494.000000,45341.000000
10141.000000,5619.000000,3473.000000,45491.000000
10020.000000,5677.000000,3533.000000,45324.000000
10094.000000,5612.000000,3509.000000,45423.000000
10049.000000,5663.000000,3501.000000,45336.000000
9981.000000,5662.000000,3553.000000,45266.000000
10044.000000,5559.000000,3459.000000,45348.000000
10024.000000,5613.000000,3466.000000,45298.000000
9885.000000,5691.000000,3450.000000,45207.000000
9977.000000,5627.000000,3353.000000,45319.000000
10007.000000,5739.000000,3411.000000,45289.000000
9958.000000,5611.000000,3470.000000,45319.000000
9846.000000,5567.000000,3411.000000,45232.000000
9941.000000,5611.000000,3397.000000,45309.000000
9942.000000,5751.000000,3372.000000,45221.000000
9947.000000,5625.000000,3337.000000,45332.000000
9875.000000,5731.000000,3420.000000,45216.000000
9920.000000,5611.000000,3329.000000,45293.000000
9958.000000,5587.000000,3359.000000,45304.000000
9938.000000,5929.000000,3373.000000,45261.000000
9930.000000,5576.000000,3290.000000,45264.000000
10019.000000,5541.000000,3331.000000,45336.000000
9911.000000,5592.000000,3324.000000,45268.000000
9853.000000,5436.000000,3266.000000,45329.000000
9916.000000,5553.000000,3328.000000,45301.000000
10059.000000,5607.000000,3301.000000,45366.000000
9937.000000,5541.000000,3225.000000,45275.000000
10043.000000,5469.000000,3285.000000,45445.000000
9909.000000,5564.000000,3169.000000,45270.000000
9899.000000,5455.000000,3278.000000,45249.000000
9866.000000,5515.000000,3239.000000,45260.000000
9863.000000,5477.000000,3154.000000,45260.000000
9875.000000,5511.000000,3210.000000,45261.000000
9819.000000,5605.000000,3182.000000,45241.000000
9746.000000,5473.000000,3249.000000,45234.000000
9831.000000,5503.000000,3130.000000,45267.000000
9789.000000,5565.000000,3218.000000,45136.000000
9838.000000,5501.000000,3098.000000,45215.000000
9823.000000,5553.000000,3143.000000,45239.000000
9810.000000,5495.000000,3220.000000,45226.000000
9638.000000,5634.000000,3140.000000,45023.000000
9838.000000,5465.000000,3185.000000,45216.000000
9771.000000,5555.000000,3121.000000,45194.000000
9798.000000,5471.000000,3090.000000,45191.000000
9851.000000,5541.000000,3133.000000,45217.000000
9766.000000,5453.000000,3035.000000,45155.000000
9729.000000,5444.000000,3034.000000,45089.000000
9835.000000,5447.000000,3060.000000,45165.000000
9782.000000,5412.000000,2938.000000,45101.000000
9753.000000,5330.000000,3033.000000,45208.000000
9737.000000,5426.000000,3099.000000,45174.000000
9603.000000,5399.000000,3044.000000,45093.000000
9735.000000,5463.000000,2857.000000,45159.000000
9665.000000,5283.000000,2999.000000,45141.000000
9666.000000,5420.000000,3018.000000,45119.000000
9643.000000,5341.000000,3003.000000,45052.000000
9663.000000,5397.000000,3024.000000,45129.000000
9692.000000,5433.000000,2971.000000,45097.000000
9591.000000,5373.000000,3000.000000,45105.000000
9678.000000,5351.000000,2955.000000,45175.000000
9661.000000,5452.000000,2910.000000,45046.000000
9627.000000,5387.000000,2864.000000,45142.000000
9789.000000,5420.000000,2953.000000,45116.000000
9609.000000,5400.000000,2905.000000,45098.000000
9609.000000,5463.000000,2920.000000,45016.000000
9587.000000,5358.000000,3031.000000,45068.000000
9721.000000,5447.000000,2895.000000,45148.000000
9603.000000,5363.000000,2825.000000,45042.000000
9711.000000,5342.000000,2870.000000,45217.000000
9548.000000,5355.000000,2769.000000,45077.000000
9616.000000,5373.000000,2853.000000,45140.000000
9557.000000,5357.000000,2869.000000,45079.000000
9515.000000,5439.000000,2861.000000,45016.000000
9565.000000,5334.000000,2837.000000,45110.000000
9565.000000,5439.000000,2842.000000,45053.000000
9404.000000,5447.000000,2850.000000,44959.000000
9513.000000,5372.000000,2880.000000,45037.000000
9582.000000,5493.000000,2844.000000,44955.000000
9535.000000,5341.000000,2692.000000,45047.000000
9393.000000,5391.000000,2838.000000,44921.000000
9558.000000,5343.000000,2728.000000,45051.000000
9485.000000,5428.000000,2874.000000,44963.000000
9559.000000,5340.000000,2843.000000,45059.000000
9574.000000,5447.000000,2868.000000,45059.000000
9534.000000,5362.000000,2809.000000,45036.000000
9523.000000,5326.000000,2876.000000,44974.000000
9581.000000,5395.000000,2808.000000,45027.000000
9565.000000,5339.000000,2982.000000,44976.000000
9655.000000,5278.000000,2924.000000,45130.000000
9595.000000,5351.000000,2953.000000,45027.000000
9408.000000,5339.000000,2936.000000,45040.000000
9589.000000,5330.000000,3004.000000,45088.000000
9805.000000,5243.000000,2982.000000,45199.000000
9589.000000,5347.000000,2878.000000,45071.000000
9684.000000,5223.000000,2981.000000,45184.000000
9672.000000,5350.000000,2848.000000,45081.000000
9674.000000,5233.000000,3007.000000,45080.000000
