660nm,730nm,850nm,940nm
17731.000000,4234.000000,10007.000000,51885.000000
17839.000000,4133.000000,10044.000000,51939.000000
17709.000000,4261.000000,10011.000000,51876.000000
17649.000000,4312.000000,10045.000000,51728.000000
17707.000000,4304.000000,10023.000000,51880.000000
17670.000000,4320.000000,9907.000000,52024.000000
17685.000000,4257.000000,9998.000000,51831.000000
17721.000000,4119.000000,10112.000000,51775.000000
17660.000000,4251.000000,9967.000000,51870.000000
17535.000000,4282.000000,9997.000000,51703.000000
17616.000000,4180.000000,9914.000000,51788.000000
17639.000000,4101.000000,9949.000000,51740.000000
17473.000000,4082.000000,9825.000000,51767.000000
17503.000000,4111.000000,9698.000000,51824.000000
17490.000000,4083.000000,9771.000000,51728.000000
17537.000000,4025.000000,9814.000000,51717.000000
17404.000000,4092.000000,9762.000000,51714.000000
17407.000000,4030.000000,9793.000000,51618.000000
17477.000000,4069.000000,9721.000000,51702.000000
17400.000000,4067.000000,9716.000000,51779.000000
17381.000000,4082.000000,9782.000000,51661.000000
17452.000000,4028.000000,9738.000000,51712.000000
17394.000000,4155.000000,9712.000000,51674.000000
17404.000000,4064.000000,9812.000000,51614.000000
17482.000000,4032.000000,9780.000000,51709.000000
17351.000000,4106.000000,9719.000000,51730.000000
17374.000000,4085.000000,9775.000000,51630.000000
17429.000000,4071.000000,9755.000000,51670.000000
17399.000000,3985.000000,9850.000000,51684.000000
17453.000000,4107.000000,9780.000000,51694.000000
17409.000000,4178.000000,9760.000000,51654.000000
17453.000000,4087.000000,9793.000000,51708.000000
17638.000000,4082.000000,9776.000000,51821.000000
17548.000000,4132.000000,9879.000000,51774.000000
17699.000000,4156.000000,9801.000000,51883.000000
17634.000000,4262.000000,9934.000000,51802.000000
17551.000000,4332.000000,9997.000000,51732.000000
17716.000000,4289.000000,9992.000000,51859.000000
17699.000000,4353.000000,9973.000000,51947.000000
17847.000000,4354.000000,10118.000000,51886.000000
17873.000000,4339.000000,10221.000000,51924.000000
17932.000000,4442.000000,10225.000000,51989.000000
18121.000000,4661.000000,10365.000000,52141.000000
18225.000000,4638.000000,10468.000000,52121.000000
18332.000000,4703.000000,10516.000000,52233.000000
18357.000000,4760.000000,10659.000000,52214.000000
18425.000000,4799.000000,10653.000000,52256.000000
18480.000000,4832.000000,10759.000000,52272.000000
18507.000000,4860.000000,10750.000000,52373.000000
18572.000000,4912.000000,10792.000000,52348.000000
18637.000000,4933.000000,10939.000000,52330.000000
18659.000000,4853.000000,10926.000000,52438.000000
18637.000000,4949.000000,10886.000000,52367.000000
18657.000000,4950.000000,10909.000000,52426.000000
18667.000000,4958.000000,10895.000000,52406.000000
18612.000000,4968.000000,10911.000000,52421.000000
18630.000000,4967.000000,10834.000000,52391.000000
18594.000000,4948.000000,10898.000000,52379.000000
18634.000000,4957.000000,10905.000000,52380.000000
18600.000000,4948.000000,10819.000000,52347.000000
18569.000000,4901.000000,10836.000000,52367.000000
18591.000000,4912.000000,10802.000000,52379.000000
18561.000000,4874.000000,10818.000000,52342.000000
18479.000000,4864.000000,10814.000000,52327.000000
18573.000000,4878.000000,10810.000000,52302.000000
18555.000000,4846.000000,10797.000000,52404.000000
18539.000000,4859.000000,10754.000000,52313.000000
18436.000000,4909.000000,10794.000000,52205.000000
18498.000000,4820.000000,10780.000000,52306.000000
18496.000000,4818.000000,10735.000000,52368.000000
18461.000000,4856.000000,10763.000000,52288.000000
18459.000000,4858.000000,10755.000000,52241.000000
18443.000000,4828.000000,10748.000000,52286.000000
18400.000000,4869.000000,10621.000000,52328.000000
18440.000000,4773.000000,10699.000000,52275.000000
18438.000000,4781.000000,10670.000000,52394.000000
18383.000000,4776.000000,10684.000000,52263.000000
18326.000000,4852.000000,10658.000000,52257.000000
18347.000000,4766.000000,10684.000000,52237.000000
18423.000000,4702.000000,10695.000000,52260.000000
18326.000000,4746.000000,10683.000000,52247.000000
18358.000000,4676.000000,10752.000000,52173.000000
18313.000000,4763.000000,10693.000000,52254.000000
18237.000000,4744.000000,10670.000000,52198.000000
18372.000000,4761.000000,10618.000000,52227.000000
18281.000000,4818.000000,10593.000000,52247.000000
18286.000000,4760.000000,10637.000000,52198.000000
18386.000000,4697.000000,10691.000000,52142.000000
18344.000000,4619.000000,10634.000000,52252.000000
18238.000000,4768.000000,10559.000000,52241.000000
18214.000000,4768.000000,10619.000000,52184.000000
18253.000000,4722.000000,10553.000000,52235.000000
18268.000000,4723.000000,10508.000000,52236.000000
18250.000000,4683.000000,10595.000000,52115.000000
18234.000000,4661.000000,10581.000000,52076.000000
18221.000000,4649.000000,10561.000000,52160.000000
18142.000000,4763.000000,10422.000000,52147.000000
18203.000000,4662.000000,10487.000000,52153.000000
18274.000000,4563.000000,10525.000000,52206.000000
18177.000000,4655.000000,10498.000000,52135.000000
18047.000000,4638.000000,10561.000000,52045.000000
18140.000000,4619.000000,10471.000000,52139.000000
18190.000000,4423.000000,10494.000000,52101.000000
18102.000000,4535.000000,10407.000000,52087.000000
17959.000000,4689.000000,10384.000000,52026.000000
18082.000000,4575.000000,10376.000000,52069.000000
18058.000000,4602.000000,10268.000000,52162.000000
18028.000000,4518.000000,10395.000000,52073.000000
17936.000000,4604.000000,10251.000000,52057.000000
17994.000000,4458.000000,10313.000000,52028.000000
17997.000000,4531.000000,10188.000000,52097.000000
17930.000000,4462.000000,10287.000000,52014.000000
18007.000000,4375.000000,10286.000000,51993.000000
17947.000000,4450.000000,10278.000000,52022.000000
17910.000000,4408.000000,10309.000000,51939.000000
17886.000000,4435.000000,10258.000000,51969.000000
17890.000000,4443.000000,10195.000000,52068.000000
17906.000000,4397.000000,10205.000000,51985.000000
17921.000000,4351.000000,10249.000000,51977.000000
17868.000000,4386.000000,10227.000000,51950.000000
17833.000000,4435.000000,10207.000000,51887.000000
17892.000000,4368.000000,10168.000000,51941.000000
17832.000000,4461.000000,10142.000000,51966.000000
17823.000000,4329.000000,10264.000000,51980.000000
17885.000000,4403.000000,10223.000000,51927.000000
17870.000000,4311.000000,10230.000000,51976.000000
17836.000000,4369.000000,10167.000000,51968.000000
17806.000000,4437.000000,10223.000000,51899.000000
17813.000000,4388.000000,10221.000000,51904.000000
17857.000000,4357.000000,10175.000000,51932.000000
17782.000000,4366.000000,10128.000000,51961.000000
17728.000000,4372.000000,10081.000000,51882.000000
17752.000000,4294.000000,10100.000000,51904.000000
17747.000000,4306.000000,10061.000000,51883.000000
17689.000000,4259.000000,10047.000000,51918.000000
17744.000000,4193.000000,10091.000000,51936.000000
17666.000000,4273.000000,10039.000000,51861.000000
17647.000000,4214.000000,10080.000000,51789.000000
17646.000000,4275.000000,10028.000000,51842.000000
17649.000000,4269.000000,10033.000000,51857.000000
17603.000000,4282.000000,10024.000000,51808.000000
17593.000000,4247.000000,10018.000000,51798.000000
17621.000000,4209.000000,10051.000000,51825.000000
17573.000000,4312.000000,9933.000000,51756.000000
17601.000000,4244.000000,9980.000000,51803.000000
17539.000000,4286.000000,9998.000000,51799.000000
17596.000000,4216.000000,10026.000000,51845.000000
17633.000000,4275.000000,9909.000000,51852.000000
17617.000000,4258.000000,9985.000000,51843.000000
17707.000000,4155.000000,10031.000000,51843.000000
17622.000000,4267.000000,10014.000000,51841.000000
17631.000000,4287.000000,9971.000000,51877.000000
17661.000000,4276.000000,10054.000000,51867.000000
17753.000000,4250.000000,10088.000000,51876.000000
17677.000000,4342.000000,10067.000000,51861.000000
17694.000000,4322.000000,10145.000000,51835.000000
17808.000000,4323.000000,10081.000000,51940.000000
17710.000000,4371.000000,10105.000000,51980.000000
17760.000000,4418.000000,10143.000000,51915.000000
17842.000000,4394.000000,10273.000000,51940.000000
17969.000000,4448.000000,10200.000000,52022.000000
17966.000000,4451.000000,10364.000000,51936.000000
18002.000000,4430.000000,10368.000000,52034.000000
18153.000000,4664.000000,10505.000000,52105.000000
18169.000000,4712.000000,10581.000000,52212.000000
18276.000000,4731.000000,10606.000000,52195.000000
18350.000000,4777.000000,10752.000000,52252.000000
18553.000000,4894.000000,10857.000000,52324.000000
18550.000000,4971.000000,10933.000000,52359.000000
18621.000000,4982.000000,11013.000000,52426.000000
18704.000000,5006.000000,10908.000000,52463.000000
18702.000000,5030.000000,11093.000000,52471.000000
18817.000000,5044.000000,11084.000000,52609.000000
18749.000000,5102.000000,11157.000000,52482.000000
18803.000000,5013.000000,11240.000000,52418.000000
18818.000000,5101.000000,11184.000000,52495.000000
18868.000000,4950.000000,11191.000000,52599.000000
18763.000000,5095.000000,11134.000000,52495.000000
18773.000000,5017.000000,11255.000000,52400.000000
18730.000000,5072.000000,11154.000000,52505.000000
18691.000000,5081.000000,11198.000000,52388.000000
18758.000000,5044.000000,11136.000000,52497.000000
18752.000000,5125.000000,11051.000000,52525.000000
18764.000000,5089.000000,11133.000000,52515.000000
18702.000000,5120.000000,11062.000000,52501.000000
18659.000000,5049.000000,11098.000000,52428.000000
18717.000000,5020.000000,11099.000000,52423.000000
18748.000000,5029.000000,11007.000000,52407.000000
18617.000000,5079.000000,10924.000000,52500.000000
18592.000000,5000.000000,11081.000000,52394.000000
18650.000000,4965.000000,10978.000000,52503.000000
18570.000000,5087.000000,11018.000000,52315.000000
18648.000000,4961.000000,11021.000000,52417.000000
18662.000000,4977.000000,10974.000000,52439.000000
18629.000000,4940.000000,11037.000000,52396.000000
18653.000000,4937.000000,10908.000000,52417.000000
18582.000000,4986.000000,11016.000000,52384.000000
18581.000000,4847.000000,11033.000000,52355.000000
18531.000000,4914.000000,10974.000000,52331.000000
18649.000000,4775.000000,10904.000000,52481.000000
18473.000000,4908.000000,10879.000000,52326.000000
18356.000000,4909.000000,10840.000000,52244.000000
18448.000000,4851.000000,10837.000000,52344.000000
18378.000000,4957.000000,10778.000000,52260.000000
18415.000000,4859.000000,10834.000000,52334.000000
18522.000000,4819.000000,10678.000000,52451.000000
18388.000000,4850.000000,10788.000000,52312.000000
18352.000000,4762.000000,10937.000000,52128.000000
18390.000000,4802.000000,10744.000000,52270.000000
18302.000000,4937.000000,10601.000000,52402.000000
18378.000000,4819.000000,10740.000000,52261.000000
18403.000000,4772.000000,10767.000000,52298.000000
18324.000000,4782.000000,10721.000000,52263.000000
18390.000000,4681.000000,10771.000000,52290.000000
18286.000000,4737.000000,10712.000000,52277.000000
18180.000000,4846.000000,10541.000000,52300.000000
18297.000000,4699.000000,10617.000000,52186.000000
18230.000000,4635.000000,10549.000000,52187.000000
18186.000000,4655.000000,10542.000000,52172.000000
18260.000000,4570.000000,10619.000000,52153.000000
18139.000000,4655.000000,10543.000000,52177.000000
18119.000000,4671.000000,10480.000000,52166.000000
18130.000000,4594.000000,10564.000000,52130.000000
18150.000000,4561.000000,10526.000000,52175.000000
18026.000000,4602.000000,10436.000000,52112.000000
18062.000000,4568.000000,10431.000000,52102.000000
18117.000000,4515.000000,10379.000000,52164.000000
18036.000000,4546.000000,10404.000000,52022.000000
18074.000000,4370.000000,10505.000000,52008.000000
18041.000000,4524.000000,10406.000000,52052.000000
17845.000000,4549.000000,10427.000000,51958.000000
17976.000000,4458.000000,10336.000000,52031.000000
17927.000000,4557.000000,10155.000000,52113.000000
17887.000000,4409.000000,10271.000000,52029.000000
18080.000000,4248.000000,10419.000000,51952.000000
17899.000000,4395.000000,10242.000000,52000.000000
17883.000000,4385.000000,10293.000000,51924.000000
17866.000000,4406.000000,10206.000000,51990.000000
17992.000000,4238.000000,10246.000000,51937.000000
17822.000000,4368.000000,10154.000000,51950.000000
17926.000000,4285.000000,10130.000000,52135.000000
17842.000000,4320.000000,10125.000000,51929.000000
17790.000000,4323.000000,10047.000000,52023.000000
17760.000000,4285.000000,10117.000000,51914.000000
17866.000000,4191.000000,10272.000000,51849.000000
17791.000000,4329.000000,10066.000000,51930.000000
17732.000000,4295.000000,10017.000000,51967.000000
17709.000000,4281.000000,10047.000000,51911.000000
17665.000000,4352.000000,9970.000000,51942.000000
17779.000000,4294.000000,10054.000000,51902.000000
17832.000000,4157.000000,10079.000000,51918.000000
17651.000000,4208.000000,9979.000000,51874.000000
17691.000000,4157.000000,10040.000000,51799.000000
17653.000000,4192.000000,10008.000000,51843.000000
17699.000000,4171.000000,9942.000000,51861.000000
17654.000000,4114.000000,9958.000000,51839.000000
17585.000000,4153.000000,9830.000000,51822.000000
17553.000000,4116.000000,9856.000000,51826.000000
17527.000000,4109.000000,9926.000000,51809.000000
17430.000000,4146.000000,9860.000000,51723.000000
17499.000000,4125.000000,9827.000000,51763.000000
17536.000000,4193.000000,9706.000000,51861.000000
17498.000000,4099.000000,9811.000000,51753.000000
17605.000000,3947.000000,9878.000000,51770.000000
17482.000000,4085.000000,9803.000000,51750.000000
17300.000000,4234.000000,9734.000000,51690.000000
17499.000000,4139.000000,9846.000000,51772.000000
17618.000000,4038.000000,9729.000000,51902.000000
17526.000000,4114.000000,9829.000000,51776.000000
17460.000000,4223.000000,9647.000000,51890.000000
17503.000000,4101.000000,9814.000000,51750.000000
17676.000000,3937.000000,9970.000000,51786.000000
17544.000000,4116.000000,9826.000000,51757.000000
17401.000000,4134.000000,9943.000000,51597.000000
17580.000000,4131.000000,9861.000000,51787.000000
17487.000000,4295.000000,9766.000000,51873.000000
17624.000000,4191.000000,9905.000000,51824.000000
17641.000000,4206.000000,9784.000000,52001.000000
17743.000000,4261.000000,10021.000000,51870.000000
17803.000000,4167.000000,10131.000000,51855.000000
17806.000000,4348.000000,10102.000000,51925.000000
17826.000000,4369.000000,10206.000000,51896.000000
17921.000000,4402.000000,10173.000000,51974.000000
17939.000000,4403.000000,10301.000000,51916.000000
18034.000000,4494.000000,10309.000000,52054.000000
18067.000000,4604.000000,10273.000000,52175.000000
18219.000000,4560.000000,10431.000000,52151.000000
18207.000000,4619.000000,10508.000000,52181.000000
18361.000000,4703.000000,10574.000000,52209.000000
18474.000000,4788.000000,10772.000000,52319.000000
18553.000000,4875.000000,10781.000000,52385.000000
18596.000000,4903.000000,10857.000000,52366.000000
18605.000000,4973.000000,10867.000000,52402.000000
18660.000000,4920.000000,10956.000000,52443.000000
18778.000000,4854.000000,11009.000000,52482.000000
18679.000000,4958.000000,10969.000000,52386.000000
18591.000000,4987.000000,11034.000000,52375.000000
18709.000000,5003.000000,10982.000000,52388.000000
18763.000000,5023.000000,10813.000000,52531.000000
18706.000000,4982.000000,10972.000000,52427.000000
18814.000000,4764.000000,11062.000000,52448.000000
18673.000000,4943.000000,10951.000000,52461.000000
18832.000000,4858.000000,10860.000000,52580.000000
18655.000000,4888.000000,10915.000000,52422.000000
18514.000000,4995.000000,10856.000000,52388.000000
18587.000000,4891.000000,10894.000000,52391.000000
18492.000000,5085.000000,10696.000000,52485.000000
18578.000000,4904.000000,10882.000000,52373.000000
18682.000000,4769.000000,10854.000000,52497.000000
18540.000000,4859.000000,10834.000000,52350.000000
18615.000000,4796.000000,10819.000000,52363.000000
18522.000000,4872.000000,10813.000000,52342.000000
18568.000000,4701.000000,10906.000000,52259.000000
18507.000000,4819.000000,10779.000000,52342.000000
18468.000000,4837.000000,10794.000000,52234.000000
18475.000000,4822.000000,10764.000000,52315.000000
18393.000000,4808.000000,10791.000000,52230.000000
18482.000000,4784.000000,10751.000000,52292.000000
18483.000000,4775.000000,10670.000000,52421.000000
18429.000000,4761.000000,10660.000000,52280.000000
18396.000000,4708.000000,10729.000000,52178.000000
18467.000000,4748.000000,10582.000000,52264.000000
18370.000000,4752.000000,10638.000000,52218.000000
18382.000000,4749.000000,10594.000000,52233.000000
18307.000000,4690.000000,10636.000000,52221.000000
18382.000000,4645.000000,10675.000000,52190.000000
18313.000000,4670.000000,10568.000000,52232.000000
18248.000000,4668.000000,10647.000000,52099.000000
18324.000000,4652.000000,10626.000000,52207.000000
18222.000000,4591.000000,10650.000000,52148.000000
18283.000000,4691.000000,10569.000000,52234.000000
18269.000000,4744.000000,10413.000000,52257.000000
18282.000000,4647.000000,10525.000000,52190.000000
18477.000000,4552.000000,10428.000000,52330.000000
18245.000000,4643.000000,10498.000000,52196.000000
18313.000000,4643.000000,10367.000000,52328.000000
18237.000000,4576.000000,10496.000000,52170.000000
18016.000000,4631.000000,10560.000000,51975.000000
18181.000000,4573.000000,10472.000000,52151.000000
18171.000000,4534.000000,10636.000000,51965.000000
18168.000000,4550.000000,10463.000000,52166.000000
18010.000000,4740.000000,10308.000000,52092.000000
18191.000000,4524.000000,10439.000000,52146.000000
18164.000000,4653.000000,10234.000000,52298.000000
18147.000000,4499.000000,10386.000000,52139.000000
18076.000000,4639.000000,10214.000000,52216.000000
18060.000000,4448.000000,10346.000000,52077.000000
18009.000000,4578.000000,10181.000000,52128.000000
18052.000000,4445.000000,10266.000000,52067.000000
18075.000000,4349.000000,10308.000000,52026.000000
18015.000000,4425.000000,10246.000000,52040.000000
18050.000000,4318.000000,10282.000000,51969.000000
18005.000000,4372.000000,10160.000000,52060.000000
18020.000000,4366.000000,10195.000000,52056.000000
17978.000000,4366.000000,10124.000000,52023.000000
17934.000000,4403.000000,10161.000000,52017.000000
17956.000000,4443.000000,10149.000000,51980.000000
17917.000000,4374.000000,10203.000000,51944.000000
17841.000000,4290.000000,10240.000000,51901.000000
17861.000000,4330.000000,10112.000000,51968.000000
17970.000000,4170.000000,10092.000000,52066.000000
17831.000000,4269.000000,10074.000000,51956.000000
17685.000000,4243.000000,10225.000000,51832.000000
17826.000000,4287.000000,10094.000000,51943.000000
17699.000000,4465.000000,9866.000000,51952.000000
17819.000000,4295.000000,10038.000000,51946.000000
18007.000000,4234.000000,9959.000000,52129.000000
17811.000000,4306.000000,10058.000000,51896.000000
17877.000000,4323.000000,9910.000000,52165.000000
17841.000000,4264.000000,10069.000000,51948.000000
17616.000000,4377.000000,9989.000000,51752.000000
17715.000000,4222.000000,9959.000000,51880.000000
17714.000000,4228.000000,9887.000000,52030.000000
17640.000000,4195.000000,9896.000000,51860.000000
17709.000000,4149.000000,9862.000000,51963.000000
17649.000000,4184.000000,9919.000000,51854.000000
17586.000000,4114.000000,10034.000000,51720.000000
17554.000000,4141.000000,9899.000000,51785.000000
17495.000000,4177.000000,9864.000000,51727.000000
17586.000000,4068.000000,9831.000000,51809.000000
17513.000000,4173.000000,9809.000000,51844.000000
17531.000000,4102.000000,9887.000000,51798.000000
17593.000000,4181.000000,9884.000000,51804.000000
17508.000000,4094.000000,9944.000000,51814.000000
17530.000000,4148.000000,9844.000000,51870.000000
17546.000000,4237.000000,9782.000000,51780.000000
17557.000000,4122.000000,9885.000000,51833.000000
17612.000000,4061.000000,9879.000000,51823.000000
17519.000000,4117.000000,9865.000000,51797.000000
17638.000000,4002.000000,9924.000000,51776.000000
17565.000000,4137.000000,9851.000000,51789.000000
17569.000000,4333.000000,9728.000000,51944.000000
17629.000000,4164.000000,9922.000000,51857.000000
17858.000000,3971.000000,10070.000000,51841.000000
17762.000000,4242.000000,9987.000000,51897.000000
17746.000000,4194.000000,10234.000000,51774.000000
17845.000000,4347.000000,10106.000000,51977.000000
17764.000000,4592.000000,10026.000000,52026.000000
18022.000000,4419.000000,10216.000000,52007.000000
17924.000000,4606.000000,10242.000000,52047.000000
18142.000000,4540.000000,10349.000000,52102.000000
18339.000000,4434.000000,10514.000000,52172.000000
18500.000000,4796.000000,10767.000000,52335.000000
18501.000000,4942.000000,10659.000000,52434.000000
18585.000000,4863.000000,10857.000000,52357.000000
18622.000000,4870.000000,10826.000000,52485.000000
18639.000000,4885.000000,10880.000000,52428.000000
18605.000000,4975.000000,10870.000000,52463.000000
18693.000000,4910.000000,10874.000000,52452.000000
18661.000000,4916.000000,10939.000000,52349.000000
18698.000000,4918.000000,10915.000000,52457.000000
18647.000000,4941.000000,10995.000000,52410.000000
18783.000000,4874.000000,10912.000000,52442.000000
18664.000000,4895.000000,10885.000000,52510.000000
18684.000000,4888.000000,10939.000000,52387.000000
18646.000000,4896.000000,10939.000000,52423.000000
18740.000000,4729.000000,10862.000000,52470.000000
18586.000000,4867.000000,10858.000000,52386.000000
18689.000000,4777.000000,10921.000000,52446.000000
18574.000000,4851.000000,10841.000000,52398.000000
18594.000000,4909.000000,10618.000000,52472.000000
18497.000000,4831.000000,10768.000000,52342.000000
18512.000000,4924.000000,10567.000000,52496.000000
18532.000000,4800.000000,10770.000000,52310.000000
18649.000000,4658.000000,10862.000000,52365.000000
18466.000000,4809.000000,10749.000000,52335.000000
18345.000000,4824.000000,10848.000000,52130.000000
18460.000000,4787.000000,10735.000000,52332.000000
18461.000000,4770.000000,10730.000000,52342.000000
18423.000000,4767.000000,10707.000000,52302.000000
18512.000000,4751.000000,10701.000000,52389.000000
18425.000000,4777.000000,10720.000000,52306.000000
18454.000000,4677.000000,10878.000000,52183.000000
18458.000000,4783.000000,10684.000000,52304.000000
18359.000000,4744.000000,10705.000000,52214.000000
18416.000000,4736.000000,10642.000000,52296.000000
18329.000000,4847.000000,10548.000000,52344.000000
18433.000000,4719.000000,10653.000000,52295.000000
18406.000000,4717.000000,10639.000000,52319.000000
18279.000000,4799.000000,10645.000000,52276.000000
18331.000000,4704.000000,10631.000000,52253.000000
18380.000000,4696.000000,10573.000000,52271.000000
18328.000000,4648.000000,10601.000000,52245.000000
18253.000000,4582.000000,10698.000000,52155.000000
18243.000000,4647.000000,10544.000000,52180.000000
18083.000000,4766.000000,10505.000000,52089.000000
18233.000000,4648.000000,10545.000000,52220.000000
18419.000000,4610.000000,10392.000000,52318.000000
18219.000000,4590.000000,10515.000000,52175.000000
18233.000000,4622.000000,10461.000000,52214.000000
18240.000000,4562.000000,10481.000000,52189.000000
17966.000000,4674.000000,10507.000000,51998.000000
18171.000000,4544.000000,10453.000000,52158.000000
17998.000000,4522.000000,10567.000000,51992.000000
18118.000000,4529.000000,10455.000000,52155.000000
18100.000000,4621.000000,10264.000000,52222.000000
18127.000000,4549.000000,10418.000000,52101.000000
18250.000000,4345.000000,10487.000000,52147.000000
18129.000000,4483.000000,10373.000000,52130.000000
18185.000000,4454.000000,10381.000000,52221.000000
18087.000000,4536.000000,10375.000000,52107.000000
17991.000000,4562.000000,10365.000000,52021.000000
18096.000000,4490.000000,10376.000000,52092.000000
17992.000000,4494.000000,10335.000000,52049.000000
18032.000000,4450.000000,10343.000000,52051.000000
18078.000000,4447.000000,10252.000000,52198.000000
18013.000000,4441.000000,10302.000000,52058.000000
18047.000000,4369.000000,10396.000000,52066.000000
17994.000000,4445.000000,10313.000000,52081.000000
18007.000000,4360.000000,10348.000000,52018.000000
17983.000000,4430.000000,10228.000000,52033.000000
17941.000000,4444.000000,10185.000000,52012.000000
17979.000000,4306.000000,10301.000000,52047.000000
17934.000000,4381.000000,10230.000000,52012.000000
17894.000000,4466.000000,10097.000000,52048.000000
17831.000000,4353.000000,10239.000000,51993.000000
17813.000000,4452.000000,10107.000000,52011.000000
17833.000000,4362.000000,10171.000000,51991.000000
17945.000000,4192.000000,10181.000000,52054.000000
17819.000000,4352.000000,10144.000000,51966.000000
17609.000000,4365.000000,10188.000000,51858.000000
17790.000000,4294.000000,10067.000000,51914.000000
17652.000000,4234.000000,10250.000000,51784.000000
17742.000000,4243.000000,10054.000000,51906.000000
17693.000000,4355.000000,9848.000000,52056.000000
17681.000000,4228.000000,10027.000000,51914.000000
17742.000000,4040.000000,10078.000000,51899.000000
17643.000000,4191.000000,9974.000000,51848.000000
17439.000000,4312.000000,9947.000000,51711.000000
17601.000000,4163.000000,9970.000000,51856.000000
17639.000000,4209.000000,9795.000000,52072.000000
17602.000000,4195.000000,9942.000000,51852.000000
17495.000000,4293.000000,9824.000000,51906.000000
17567.000000,4160.000000,9960.000000,51853.000000
17730.000000,4067.000000,10074.000000,51803.000000
17552.000000,4143.000000,9969.000000,51860.000000
17637.000000,4075.000000,10074.000000,51753.000000
17558.000000,4157.000000,9966.000000,51829.000000
17470.000000,4285.000000,9853.000000,51823.000000
17610.000000,4141.000000,9940.000000,51850.000000
17600.000000,4183.000000,9893.000000,51919.000000
17616.000000,4185.000000,9953.000000,51854.000000
17632.000000,4216.000000,9863.000000,51943.000000
17583.000000,4166.000000,9956.000000,51869.000000
17691.000000,4216.000000,10027.000000,51892.000000
17692.000000,4326.000000,10026.000000,51906.000000
17781.000000,4273.000000,10077.000000,51929.000000
17927.000000,4232.000000,10060.000000,52012.000000
17868.000000,4309.000000,10115.000000,52000.000000
17899.000000,4258.000000,10259.000000,51988.000000
17917.000000,4382.000000,10218.000000,51995.000000
17945.000000,4316.000000,10379.000000,52013.000000
18043.000000,4490.000000,10343.000000,52121.000000
18157.000000,4595.000000,10265.000000,52169.000000
18237.000000,4561.000000,10443.000000,52187.000000
18282.000000,4490.000000,10618.000000,52175.000000
18437.000000,4742.000000,10658.000000,52289.000000
18321.000000,4817.000000,10756.000000,52196.000000
18489.000000,4751.000000,10766.000000,52352.000000
18591.000000,4770.000000,10754.000000,52442.000000
18576.000000,4836.000000,10786.000000,52379.000000
18477.000000,4997.000000,10661.000000,52434.000000
18626.000000,4863.000000,10862.000000,52380.000000
18692.000000,4826.000000,10833.000000,52443.000000
18612.000000,4837.000000,10810.000000,52386.000000
18489.000000,4909.000000,10862.000000,52225.000000
18579.000000,4830.000000,10799.000000,52379.000000
18458.000000,4925.000000,10638.000000,52460.000000
18549.000000,4849.000000,10796.000000,52386.000000
18575.000000,4727.000000,10769.000000,52423.000000
18536.000000,4799.000000,10770.000000,52353.000000
18467.000000,4727.000000,10825.000000,52226.000000
18490.000000,4745.000000,10660.000000,52327.000000
18419.000000,4832.000000,10556.000000,52375.000000
18441.000000,4654.000000,10643.000000,52314.000000
18440.000000,4757.000000,10591.000000,52363.000000
18359.000000,4705.000000,10604.000000,52282.000000
18379.000000,4739.000000,10554.000000,52325.000000
18252.000000,4689.000000,10598.000000,52220.000000
18308.000000,4620.000000,10546.000000,52263.000000
18285.000000,4554.000000,10485.000000,52224.000000
18244.000000,4559.000000,10460.000000,52174.000000
18245.000000,4477.000000,10505.000000,52152.000000
18190.000000,4522.000000,10425.000000,52205.000000
18044.000000,4638.000000,10360.000000,52125.000000
18158.000000,4459.000000,10352.000000,52154.000000
18244.000000,4453.000000,10228.000000,52255.000000
18125.000000,4465.000000,10317.000000,52128.000000
18223.000000,4310.000000,10491.000000,52007.000000
18093.000000,4456.000000,10311.000000,52115.000000
17903.000000,4506.000000,10280.000000,51939.000000
18076.000000,4393.000000,10238.000000,52092.000000
17974.000000,4601.000000,10042.000000,52256.000000
18075.000000,4407.000000,10233.000000,52101.000000
17965.000000,4486.000000,10056.000000,52085.000000
18034.000000,4325.000000,10152.000000,52038.000000
18148.000000,4262.000000,10201.000000,52188.000000
18020.000000,4309.000000,10148.000000,52048.000000
18129.000000,4173.000000,10290.000000,51922.000000
17982.000000,4309.000000,10109.000000,52053.000000
18017.000000,4224.000000,10195.000000,52056.000000
17975.000000,4328.000000,10131.000000,52038.000000
17859.000000,4351.000000,10130.000000,51948.000000
17955.000000,4304.000000,10093.000000,52017.000000
17830.000000,4346.000000,10067.000000,51955.000000
17930.000000,4268.000000,10050.000000,52000.000000
17922.000000,4292.000000,9978.000000,52115.000000
17903.000000,4278.000000,10049.000000,52018.000000
17889.000000,4224.000000,10070.000000,51996.000000
17935.000000,4273.000000,10000.000000,51999.000000
17870.000000,4217.000000,10017.000000,51912.000000
17858.000000,4185.000000,10000.000000,51967.000000
17832.000000,4150.000000,9955.000000,52019.000000
17661.000000,4203.000000,10002.000000,51813.000000
17745.000000,4171.000000,9923.000000,51913.000000
17757.000000,4147.000000,9886.000000,51924.000000
17715.000000,4154.000000,9917.000000,51893.000000
17600.000000,4225.000000,9798.000000,51873.000000
17627.000000,4131.000000,9863.000000,51862.000000
17910.000000,3942.000000,9848.000000,52010.000000
17657.000000,4071.000000,9815.000000,51863.000000
17587.000000,3989.000000,9897.000000,51747.000000
17656.000000,4039.000000,9776.000000,51856.000000
17709.000000,3875.000000,9944.000000,51801.000000
17583.000000,4021.000000,9779.000000,51844.000000
17367.000000,4183.000000,9654.000000,51771.000000
17600.000000,4033.000000,9755.000000,51827.000000
17564.000000,4083.000000,9558.000000,51978.000000
17575.000000,3985.000000,9721.000000,51799.000000
17601.000000,3852.000000,9909.000000,51684.000000
17525.000000,4000.000000,9703.000000,51782.000000
17584.000000,3880.000000,9774.000000,51792.000000
17568.000000,4025.000000,9680.000000,51767.000000
17498.000000,3922.000000,9800.000000,51637.000000
17502.000000,3996.000000,9689.000000,51811.000000
17441.000000,4013.000000,9715.000000,51696.000000
17461.000000,3985.000000,9677.000000,51781.000000
17440.000000,4061.000000,9566.000000,51816.000000
17446.000000,3936.000000,9615.000000,51745.000000
17366.000000,3958.000000,9501.000000,51770.000000
17328.000000,3928.000000,9608.000000,51763.000000
17375.000000,3838.000000,9633.000000,51710.000000
17321.000000,3957.000000,9521.000000,51704.000000
17322.000000,3849.000000,9578.000000,51656.000000
17288.000000,3939.000000,9506.000000,51659.000000
17338.000000,3840.000000,9514.000000,51664.000000
17270.000000,3763.000000,9629.000000,51581.000000
17323.000000,3868.000000,9537.000000,51679.000000
17336.000000,3739.000000,9631.000000,51655.000000
17331.000000,3851.000000,9488.000000,51700.000000
17262.000000,4004.000000,9404.000000,51726.000000
17353.000000,3826.000000,9528.000000,51725.000000
17499.000000,3706.000000,9582.000000,51760.000000
17352.000000,3882.000000,9513.000000,51667.000000
17470.000000,3882.000000,9467.000000,51855.000000
17336.000000,3921.000000,9591.000000,51714.000000
17355.000000,3738.000000,9768.000000,51565.000000
17386.000000,3889.000000,9573.000000,51737.000000
17256.000000,3899.000000,9652.000000,51527.000000
17383.000000,3907.000000,9580.000000,51729.000000
17523.000000,3921.000000,9443.000000,51978.000000
17404.000000,3934.000000,9593.000000,51726.000000
17572.000000,3785.000000,9696.000000,51796.000000
17472.000000,3945.000000,9635.000000,51739.000000
17554.000000,3931.000000,9528.000000,51947.000000
17502.000000,3977.000000,9699.000000,51767.000000
17543.000000,3926.000000,9857.000000,51687.000000
17609.000000,4079.000000,9730.000000,51794.000000
17756.000000,4085.000000,10021.000000,51770.000000
17812.000000,4220.000000,9927.000000,51934.000000
17817.000000,4330.000000,9901.000000,52000.000000
17949.000000,4304.000000,10085.000000,51990.000000
18002.000000,4312.000000,10074.000000,52110.000000
18058.000000,4412.000000,10203.000000,52079.000000
18119.000000,4511.000000,10211.000000,52225.000000
18151.000000,4465.000000,10344.000000,52118.000000
18231.000000,4533.000000,10387.000000,52218.000000
18205.000000,4635.000000,10457.000000,52173.000000
18362.000000,4604.000000,10484.000000,52252.000000
18512.000000,4678.000000,10509.000000,52369.000000
18463.000000,4686.000000,10606.000000,52319.000000
18468.000000,4559.000000,10674.000000,52314.000000
18433.000000,4663.000000,10597.000000,52325.000000
18553.000000,4594.000000,10562.000000,52365.000000
18427.000000,4676.000000,10586.000000,52316.000000
18278.000000,4746.000000,10643.000000,52198.000000
18405.000000,4676.000000,10594.000000,52330.000000
18460.000000,4763.000000,10406.000000,52418.000000
18432.000000,4597.000000,10525.000000,52266.000000
18519.000000,4599.000000,10402.000000,52460.000000
18374.000000,4615.000000,10500.000000,52243.000000
18325.000000,4466.000000,10743.000000,52014.000000
18344.000000,4645.000000,10497.000000,52252.000000
18503.000000,4448.000000,10585.000000,52245.000000
18317.000000,4571.000000,10479.000000,52264.000000
18231.000000,4721.000000,10247.000000,52368.000000
18259.000000,4587.000000,10472.000000,52260.000000
18152.000000,4673.000000,10303.000000,52294.000000
18288.000000,4539.000000,10408.000000,52203.000000
18344.000000,4523.000000,10376.000000,52326.000000
18194.000000,4476.000000,10368.000000,52174.000000
18285.000000,4410.000000,10401.000000,52209.000000
18157.000000,4474.000000,10345.000000,52181.000000
18060.000000,4463.000000,10346.000000,52047.000000
18110.000000,4445.000000,10312.000000,52157.000000
18056.000000,4546.000000,10206.000000,52215.000000
18119.000000,4393.000000,10283.000000,52085.000000
18080.000000,4418.000000,10238.000000,52111.000000
18148.000000,4404.000000,10276.000000,52083.000000
18093.000000,4450.000000,10222.000000,52178.000000
18009.000000,4512.000000,10263.000000,52017.000000
18094.000000,4355.000000,10309.000000,52055.000000
18080.000000,4376.000000,10180.000000,52124.000000
18052.000000,4378.000000,10256.000000,52010.000000
17987.000000,4379.000000,10199.000000,52071.000000
18030.000000,4356.000000,10228.000000,52070.000000
18076.000000,4255.000000,10299.000000,52062.000000
17992.000000,4357.000000,10174.000000,52029.000000
17877.000000,4371.000000,10191.000000,52007.000000
17935.000000,4324.000000,10165.000000,52011.000000
18006.000000,4378.000000,9961.000000,52127.000000
17932.000000,4251.000000,10111.000000,51994.000000
17963.000000,4247.000000,10127.000000,51925.000000
17872.000000,4221.000000,10071.000000,52011.000000
17785.000000,4145.000000,10246.000000,51753.000000
17851.000000,4250.000000,10019.000000,51978.000000
17718.000000,4385.000000,9838.000000,52064.000000
17834.000000,4209.000000,9964.000000,51943.000000
17922.000000,4030.000000,10144.000000,51901.000000
17787.000000,4177.000000,9937.000000,51911.000000
17886.000000,4020.000000,9981.000000,52026.000000
17761.000000,4147.000000,9925.000000,51926.000000
17661.000000,4154.000000,10047.000000,51720.000000
17708.000000,4159.000000,9871.000000,51902.000000
17673.000000,4161.000000,9812.000000,51830.000000
17659.000000,4070.000000,9819.000000,51895.000000
17639.000000,4094.000000,9678.000000,52020.000000
17618.000000,4075.000000,9798.000000,51869.000000
17739.000000,3970.000000,9938.000000,51803.000000
17624.000000,4044.000000,9782.000000,51833.000000
17577.000000,4035.000000,9849.000000,51729.000000
17524.000000,4073.000000,9723.000000,51796.000000
17489.000000,4033.000000,9730.000000,51704.000000
17561.000000,3924.000000,9734.000000,51819.000000
17477.000000,4020.000000,9660.000000,51790.000000
17429.000000,3915.000000,9753.000000,51782.000000
17476.000000,3942.000000,9644.000000,51799.000000
17526.000000,3878.000000,9721.000000,51779.000000
17454.000000,3922.000000,9635.000000,51746.000000
17571.000000,3909.000000,9595.000000,51848.000000
17466.000000,3906.000000,9623.000000,51719.000000
17499.000000,3782.000000,9659.000000,51797.000000
17414.000000,3914.000000,9638.000000,51737.000000
17504.000000,3890.000000,9587.000000,51722.000000
17417.000000,3908.000000,9570.000000,51718.000000
17245.000000,3832.000000,9673.000000,51565.000000
17344.000000,3868.000000,9555.000000,51689.000000
17492.000000,3777.000000,9391.000000,51930.000000
17315.000000,3818.000000,9481.000000,51693.000000
17149.000000,3937.000000,9484.000000,51519.000000
17269.000000,3818.000000,9496.000000,51662.000000
17202.000000,3780.000000,9549.000000,51530.000000
17237.000000,3790.000000,9449.000000,51641.000000
17187.000000,3913.000000,9225.000000,51774.000000
17193.000000,3779.000000,9371.000000,51607.000000
17098.000000,3672.000000,9490.000000,51428.000000
17136.000000,3745.000000,9361.000000,51560.000000
17118.000000,3852.000000,9163.000000,51682.000000
17093.000000,3686.000000,9310.000000,51568.000000
17147.000000,3614.000000,9376.000000,51484.000000
17113.000000,3675.000000,9319.000000,51524.000000
17019.000000,3704.000000,9356.000000,51487.000000
17142.000000,3700.000000,9272.000000,51529.000000
17101.000000,3660.000000,9326.000000,51590.000000
17093.000000,3705.000000,9324.000000,51552.000000
17085.000000,3671.000000,9348.000000,51419.000000
17162.000000,3654.000000,9261.000000,51611.000000
17052.000000,3773.000000,9196.000000,51594.000000
17076.000000,3827.000000,9294.000000,51573.000000
17170.000000,3687.000000,9341.000000,51560.000000
17215.000000,3727.000000,9326.000000,51632.000000
17215.000000,3757.000000,9385.000000,51598.000000
17191.000000,3780.000000,9438.000000,51608.000000
17271.000000,3806.000000,9405.000000,51644.000000
17343.000000,3768.000000,9456.000000,51739.000000
17419.000000,3903.000000,9549.000000,51714.000000
17425.000000,4020.000000,9459.000000,51782.000000
17493.000000,3960.000000,9639.000000,51775.000000
17698.000000,3862.000000,9827.000000,51768.000000
17629.000000,4071.000000,9748.000000,51830.000000
17606.000000,4124.000000,9825.000000,51748.000000
17879.000000,4229.000000,9972.000000,51968.000000
17977.000000,4219.000000,10100.000000,52074.000000
18018.000000,4321.000000,10088.000000,52022.000000
18073.000000,4318.000000,10228.000000,52017.000000
18085.000000,4385.000000,10217.000000,52123.000000
18119.000000,4384.000000,10325.000000,52076.000000
18140.000000,4437.000000,10241.000000,52151.000000
18071.000000,4497.000000,10353.000000,52036.000000
18170.000000,4491.000000,10303.000000,52149.000000
18162.000000,4512.000000,10247.000000,52191.000000
18142.000000,4460.000000,10307.000000,52154.000000
18074.000000,4536.000000,10249.000000,52167.000000
18221.000000,4439.000000,10252.000000,52155.000000
18202.000000,4382.000000,10237.000000,52173.000000
18069.000000,4423.000000,10250.000000,52101.000000
18137.000000,4351.000000,10297.000000,52095.000000
18153.000000,4391.000000,10209.000000,52145.000000
18123.000000,4463.000000,10238.000000,52141.000000
18085.000000,4402.000000,10226.000000,52109.000000
18080.000000,4392.000000,10227.000000,52166.000000
18103.000000,4426.000000,10173.000000,52061.000000
18059.000000,4347.000000,10213.000000,52073.000000
18062.000000,4355.000000,10137.000000,52128.000000
18042.000000,4383.000000,10179.000000,52122.000000
18000.000000,4316.000000,10287.000000,52055.000000
18025.000000,4318.000000,10159.000000,52096.000000
17919.000000,4389.000000,10108.000000,52088.000000
17961.000000,4319.000000,10124.000000,52034.000000
18052.000000,4222.000000,10194.000000,51985.000000
17918.000000,4282.000000,10086.000000,52060.000000
17975.000000,4267.000000,9940.000000,52174.000000
17918.000000,4287.000000,10025.000000,51998.000000
17998.000000,4119.000000,10093.000000,51992.000000
17893.000000,4283.000000,10013.000000,51983.000000
17798.000000,4351.000000,9968.000000,51947.000000
17863.000000,4226.000000,10010.000000,51992.000000
17959.000000,4164.000000,10015.000000,52091.000000
17882.000000,4184.000000,9984.000000,51981.000000
17822.000000,4156.000000,10088.000000,51921.000000
17806.000000,4194.000000,9943.000000,51966.000000
17734.000000,4223.000000,10007.000000,51875.000000
17773.000000,4189.000000,9973.000000,51962.000000
17734.000000,4193.000000,9892.000000,51912.000000
17791.000000,4127.000000,9878.000000,51939.000000
17695.000000,4215.000000,9832.000000,51941.000000
17788.000000,4124.000000,9891.000000,51954.000000
17756.000000,4174.000000,9891.000000,51924.000000
17711.000000,4124.000000,9890.000000,51936.000000
17766.000000,4142.000000,9916.000000,51923.000000
17765.000000,4131.000000,9890.000000,51919.000000
17755.000000,4111.000000,9853.000000,51923.000000
17730.000000,4098.000000,9862.000000,51891.000000
17661.000000,4079.000000,9873.000000,51935.000000
17684.000000,4062.000000,9821.000000,51900.000000
17649.000000,4070.000000,9788.000000,51824.000000
17612.000000,4069.000000,9839.000000,51871.000000
17630.000000,4097.000000,9805.000000,51854.000000
17533.000000,4097.000000,9752.000000,51846.000000
17606.000000,4038.000000,9760.000000,51824.000000
17560.000000,4072.000000,9742.000000,51808.000000
17539.000000,4037.000000,9705.000000,51831.000000
17565.000000,4076.000000,9673.000000,51802.000000
17518.000000,3972.000000,9722.000000,51845.000000
17540.000000,3865.000000,9694.000000,51757.000000
17440.000000,3975.000000,9665.000000,51798.000000
17428.000000,3961.000000,9627.000000,51801.000000
17392.000000,3955.000000,9603.000000,51724.000000
17393.000000,3887.000000,9650.000000,51749.000000
17419.000000,3912.000000,9593.000000,51733.000000
17387.000000,3910.000000,9623.000000,51691.000000
17357.000000,3899.000000,9567.000000,51760.000000
17433.000000,3887.000000,9573.000000,51727.000000
17391.000000,3870.000000,9569.000000,51737.000000
17327.000000,3928.000000,9562.000000,51677.000000
17388.000000,3874.000000,9564.000000,51716.000000
17380.000000,3871.000000,9496.000000,51780.000000
17373.000000,3873.000000,9551.000000,51734.000000
17344.000000,3732.000000,9562.000000,51754.000000
17322.000000,3865.000000,9548.000000,51651.000000
17297.000000,3819.000000,9589.000000,51678.000000
17276.000000,3837.000000,9536.000000,51690.000000
17306.000000,3806.000000,9502.000000,51681.000000
17327.000000,3884.000000,9396.000000,51669.000000
17219.000000,3818.000000,9524.000000,51663.000000
17291.000000,3749.000000,9476.000000,51702.000000
17252.000000,3813.000000,9479.000000,51608.000000
17183.000000,3759.000000,9472.000000,51620.000000
17201.000000,3765.000000,9418.000000,51630.000000
17173.000000,3790.000000,9362.000000,51653.000000
17168.000000,3746.000000,9424.000000,51596.000000
17096.000000,3747.000000,9421.000000,51523.000000
17135.000000,3759.000000,9354.000000,51566.000000
17062.000000,3795.000000,9311.000000,51538.000000
17070.000000,3692.000000,9368.000000,51598.000000
17085.000000,3797.000000,9315.000000,51543.000000
17107.000000,3767.000000,9348.000000,51552.000000
17186.000000,3714.000000,9225.000000,51694.000000
17127.000000,3713.000000,9331.000000,51593.000000
17193.000000,3623.000000,9486.000000,51558.000000
17163.000000,3748.000000,9366.000000,51597.000000
17065.000000,3827.000000,9265.000000,51664.000000
17151.000000,3729.000000,9408.000000,51639.000000
17148.000000,3671.000000,9584.000000,51525.000000
17198.000000,3763.000000,9389.000000,51623.000000
17262.000000,3770.000000,9412.000000,51683.000000
17245.000000,3792.000000,9487.000000,51636.000000
17222.000000,3776.000000,9486.000000,51594.000000
17241.000000,3849.000000,9465.000000,51671.000000
17221.000000,3808.000000,9455.000000,51567.000000
17269.000000,3856.000000,9512.000000,51694.000000
17333.000000,3933.000000,9544.000000,51666.000000
17475.000000,3955.000000,9683.000000,51767.000000
17588.000000,3958.000000,9708.000000,51884.000000
17722.000000,4130.000000,9919.000000,51940.000000
17742.000000,4228.000000,9886.000000,51987.000000
17716.000000,4227.000000,10070.000000,51921.000000
17896.000000,4255.000000,10086.000000,52038.000000
17967.000000,4378.000000,10048.000000,52044.000000
18059.000000,4325.000000,10223.000000,52070.000000
18140.000000,4333.000000,10173.000000,52171.000000
18108.000000,4376.000000,10290.000000,52079.000000
18161.000000,4396.000000,10339.000000,52143.000000
18184.000000,4520.000000,10355.000000,52156.000000
18160.000000,4624.000000,10318.000000,52178.000000
18184.000000,4481.000000,10372.000000,52170.000000
18192.000000,4536.000000,10429.000000,52165.000000
18230.000000,4571.000000,10441.000000,52226.000000
18237.000000,4541.000000,10479.000000,52173.000000
18240.000000,4600.000000,10453.000000,52217.000000
18186.000000,4598.000000,10333.000000,52225.000000
18242.000000,4545.000000,10450.000000,52206.000000
18380.000000,4438.000000,10407.000000,52315.000000
18227.000000,4517.000000,10445.000000,52206.000000
18193.000000,4427.000000,10538.000000,52115.000000
18214.000000,4523.000000,10396.000000,52197.000000
18262.000000,4422.000000,10444.000000,52189.000000
18165.000000,4500.000000,10372.000000,52183.000000
18181.000000,4423.000000,10502.000000,52104.000000
18145.000000,4478.000000,10342.000000,52161.000000
18051.000000,4475.000000,10373.000000,52092.000000
18098.000000,4449.000000,10346.000000,52167.000000
18106.000000,4421.000000,10350.000000,52122.000000
18096.000000,4477.000000,10317.000000,52151.000000
18099.000000,4466.000000,10240.000000,52134.000000
18090.000000,4409.000000,10305.000000,52101.000000
18068.000000,4417.000000,10299.000000,52081.000000
18087.000000,4458.000000,10260.000000,52160.000000
18045.000000,4467.000000,10269.000000,52060.000000
18082.000000,4347.000000,10271.000000,52130.000000
18076.000000,4365.000000,10268.000000,52100.000000
18046.000000,4419.000000,10220.000000,52183.000000
18035.000000,4368.000000,10205.000000,52131.000000
17988.000000,4453.000000,10147.000000,52110.000000
17987.000000,4398.000000,10202.000000,52107.000000
18067.000000,4362.000000,10197.000000,52153.000000
18001.000000,4362.000000,10196.000000,52099.000000
17926.000000,4316.000000,10278.000000,52000.000000
17976.000000,4353.000000,10162.000000,52033.000000
17919.000000,4417.000000,10110.000000,52109.000000
17936.000000,4334.000000,10188.000000,52075.000000
17850.000000,4341.000000,10261.000000,51953.000000
17914.000000,4292.000000,10153.000000,52049.000000
17871.000000,4398.000000,10093.000000,52007.000000
17895.000000,4338.000000,10159.000000,52028.000000
17946.000000,4357.000000,10051.000000,52062.000000
17894.000000,4295.000000,10113.000000,52013.000000
17848.000000,4325.000000,10125.000000,51993.000000
17875.000000,4283.000000,10080.000000,52009.000000
17841.000000,4289.000000,10077.000000,52019.000000
17809.000000,4273.000000,10073.000000,52009.000000
17793.000000,4290.000000,10036.000000,52046.000000
17787.000000,4279.000000,10071.000000,52004.000000
17860.000000,4215.000000,10072.000000,52034.000000
17790.000000,4246.000000,10026.000000,51982.000000
17774.000000,4210.000000,9983.000000,52012.000000
17744.000000,4215.000000,10023.000000,51958.000000
17730.000000,4166.000000,10015.000000,51943.000000
17716.000000,4213.000000,9969.000000,51963.000000
17653.000000,4162.000000,10048.000000,51881.000000
17688.000000,4157.000000,9906.000000,51885.000000
17626.000000,4168.000000,9897.000000,51896.000000
17694.000000,4134.000000,9915.000000,51910.000000
17630.000000,4126.000000,9905.000000,51929.000000
17603.000000,4108.000000,9915.000000,51897.000000
17620.000000,4148.000000,9855.000000,51881.000000
17599.000000,4123.000000,9858.000000,51871.000000
17566.000000,4027.000000,9819.000000,51888.000000
17497.000000,4094.000000,9784.000000,51833.000000
17548.000000,4026.000000,9820.000000,51859.000000
17559.000000,4056.000000,9804.000000,51863.000000
17495.000000,4015.000000,9755.000000,51831.000000
17511.000000,3983.000000,9811.000000,51833.000000
17523.000000,4062.000000,9828.000000,51802.000000
17450.000000,3992.000000,9807.000000,51858.000000
17463.000000,4007.000000,9780.000000,51811.000000
17413.000000,3998.000000,9763.000000,51810.000000
17423.000000,4027.000000,9731.000000,51775.000000
17389.000000,3967.000000,9757.000000,51734.000000
17409.000000,3984.000000,9669.000000,51801.000000
17366.000000,4030.000000,9645.000000,51810.000000
17371.000000,3932.000000,9700.000000,51730.000000
17401.000000,3926.000000,9666.000000,51726.000000
17364.000000,3960.000000,9635.000000,51735.000000
17391.000000,3934.000000,9583.000000,51758.000000
17324.000000,3924.000000,9633.000000,51766.000000
17283.000000,3783.000000,9603.000000,51700.000000
17240.000000,3875.000000,9541.000000,51663.000000
17241.000000,3801.000000,9567.000000,51634.000000
17212.000000,3854.000000,9536.000000,51657.000000
17158.000000,3745.000000,9543.000000,51645.000000
17186.000000,3815.000000,9542.000000,51691.000000
17183.000000,3886.000000,9537.000000,51596.000000
17206.000000,3818.000000,9452.000000,51667.000000
17168.000000,3829.000000,9445.000000,51703.000000
17204.000000,3769.000000,9520.000000,51672.000000
17223.000000,3829.000000,9503.000000,51635.000000
17194.000000,3795.000000,9533.000000,51716.000000
17274.000000,3842.000000,9515.000000,51705.000000
17217.000000,3885.000000,9505.000000,51691.000000
17265.000000,3813.000000,9548.000000,51700.000000
17260.000000,3908.000000,9500.000000,51731.000000
17246.000000,3860.000000,9573.000000,51681.000000
17274.000000,3863.000000,9515.000000,51671.000000
17281.000000,3860.000000,9569.000000,51695.000000
17241.000000,3914.000000,9524.000000,51694.000000
17302.000000,3892.000000,9599.000000,51749.000000
17307.000000,3867.000000,9609.000000,51754.000000
17344.000000,3939.000000,9629.000000,51729.000000
17382.000000,3852.000000,9699.000000,51743.000000
17401.000000,3920.000000,9658.000000,51751.000000
17328.000000,3972.000000,9726.000000,51813.000000
17529.000000,4106.000000,9836.000000,51847.000000
17537.000000,4134.000000,9927.000000,51837.000000
17671.000000,4167.000000,9923.000000,51923.000000
17680.000000,4255.000000,9982.000000,51876.000000
17799.000000,4256.000000,10020.000000,51968.000000
17860.000000,4342.000000,10059.000000,52037.000000
17924.000000,4336.000000,10165.000000,52052.000000
18115.000000,4451.000000,10330.000000,52208.000000
18137.000000,4514.000000,10386.000000,52170.000000
18213.000000,4470.000000,10416.000000,52220.000000
18177.000000,4534.000000,10412.000000,52214.000000
18243.000000,4481.000000,10502.000000,52241.000000
18233.000000,4531.000000,10441.000000,52226.000000
18247.000000,4586.000000,10464.000000,52280.000000
18236.000000,4605.000000,10459.000000,52270.000000
18256.000000,4591.000000,10520.000000,52197.000000
18270.000000,4555.000000,10450.000000,52227.000000
18176.000000,4583.000000,10496.000000,52180.000000
18216.000000,4524.000000,10449.000000,52241.000000
18217.000000,4536.000000,10432.000000,52195.000000
18237.000000,4523.000000,10445.000000,52271.000000
18184.000000,4593.000000,10432.000000,52251.000000
18132.000000,4538.000000,10434.000000,52188.000000
18123.000000,4513.000000,10373.000000,52240.000000
18123.000000,4451.000000,10406.000000,52190.000000
18094.000000,4462.000000,10319.000000,52186.000000
18051.000000,4487.000000,10272.000000,52203.000000
18075.000000,4411.000000,10357.000000,52134.000000
18113.000000,4357.000000,10283.000000,52183.000000
18010.000000,4437.000000,10280.000000,52092.000000
18010.000000,4402.000000,10311.000000,52105.000000
18067.000000,4406.000000,10266.000000,52141.000000
17991.000000,4381.000000,10207.000000,52172.000000
17987.000000,4372.000000,10222.000000,52123.000000
18060.000000,4310.000000,10322.000000,52104.000000
17931.000000,4353.000000,10181.000000,52097.000000
17961.000000,4353.000000,10176.000000,52068.000000
17944.000000,4346.000000,10197.000000,52066.000000
17872.000000,4388.000000,10166.000000,52022.000000
17924.000000,4315.000000,10191.000000,52094.000000
17876.000000,4328.000000,10141.000000,52064.000000
17883.000000,4326.000000,10140.000000,52039.000000
17891.000000,4325.000000,10131.000000,52083.000000
17852.000000,4281.000000,10130.000000,52088.000000
17888.000000,4284.000000,10083.000000,52072.000000
17869.000000,4277.000000,10119.000000,52045.000000
17850.000000,4245.000000,10079.000000,52088.000000
17823.000000,4259.000000,10120.000000,52014.000000
17880.000000,4224.000000,10083.000000,52046.000000
17795.000000,4243.000000,9958.000000,52023.000000
17796.000000,4198.000000,10019.000000,52020.000000
17715.000000,4191.000000,9992.000000,51939.000000
17733.000000,4180.000000,10005.000000,51972.000000
17717.000000,4149.000000,9951.000000,51966.000000
17639.000000,4155.000000,9937.000000,51945.000000
17735.000000,4091.000000,9966.000000,52053.000000
17583.000000,4146.000000,9935.000000,51930.000000
17591.000000,4115.000000,9926.000000,51893.000000
17636.000000,4111.000000,9886.000000,51875.000000
17599.000000,4098.000000,9833.000000,51969.000000
17591.000000,4098.000000,9845.000000,51871.000000
17588.000000,4016.000000,9905.000000,51892.000000
17584.000000,4060.000000,9838.000000,51838.000000
17562.000000,4014.000000,9905.000000,51839.000000
17536.000000,4061.000000,9824.000000,51849.000000
17497.000000,4058.000000,9857.000000,51782.000000
17562.000000,4057.000000,9828.000000,51840.000000
17488.000000,4038.000000,9846.000000,51792.000000
17493.000000,4027.000000,9797.000000,51851.000000
17457.000000,4069.000000,9728.000000,51781.000000
17445.000000,3992.000000,9747.000000,51827.000000
17480.000000,4023.000000,9692.000000,51899.000000
17458.000000,3992.000000,9738.000000,51835.000000
17492.000000,3961.000000,9771.000000,51836.000000
17460.000000,3998.000000,9767.000000,51821.000000
17467.000000,3880.000000,9728.000000,51852.000000
17343.000000,3948.000000,9725.000000,51788.000000
17398.000000,3930.000000,9735.000000,51816.000000
17354.000000,3967.000000,9712.000000,51767.000000
17390.000000,3912.000000,9710.000000,51727.000000
17353.000000,3919.000000,9639.000000,51755.000000
17275.000000,3948.000000,9612.000000,51750.000000
17317.000000,3879.000000,9627.000000,51747.000000
17251.000000,3818.000000,9602.000000,51697.000000
17247.000000,3837.000000,9521.000000,51714.000000
17153.000000,3806.000000,9477.000000,51684.000000
17147.000000,3794.000000,9492.000000,51623.000000
17140.000000,3783.000000,9452.000000,51660.000000
17124.000000,3801.000000,9416.000000,51632.000000
17098.000000,3759.000000,9414.000000,51595.000000
17020.000000,3743.000000,9423.000000,51536.000000
17093.000000,3709.000000,9394.000000,51585.000000
17053.000000,3778.000000,9392.000000,51550.000000
17085.000000,3736.000000,9387.000000,51590.000000
17184.000000,3725.000000,9340.000000,51670.000000
17103.000000,3740.000000,9409.000000,51611.000000
17123.000000,3681.000000,9512.000000,51606.000000
17133.000000,3767.000000,9420.000000,51607.000000
17142.000000,3694.000000,9502.000000,51591.000000
17154.000000,3760.000000,9467.000000,51629.000000
17085.000000,3796.000000,9460.000000,51579.000000
17137.000000,3761.000000,9514.000000,51628.000000
17154.000000,3845.000000,9402.000000,51676.000000
17165.000000,3731.000000,9480.000000,51670.000000
17187.000000,3761.000000,9510.000000,51673.000000
17204.000000,3793.000000,9524.000000,51637.000000
17194.000000,3889.000000,9422.000000,51671.000000
17209.000000,3791.000000,9489.000000,51685.000000
17272.000000,3795.000000,9570.000000,51697.000000
17271.000000,3825.000000,9567.000000,51742.000000
17271.000000,3852.000000,9635.000000,51709.000000
17294.000000,3894.000000,9621.000000,51737.000000
17398.000000,3946.000000,9658.000000,51802.000000
17439.000000,4054.000000,9750.000000,51836.000000
17516.000000,4027.000000,9838.000000,51782.000000
17605.000000,4095.000000,9832.000000,51916.000000
17592.000000,4107.000000,9922.000000,51860.000000
17714.000000,4170.000000,10001.000000,51939.000000
17777.000000,4222.000000,10036.000000,51957.000000
17888.000000,4248.000000,10063.000000,52062.000000
17902.000000,4283.000000,10162.000000,52040.000000
18000.000000,4280.000000,10162.000000,52121.000000
17980.000000,4363.000000,10236.000000,52086.000000
17984.000000,4398.000000,10294.000000,52088.000000
18154.000000,4480.000000,10354.000000,52210.000000
18194.000000,4471.000000,10376.000000,52191.000000
18156.000000,4441.000000,10382.000000,52227.000000
18110.000000,4549.000000,10332.000000,52149.000000
18148.000000,4440.000000,10359.000000,52167.000000
18114.000000,4493.000000,10277.000000,52186.000000
18131.000000,4447.000000,10348.000000,52162.000000
18101.000000,4356.000000,10404.000000,52144.000000
18066.000000,4416.000000,10337.000000,52152.000000
18053.000000,4461.000000,10285.000000,52198.000000
18081.000000,4400.000000,10281.000000,52165.000000
18103.000000,4380.000000,10310.000000,52172.000000
18057.000000,4416.000000,10271.000000,52126.000000
18063.000000,4365.000000,10349.000000,52078.000000
18022.000000,4392.000000,10273.000000,52120.000000
17990.000000,4367.000000,10285.000000,52081.000000
18022.000000,4396.000000,10308.000000,52157.000000
18044.000000,4401.000000,10261.000000,52135.000000
18001.000000,4372.000000,10233.000000,52070.000000
18013.000000,4361.000000,10292.000000,52085.000000
18007.000000,4405.000000,10242.000000,52124.000000
17959.000000,4406.000000,10215.000000,52091.000000
18019.000000,4356.000000,10184.000000,52100.000000
17964.000000,4354.000000,10153.000000,52152.000000
17959.000000,4305.000000,10213.000000,52126.000000
17888.000000,4273.000000,10130.000000,52079.000000
17881.000000,4265.000000,10172.000000,52063.000000
17920.000000,4239.000000,10145.000000,52080.000000
17886.000000,4304.000000,10107.000000,52072.000000
17887.000000,4225.000000,10123.000000,52054.000000
17887.000000,4276.000000,10026.000000,52071.000000
17882.000000,4231.000000,10152.000000,52034.000000
17867.000000,4212.000000,10105.000000,52050.000000
17797.000000,4199.000000,10053.000000,52011.000000
17788.000000,4265.000000,10061.000000,52011.000000
17849.000000,4237.000000,10065.000000,52011.000000
17844.000000,4174.000000,10060.000000,52025.000000
17774.000000,4209.000000,10036.000000,52006.000000
17702.000000,4199.000000,10024.000000,51979.000000
17780.000000,4189.000000,10025.000000,52002.000000
17727.000000,4194.000000,10015.000000,51912.000000
17763.000000,4177.000000,9993.000000,51984.000000
17704.000000,4260.000000,9924.000000,51943.000000
17721.000000,4167.000000,9986.000000,51948.000000
17671.000000,4226.000000,9883.000000,51992.000000
17685.000000,4168.000000,9973.000000,51946.000000
17728.000000,4089.000000,9990.000000,51958.000000
17663.000000,4121.000000,9966.000000,51958.000000
17678.000000,4127.000000,9889.000000,51956.000000
17635.000000,4109.000000,9941.000000,51941.000000
17638.000000,4070.000000,9955.000000,51881.000000
17630.000000,4055.000000,9893.000000,51897.000000
17562.000000,4128.000000,9813.000000,51918.000000
17612.000000,4077.000000,9837.000000,51901.000000
17626.000000,4052.000000,9868.000000,51869.000000
17572.000000,4048.000000,9836.000000,51861.000000
17534.000000,4041.000000,9756.000000,51912.000000
17524.000000,4023.000000,9814.000000,51842.000000
17586.000000,4053.000000,9777.000000,51880.000000
17531.000000,3987.000000,9737.000000,51861.000000
17490.000000,3989.000000,9717.000000,51907.000000
17436.000000,4038.000000,9775.000000,51802.000000
17424.000000,3973.000000,9692.000000,51858.000000
17414.000000,4040.000000,9723.000000,51760.000000
17466.000000,3963.000000,9751.000000,51868.000000
17445.000000,3962.000000,9711.000000,51830.000000
17387.000000,4011.000000,9723.000000,51826.000000
17478.000000,3864.000000,9748.000000,51784.000000
17409.000000,3935.000000,9692.000000,51807.000000
17416.000000,3961.000000,9671.000000,51857.000000
17352.000000,3951.000000,9711.000000,51801.000000
17470.000000,3889.000000,9712.000000,51858.000000
17322.000000,3871.000000,9635.000000,51782.000000
17304.000000,3881.000000,9636.000000,51742.000000
17298.000000,3868.000000,9589.000000,51718.000000
17234.000000,3876.000000,9633.000000,51680.000000
17284.000000,3820.000000,9569.000000,51705.000000
17231.000000,3807.000000,9491.000000,51728.000000
17221.000000,3839.000000,9571.000000,51728.000000
17263.000000,3770.000000,9438.000000,51789.000000
17143.000000,3808.000000,9520.000000,51704.000000
17179.000000,3713.000000,9541.000000,51630.000000
17155.000000,3786.000000,9476.000000,51689.000000
17134.000000,3805.000000,9451.000000,51755.000000
17155.000000,3790.000000,9492.000000,51643.000000
17137.000000,3792.000000,9542.000000,51653.000000
17125.000000,3784.000000,9511.000000,51676.000000
17167.000000,3786.000000,9537.000000,51609.000000
17193.000000,3800.000000,9515.000000,51664.000000
17185.000000,3772.000000,9538.000000,51626.000000
17200.000000,3831.000000,9527.000000,51668.000000
17177.000000,3852.000000,9542.000000,51694.000000
17192.000000,3796.000000,9556.000000,51692.000000
17215.000000,3891.000000,9527.000000,51771.000000
17209.000000,3865.000000,9613.000000,51700.000000
17297.000000,3898.000000,9625.000000,51784.000000
17353.000000,3928.000000,9688.000000,51745.000000
17348.000000,3944.000000,9716.000000,51807.000000
17432.000000,3954.000000,9689.000000,51833.000000
17420.000000,4008.000000,9726.000000,51809.000000
17507.000000,3953.000000,9778.000000,51888.000000
17525.000000,4011.000000,9809.000000,51841.000000
17482.000000,4088.000000,9845.000000,51883.000000
17593.000000,4132.000000,9911.000000,51931.000000
17637.000000,4050.000000,9965.000000,51906.000000
17806.000000,4267.000000,10120.000000,52043.000000
17883.000000,4348.000000,10080.000000,52092.000000
17927.000000,4334.000000,10208.000000,52093.000000
18074.000000,4388.000000,10266.000000,52168.000000
18077.000000,4427.000000,10339.000000,52180.000000
18109.000000,4544.000000,10386.000000,52211.000000
18180.000000,4495.000000,10444.000000,52209.000000
18225.000000,4490.000000,10486.000000,52333.000000
18341.000000,4602.000000,10540.000000,52311.000000
18270.000000,4608.000000,10661.000000,52270.000000
18293.000000,4633.000000,10593.000000,52317.000000
18320.000000,4629.000000,10606.000000,52325.000000
18288.000000,4635.000000,10586.000000,52323.000000
18306.000000,4688.000000,10551.000000,52307.000000
18332.000000,4598.000000,10582.000000,52262.000000
18233.000000,4660.000000,10492.000000,52316.000000
18272.000000,4575.000000,10533.000000,52275.000000
18271.000000,4583.000000,10556.000000,52299.000000
18214.000000,4567.000000,10509.000000,52292.000000
18243.000000,4606.000000,10526.000000,52284.000000
18256.000000,4556.000000,10519.000000,52293.000000
18273.000000,4560.000000,10477.000000,52304.000000
18183.000000,4608.000000,10482.000000,52234.000000
18217.000000,4496.000000,10478.000000,52216.000000
18201.000000,4587.000000,10435.000000,52262.000000
18171.000000,4503.000000,10483.000000,52209.000000
18196.000000,4468.000000,10454.000000,52234.000000
18149.000000,4469.000000,10465.000000,52247.000000
18091.000000,4525.000000,10418.000000,52223.000000
18077.000000,4450.000000,10374.000000,52218.000000
18082.000000,4373.000000,10432.000000,52172.000000
18083.000000,4409.000000,10347.000000,52190.000000
18112.000000,4402.000000,10312.000000,52182.000000
18015.000000,4424.000000,10321.000000,52156.000000
17976.000000,4444.000000,10282.000000,52150.000000
17995.000000,4381.000000,10312.000000,52175.000000
18056.000000,4384.000000,10233.000000,52234.000000
17990.000000,4394.000000,10272.000000,52125.000000
18025.000000,4311.000000,10371.000000,52130.000000
17974.000000,4382.000000,10258.000000,52119.000000
17993.000000,4339.000000,10262.000000,52120.000000
17963.000000,4351.000000,10259.000000,52103.000000
17889.000000,4383.000000,10268.000000,52053.000000
17911.000000,4310.000000,10205.000000,52114.000000
17845.000000,4337.000000,10280.000000,52003.000000
17919.000000,4311.000000,10198.000000,52075.000000
17945.000000,4363.000000,10158.000000,52093.000000
17853.000000,4296.000000,10149.000000,52068.000000
17863.000000,4270.000000,10149.000000,52026.000000
17790.000000,4240.000000,10127.000000,52055.000000
17812.000000,4152.000000,10083.000000,52123.000000
17746.000000,4268.000000,10115.000000,52041.000000
17786.000000,4194.000000,10091.000000,52033.000000
17798.000000,4193.000000,10040.000000,52022.000000
17701.000000,4229.000000,10063.000000,52012.000000
17717.000000,4161.000000,10047.000000,52027.000000
17712.000000,4194.000000,10017.000000,51927.000000
17740.000000,4108.000000,10060.000000,51991.000000
17699.000000,4140.000000,9946.000000,51973.000000
17644.000000,4143.000000,10025.000000,51951.000000
17630.000000,4141.000000,9959.000000,51970.000000
17686.000000,4158.000000,9934.000000,51954.000000
17583.000000,4059.000000,9903.000000,51953.000000
17597.000000,4148.000000,9812.000000,51952.000000
17543.000000,4073.000000,9873.000000,51923.000000
17587.000000,3982.000000,9839.000000,51975.000000
17564.000000,4048.000000,9867.000000,51888.000000
17506.000000,4011.000000,9905.000000,51842.000000
17549.000000,4036.000000,9803.000000,51849.000000
17479.000000,4090.000000,9768.000000,51876.000000
17485.000000,4023.000000,9830.000000,51853.000000
17552.000000,3991.000000,9821.000000,51874.000000
17442.000000,4009.000000,9784.000000,51860.000000
17512.000000,3916.000000,9821.000000,51833.000000
17396.000000,3963.000000,9734.000000,51816.000000
17353.000000,3884.000000,9813.000000,51766.000000
17373.000000,3960.000000,9728.000000,51790.000000
17340.000000,4005.000000,9685.000000,51780.000000
17320.000000,3910.000000,9670.000000,51789.000000
17346.000000,3858.000000,9630.000000,51775.000000
17249.000000,3890.000000,9641.000000,51750.000000
17361.000000,3822.000000,9626.000000,51752.000000
17229.000000,3886.000000,9606.000000,51729.000000
17272.000000,3823.000000,9641.000000,51767.000000
17270.000000,3852.000000,9683.000000,51739.000000
17292.000000,3849.000000,9629.000000,51754.000000
17321.000000,3881.000000,9614.000000,51799.000000
17279.000000,3911.000000,9636.000000,51775.000000
17256.000000,3890.000000,9680.000000,51751.000000
17295.000000,3919.000000,9652.000000,51765.000000
17352.000000,3904.000000,9653.000000,51782.000000
17323.000000,3880.000000,9665.000000,51731.000000
17346.000000,3834.000000,9732.000000,51782.000000
17325.000000,3934.000000,9687.000000,51814.000000
17404.000000,3900.000000,9788.000000,51802.000000
17391.000000,3945.000000,9715.000000,51808.000000
17361.000000,4003.000000,9790.000000,51777.000000
17409.000000,3971.000000,9788.000000,51806.000000
17582.000000,4002.000000,9828.000000,51908.000000
17556.000000,4092.000000,9904.000000,51923.000000
17589.000000,4134.000000,9865.000000,51944.000000
17632.000000,4151.000000,9999.000000,51986.000000
17727.000000,4143.000000,10025.000000,52024.000000
17727.000000,4232.000000,10055.000000,51985.000000
17863.000000,4406.000000,10265.000000,52128.000000
18029.000000,4393.000000,10349.000000,52189.000000
18110.000000,4469.000000,10425.000000,52128.000000
18101.000000,4475.000000,10431.000000,52266.000000
18292.000000,4582.000000,10517.000000,52379.000000
18273.000000,4598.000000,10595.000000,52276.000000
18330.000000,4525.000000,10620.000000,52355.000000
18318.000000,4614.000000,10643.000000,52280.000000
18284.000000,4605.000000,10615.000000,52340.000000
18373.000000,4632.000000,10580.000000,52344.000000
18325.000000,4606.000000,10642.000000,52295.000000
18305.000000,4565.000000,10624.000000,52367.000000
18295.000000,4584.000000,10640.000000,52295.000000
18225.000000,4636.000000,10567.000000,52316.000000
18276.000000,4549.000000,10548.000000,52301.000000
18245.000000,4552.000000,10502.000000,52339.000000
18241.000000,4551.000000,10568.000000,52295.000000
18090.000000,4580.000000,10440.000000,52286.000000
18163.000000,4510.000000,10497.000000,52245.000000
18138.000000,4476.000000,10533.000000,52189.000000
18110.000000,4472.000000,10461.000000,52238.000000
18090.000000,4524.000000,10425.000000,52176.000000
18071.000000,4467.000000,10420.000000,52231.000000
18092.000000,4371.000000,10413.000000,52216.000000
18079.000000,4477.000000,10419.000000,52196.000000
18061.000000,4432.000000,10321.000000,52257.000000
18034.000000,4407.000000,10341.000000,52166.000000
18065.000000,4373.000000,10356.000000,52180.000000
17996.000000,4398.000000,10320.000000,52171.000000
17999.000000,4399.000000,10366.000000,52124.000000
18031.000000,4354.000000,10303.000000,52164.000000
17977.000000,4439.000000,10245.000000,52190.000000
17984.000000,4356.000000,10266.000000,52157.000000
17961.000000,4369.000000,10234.000000,52168.000000
17954.000000,4378.000000,10296.000000,52119.000000
18003.000000,4316.000000,10250.000000,52165.000000
17936.000000,4318.000000,10256.000000,52098.000000
17910.000000,4229.000000,10290.000000,52066.000000
17990.000000,4285.000000,10189.000000,52145.000000
17877.000000,4340.000000,10216.000000,52100.000000
17861.000000,4268.000000,10169.000000,52133.000000
17839.000000,4266.000000,10160.000000,52098.000000
17780.000000,4260.000000,10213.000000,52061.000000
17838.000000,4282.000000,10146.000000,52075.000000
17743.000000,4374.000000,10100.000000,52057.000000
17853.000000,4239.000000,10110.000000,52070.000000
17828.000000,4231.000000,10131.000000,52047.000000
17753.000000,4271.000000,10091.000000,52051.000000
17796.000000,4277.000000,10068.000000,52018.000000
17818.000000,4239.000000,10098.000000,52052.000000
17818.000000,4216.000000,10053.000000,52096.000000
17752.000000,4251.000000,10080.000000,52046.000000
17633.000000,4160.000000,10097.000000,52002.000000
17686.000000,4125.000000,10009.000000,51975.000000
17672.000000,4167.000000,10019.000000,52079.000000
17667.000000,4175.000000,10003.000000,52016.000000
17628.000000,4134.000000,10064.000000,51944.000000
17667.000000,4151.000000,9970.000000,51960.000000
17616.000000,4127.000000,10015.000000,51852.000000
17581.000000,4077.000000,9992.000000,51991.000000
17550.000000,4163.000000,9900.000000,51972.000000
17596.000000,4127.000000,9962.000000,51981.000000
17605.000000,4081.000000,9938.000000,51862.000000
17542.000000,4089.000000,9901.000000,51976.000000
17503.000000,4062.000000,9910.000000,51914.000000
17539.000000,4095.000000,9898.000000,51960.000000
17602.000000,4064.000000,9832.000000,51942.000000
17527.000000,4030.000000,9854.000000,51918.000000
17528.000000,4030.000000,9822.000000,51984.000000
17535.000000,4035.000000,9865.000000,51902.000000
17538.000000,3994.000000,9820.000000,51876.000000
17471.000000,3998.000000,9840.000000,51894.000000
17451.000000,4022.000000,9760.000000,51930.000000
17470.000000,3977.000000,9831.000000,51894.000000
17417.000000,3943.000000,9785.000000,51874.000000
17460.000000,3970.000000,9685.000000,51893.000000
17407.000000,3971.000000,9751.000000,51774.000000
17384.000000,3872.000000,9712.000000,51826.000000
17373.000000,3893.000000,9711.000000,51818.000000
17337.000000,3926.000000,9682.000000,51838.000000
17272.000000,3869.000000,9720.000000,51764.000000
17185.000000,3830.000000,9637.000000,51713.000000
17207.000000,3833.000000,9577.000000,51757.000000
17160.000000,3875.000000,9549.000000,51728.000000
17209.000000,3777.000000,9555.000000,51706.000000
17250.000000,3708.000000,9577.000000,51698.000000
17185.000000,3827.000000,9536.000000,51697.000000
17152.000000,3816.000000,9457.000000,51718.000000
17181.000000,3801.000000,9558.000000,51723.000000
17233.000000,3715.000000,9592.000000,51771.000000
17221.000000,3821.000000,9544.000000,51707.000000
17189.000000,3804.000000,9601.000000,51714.000000
17198.000000,3797.000000,9572.000000,51764.000000
17219.000000,3790.000000,9557.000000,51766.000000
17189.000000,3807.000000,9571.000000,51726.000000
17179.000000,3828.000000,9633.000000,51690.000000
17221.000000,3835.000000,9610.000000,51751.000000
17226.000000,3899.000000,9504.000000,51725.000000
17260.000000,3851.000000,9606.000000,51749.000000
17274.000000,3828.000000,9588.000000,51772.000000
17260.000000,3843.000000,9629.000000,51769.000000
17219.000000,3833.000000,9604.000000,51772.000000
17250.000000,3886.000000,9636.000000,51825.000000
17365.000000,3855.000000,9733.000000,51798.000000
17435.000000,3989.000000,9735.000000,51866.000000
17441.000000,4002.000000,9738.000000,51868.000000
17481.000000,4043.000000,9798.000000,51871.000000
17540.000000,4047.000000,9863.000000,51854.000000
17636.000000,4030.000000,9877.000000,51959.000000
17654.000000,4139.000000,9944.000000,51958.000000
17714.000000,4109.000000,10045.000000,52026.000000
17791.000000,4285.000000,10106.000000,52041.000000
17838.000000,4270.000000,10170.000000,52046.000000
17976.000000,4330.000000,10180.000000,52137.000000
18026.000000,4362.000000,10231.000000,52159.000000
18107.000000,4435.000000,10375.000000,52218.000000
18150.000000,4527.000000,10373.000000,52237.000000
18168.000000,4498.000000,10458.000000,52268.000000
18246.000000,4484.000000,10402.000000,52335.000000
18177.000000,4496.000000,10426.000000,52276.000000
18182.000000,4461.000000,10460.000000,52236.000000
18182.000000,4476.000000,10458.000000,52275.000000
18183.000000,4453.000000,10452.000000,52290.000000
18161.000000,4480.000000,10432.000000,52269.000000
18168.000000,4472.000000,10478.000000,52234.000000
18163.000000,4448.000000,10437.000000,52251.000000
18105.000000,4481.000000,10425.000000,52156.000000
18130.000000,4429.000000,10371.000000,52198.000000
18138.000000,4506.000000,10315.000000,52261.000000
18108.000000,4431.000000,10383.000000,52226.000000
18085.000000,4489.000000,10275.000000,52217.000000
18059.000000,4390.000000,10304.000000,52214.000000
18062.000000,4443.000000,10258.000000,52217.000000
18032.000000,4371.000000,10299.000000,52190.000000
18096.000000,4361.000000,10323.000000,52240.000000
18012.000000,4373.000000,10261.000000,52202.000000
18008.000000,4292.000000,10336.000000,52164.000000
18009.000000,4372.000000,10274.000000,52149.000000
18008.000000,4329.000000,10261.000000,52231.000000
18005.000000,4345.000000,10261.000000,52155.000000
17939.000000,4274.000000,10230.000000,52136.000000
17917.000000,4332.000000,10215.000000,52114.000000
17881.000000,4322.000000,10263.000000,52105.000000
17934.000000,4285.000000,10168.000000,52121.000000
17824.000000,4300.000000,10156.000000,52070.000000
17873.000000,4215.000000,10148.000000,52071.000000
17856.000000,4209.000000,10138.000000,52062.000000
17845.000000,4201.000000,10103.000000,52092.000000
17809.000000,4241.000000,10092.000000,52033.000000
17812.000000,4178.000000,10128.000000,52069.000000
17809.000000,4207.000000,10010.000000,52063.000000
17771.000000,4275.000000,9969.000000,52070.000000
17795.000000,4155.000000,10009.000000,52045.000000
17805.000000,4157.000000,10013.000000,52025.000000
17737.000000,4187.000000,10019.000000,52015.000000
17725.000000,4204.000000,9922.000000,52035.000000
17738.000000,4134.000000,10011.000000,52034.000000
17776.000000,4035.000000,9983.000000,52029.000000
17674.000000,4096.000000,9931.000000,51964.000000
17567.000000,4131.000000,9911.000000,51984.000000
17645.000000,4077.000000,9933.000000,51979.000000
17675.000000,4037.000000,9912.000000,51934.000000
17582.000000,4030.000000,9888.000000,51951.000000
17480.000000,4088.000000,9894.000000,51895.000000
17578.000000,4016.000000,9810.000000,51954.000000
17517.000000,4067.000000,9772.000000,51919.000000
17551.000000,3994.000000,9802.000000,51932.000000
17565.000000,3974.000000,9744.000000,51971.000000
17510.000000,3986.000000,9768.000000,51874.000000
17494.000000,3986.000000,9738.000000,51866.000000
17475.000000,3985.000000,9757.000000,51867.000000
17447.000000,3934.000000,9682.000000,51921.000000
17379.000000,3890.000000,9644.000000,51833.000000
17339.000000,3815.000000,9751.000000,51767.000000
17367.000000,3886.000000,9605.000000,51812.000000
17348.000000,3861.000000,9601.000000,51817.000000
17324.000000,3863.000000,9578.000000,51826.000000
17285.000000,3869.000000,9566.000000,51747.000000
17315.000000,3801.000000,9599.000000,51773.000000
17267.000000,3790.000000,9496.000000,51744.000000
17225.000000,3804.000000,9525.000000,51779.000000
17250.000000,3789.000000,9510.000000,51755.000000
17246.000000,3783.000000,9479.000000,51727.000000
17244.000000,3800.000000,9508.000000,51708.000000
17286.000000,3730.000000,9456.000000,51831.000000
17224.000000,3758.000000,9528.000000,51751.000000
17212.000000,3699.000000,9525.000000,51708.000000
17229.000000,3748.000000,9478.000000,51708.000000
17174.000000,3802.000000,9451.000000,51783.000000
17164.000000,3709.000000,9476.000000,51721.000000
17153.000000,3682.000000,9500.000000,51696.000000
17095.000000,3714.000000,9418.000000,51709.000000
17062.000000,3700.000000,9502.000000,51592.000000
17108.000000,3688.000000,9381.000000,51662.000000
17143.000000,3665.000000,9434.000000,51661.000000
17069.000000,3637.000000,9343.000000,51649.000000
17021.000000,3667.000000,9290.000000,51685.000000
17015.000000,3579.000000,9342.000000,51670.000000
17056.000000,3631.000000,9298.000000,51714.000000
17028.000000,3579.000000,9266.000000,51619.000000
17045.000000,3518.000000,9332.000000,51587.000000
16980.000000,3587.000000,9288.000000,51624.000000
16958.000000,3615.000000,9305.000000,51649.000000
16965.000000,3562.000000,9281.000000,51628.000000
16955.000000,3554.000000,9313.000000,51599.000000
16951.000000,3578.000000,9295.000000,51612.000000
16832.000000,3586.000000,9241.000000,51530.000000
16972.000000,3520.000000,9221.000000,51596.000000
16921.000000,3580.000000,9212.000000,51577.000000
16895.000000,3486.000000,9229.000000,51604.000000
16873.000000,3525.000000,9227.000000,51514.000000
16936.000000,3499.000000,9196.000000,51572.000000
16931.000000,3488.000000,9126.000000,51637.000000
16821.000000,3632.000000,9185.000000,51554.000000
16917.000000,3531.000000,9212.000000,51590.000000
16970.000000,3538.000000,9204.000000,51581.000000
17018.000000,3558.000000,9249.000000,51626.000000
17055.000000,3522.000000,9347.000000,51647.000000
17047.000000,3603.000000,9317.000000,51648.000000
17048.000000,3582.000000,9391.000000,51660.000000
17129.000000,3632.000000,9399.000000,51650.000000
17159.000000,3740.000000,9351.000000,51754.000000
17207.000000,3726.000000,9443.000000,51725.000000
17267.000000,3751.000000,9522.000000,51695.000000
17280.000000,3782.000000,9502.000000,51754.000000
17316.000000,3891.000000,9592.000000,51783.000000
17390.000000,3927.000000,9674.000000,51863.000000
17497.000000,4006.000000,9638.000000,51901.000000
17667.000000,4080.000000,9860.000000,52022.000000
17709.000000,4103.000000,9893.000000,52018.000000
17812.000000,4155.000000,9936.000000,52007.000000
17894.000000,4084.000000,9976.000000,52109.000000
17850.000000,4188.000000,9984.000000,52091.000000
17838.000000,4140.000000,10088.000000,52064.000000
17876.000000,4196.000000,10035.000000,52105.000000
17858.000000,4184.000000,10082.000000,52065.000000
17865.000000,4191.000000,10049.000000,52139.000000
17839.000000,4227.000000,10056.000000,52121.000000
17861.000000,4191.000000,10039.000000,52071.000000
17870.000000,4225.000000,10080.000000,52052.000000
17856.000000,4141.000000,10062.000000,52094.000000
17899.000000,4222.000000,10003.000000,52130.000000
17813.000000,4203.000000,10070.000000,52046.000000
17843.000000,4167.000000,9975.000000,52082.000000
17767.000000,4199.000000,9959.000000,52044.000000
17746.000000,4123.000000,9955.000000,52065.000000
17793.000000,4153.000000,9903.000000,52025.000000
17763.000000,4122.000000,9964.000000,52001.000000
17735.000000,4061.000000,9922.000000,52026.000000
17693.000000,4073.000000,9925.000000,51989.000000
17651.000000,4107.000000,9919.000000,51980.000000
17713.000000,4109.000000,9905.000000,51982.000000
17720.000000,4064.000000,9966.000000,51969.000000
17679.000000,4077.000000,9881.000000,52030.000000
17651.000000,4115.000000,9898.000000,51932.000000
17654.000000,4090.000000,9886.000000,52010.000000
17777.000000,4090.000000,9823.000000,52034.000000
17684.000000,4062.000000,9857.000000,51990.000000
17652.000000,4062.000000,9792.000000,52016.000000
17650.000000,4078.000000,9858.000000,51963.000000
17662.000000,4007.000000,9810.000000,52042.000000
17670.000000,4044.000000,9864.000000,51962.000000
17661.000000,3995.000000,9919.000000,51955.000000
17646.000000,4041.000000,9853.000000,51964.000000
17527.000000,4073.000000,9844.000000,51934.000000
17637.000000,4022.000000,9850.000000,51977.000000
17681.000000,3997.000000,9868.000000,51962.000000
17671.000000,4076.000000,9852.000000,51972.000000
17603.000000,4018.000000,9889.000000,51907.000000
17616.000000,4032.000000,9856.000000,51972.000000
17581.000000,4075.000000,9838.000000,51918.000000
17606.000000,4016.000000,9817.000000,51939.000000
17605.000000,4030.000000,9824.000000,51897.000000
17576.000000,3975.000000,9755.000000,51936.000000
17532.000000,4010.000000,9781.000000,51891.000000
17454.000000,3961.000000,9787.000000,51889.000000
17496.000000,3954.000000,9736.000000,51925.000000
17458.000000,3982.000000,9702.000000,51903.000000
17503.000000,3948.000000,9745.000000,51841.000000
17471.000000,3908.000000,9687.000000,51867.000000
17447.000000,3902.000000,9726.000000,51888.000000
17432.000000,3948.000000,9646.000000,51863.000000
17440.000000,3925.000000,9664.000000,51846.000000
17447.000000,3870.000000,9682.000000,51879.000000
17396.000000,3867.000000,9680.000000,51800.000000
17389.000000,3843.000000,9751.000000,51816.000000
17412.000000,3921.000000,9626.000000,51792.000000
17297.000000,3859.000000,9658.000000,51855.000000
17357.000000,3857.000000,9645.000000,51844.000000
17398.000000,3817.000000,9671.000000,51789.000000
17337.000000,3850.000000,9632.000000,51845.000000
17264.000000,3866.000000,9654.000000,51758.000000
17308.000000,3851.000000,9609.000000,51784.000000
17350.000000,3841.000000,9536.000000,51845.000000
17309.000000,3836.000000,9602.000000,51785.000000
17310.000000,3812.000000,9607.000000,51793.000000
17323.000000,3848.000000,9579.000000,51804.000000
17380.000000,3794.000000,9612.000000,51907.000000
17323.000000,3843.000000,9629.000000,51783.000000
17384.000000,3741.000000,9663.000000,51808.000000
17331.000000,3833.000000,9611.000000,51794.000000
17280.000000,3858.000000,9588.000000,51827.000000
17249.000000,3818.000000,9592.000000,51819.000000
17250.000000,3787.000000,9545.000000,51815.000000
17190.000000,3770.000000,9559.000000,51749.000000
17151.000000,3736.000000,9572.000000,51684.000000
17208.000000,3818.000000,9492.000000,51728.000000
17097.000000,3757.000000,9450.000000,51739.000000
17143.000000,3717.000000,9457.000000,51690.000000
17084.000000,3743.000000,9448.000000,51701.000000
17068.000000,3734.000000,9444.000000,51684.000000
17065.000000,3703.000000,9417.000000,51649.000000
17062.000000,3611.000000,9401.000000,51628.000000
17023.000000,3632.000000,9371.000000,51683.000000
16971.000000,3675.000000,9347.000000,51637.000000
17058.000000,3688.000000,9331.000000,51649.000000
17077.000000,3654.000000,9344.000000,51670.000000
17038.000000,3661.000000,9397.000000,51608.000000
17007.000000,3694.000000,9331.000000,51645.000000
17081.000000,3682.000000,9389.000000,51651.000000
17104.000000,3688.000000,9348.000000,51737.000000
17101.000000,3703.000000,9416.000000,51687.000000
17189.000000,3678.000000,9413.000000,51777.000000
17148.000000,3732.000000,9448.000000,51685.000000
17198.000000,3661.000000,9517.000000,51663.000000
17206.000000,3738.000000,9519.000000,51781.000000
17184.000000,3776.000000,9491.000000,51789.000000
17243.000000,3797.000000,9626.000000,51780.000000
17296.000000,3905.000000,9579.000000,51843.000000
17320.000000,3876.000000,9632.000000,51788.000000
17318.000000,3870.000000,9669.000000,51803.000000
17343.000000,3912.000000,9658.000000,51790.000000
17353.000000,4006.000000,9654.000000,51817.000000
17429.000000,3927.000000,9749.000000,51844.000000
17685.000000,4061.000000,9968.000000,51943.000000
17668.000000,4165.000000,10000.000000,52054.000000
17792.000000,4219.000000,9985.000000,52086.000000
17834.000000,4188.000000,10126.000000,52113.000000
17898.000000,4217.000000,10179.000000,52185.000000
18071.000000,4350.000000,10252.000000,52180.000000
18075.000000,4330.000000,10340.000000,52190.000000
18121.000000,4357.000000,10376.000000,52199.000000
18074.000000,4434.000000,10357.000000,52255.000000
18149.000000,4375.000000,10390.000000,52264.000000
18110.000000,4408.000000,10396.000000,52185.000000
18073.000000,4381.000000,10341.000000,52197.000000
18102.000000,4380.000000,10296.000000,52193.000000
18092.000000,4498.000000,10293.000000,52212.000000
18082.000000,4367.000000,10345.000000,52218.000000
18086.000000,4377.000000,10326.000000,52203.000000
18040.000000,4401.000000,10312.000000,52176.000000
18020.000000,4440.000000,10256.000000,52165.000000
17974.000000,4365.000000,10284.000000,52210.000000
17984.000000,4373.000000,10301.000000,52172.000000
18052.000000,4358.000000,10251.000000,52178.000000
18058.000000,4314.000000,10264.000000,52250.000000
18006.000000,4310.000000,10252.000000,52186.000000
17953.000000,4348.000000,10260.000000,52129.000000
17953.000000,4312.000000,10210.000000,52148.000000
17977.000000,4290.000000,10139.000000,52170.000000
17904.000000,4268.000000,10175.000000,52138.000000
17917.000000,4287.000000,10121.000000,52100.000000
17874.000000,4295.000000,10169.000000,52132.000000
17889.000000,4241.000000,10117.000000,52186.000000
17889.000000,4274.000000,10167.000000,52109.000000
17947.000000,4218.000000,10136.000000,52156.000000
17841.000000,4241.000000,10107.000000,52096.000000
17830.000000,4233.000000,10101.000000,52157.000000
17851.000000,4208.000000,10082.000000,52043.000000
17808.000000,4194.000000,10111.000000,52028.000000
17830.000000,4225.000000,10059.000000,52088.000000
17796.000000,4257.000000,10060.000000,52066.000000
17761.000000,4152.000000,10161.000000,52047.000000
17806.000000,4206.000000,10018.000000,52064.000000
17775.000000,4239.000000,10057.000000,52015.000000
17746.000000,4175.000000,10014.000000,52052.000000
17766.000000,4138.000000,10067.000000,52023.000000
17734.000000,4176.000000,10036.000000,52047.000000
17743.000000,4169.000000,9972.000000,52053.000000
17715.000000,4161.000000,10006.000000,52068.000000
17787.000000,4111.000000,9932.000000,52112.000000
17702.000000,4149.000000,9992.000000,52002.000000
17750.000000,4083.000000,9987.000000,52037.000000
17643.000000,4058.000000,9933.000000,51967.000000
17674.000000,4031.000000,9952.000000,52021.000000
17596.000000,4057.000000,9925.000000,52015.000000
17615.000000,3991.000000,9977.000000,51965.000000
17625.000000,4079.000000,9890.000000,51963.000000
17552.000000,3950.000000,9970.000000,51918.000000
17535.000000,4000.000000,9854.000000,51955.000000
17512.000000,4027.000000,9819.000000,51975.000000
17537.000000,3991.000000,9797.000000,51914.000000
17412.000000,3981.000000,9812.000000,51823.000000
17453.000000,3960.000000,9776.000000,51892.000000
17378.000000,3974.000000,9672.000000,51913.000000
17389.000000,3909.000000,9740.000000,51885.000000
17448.000000,3903.000000,9711.000000,51849.000000
17388.000000,3901.000000,9683.000000,51830.000000
17406.000000,3871.000000,9704.000000,51809.000000
17363.000000,3903.000000,9694.000000,51821.000000
17366.000000,3926.000000,9626.000000,51885.000000
17341.000000,3882.000000,9670.000000,51853.000000
17373.000000,3845.000000,9649.000000,51852.000000
17359.000000,3879.000000,9680.000000,51858.000000
17392.000000,3807.000000,9648.000000,51807.000000
17391.000000,3855.000000,9632.000000,51830.000000
17334.000000,3862.000000,9645.000000,51860.000000
17299.000000,3849.000000,9600.000000,51786.000000
17333.000000,3831.000000,9669.000000,51854.000000
17288.000000,3810.000000,9612.000000,51821.000000
17268.000000,3795.000000,9607.000000,51746.000000
17272.000000,3746.000000,9617.000000,51783.000000
17246.000000,3771.000000,9568.000000,51808.000000
17221.000000,3753.000000,9525.000000,51810.000000
17188.000000,3749.000000,9539.000000,51757.000000
17186.000000,3687.000000,9563.000000,51755.000000
17114.000000,3717.000000,9482.000000,51725.000000
16999.000000,3794.000000,9457.000000,51665.000000
17098.000000,3720.000000,9388.000000,51693.000000
17122.000000,3711.000000,9436.000000,51687.000000
17084.000000,3692.000000,9415.000000,51676.000000
17091.000000,3768.000000,9399.000000,51716.000000
17152.000000,3702.000000,9474.000000,51699.000000
17200.000000,3728.000000,9388.000000,51790.000000
17118.000000,3725.000000,9473.000000,51703.000000
17195.000000,3700.000000,9508.000000,51701.000000
17175.000000,3724.000000,9488.000000,51727.000000
17188.000000,3813.000000,9480.000000,51782.000000
17232.000000,3816.000000,9542.000000,51756.000000
17198.000000,3805.000000,9591.000000,51739.000000
17257.000000,3805.000000,9569.000000,51785.000000
17207.000000,3859.000000,9617.000000,51742.000000
17271.000000,3841.000000,9607.000000,51766.000000
17291.000000,3879.000000,9661.000000,51765.000000
17295.000000,3877.000000,9644.000000,51811.000000
17318.000000,3919.000000,9703.000000,51811.000000
17414.000000,3930.000000,9688.000000,51867.000000
17376.000000,4007.000000,9719.000000,51874.000000
17401.000000,3946.000000,9787.000000,51865.000000
17453.000000,4001.000000,9755.000000,51978.000000
17435.000000,4077.000000,9819.000000,51895.000000
17621.000000,4124.000000,9896.000000,52020.000000
17684.000000,4187.000000,9976.000000,51994.000000
17761.000000,4207.000000,10073.000000,52056.000000
17829.000000,4249.000000,10087.000000,52110.000000
17905.000000,4292.000000,10191.000000,52164.000000
18030.000000,4247.000000,10323.000000,52178.000000
18050.000000,4411.000000,10351.000000,52247.000000
18242.000000,4473.000000,10525.000000,52311.000000
18235.000000,4540.000000,10526.000000,52327.000000
18241.000000,4659.000000,10507.000000,52301.000000
18279.000000,4577.000000,10565.000000,52364.000000
18338.000000,4505.000000,10543.000000,52384.000000
18271.000000,4579.000000,10548.000000,52339.000000
18229.000000,4565.000000,10549.000000,52324.000000
18228.000000,4564.000000,10556.000000,52319.000000
18262.000000,4514.000000,10534.000000,52350.000000
18215.000000,4553.000000,10515.000000,52326.000000
18203.000000,4505.000000,10587.000000,52288.000000
18210.000000,4558.000000,10525.000000,52297.000000
18134.000000,4590.000000,10528.000000,52265.000000
18193.000000,4527.000000,10480.000000,52289.000000
18153.000000,4522.000000,10556.000000,52256.000000
18175.000000,4494.000000,10471.000000,52285.000000
18127.000000,4555.000000,10444.000000,52279.000000
18140.000000,4472.000000,10450.000000,52290.000000
18073.000000,4522.000000,10374.000000,52233.000000
18121.000000,4434.000000,10378.000000,52261.000000
18065.000000,4427.000000,10398.000000,52234.000000
18077.000000,4404.000000,10369.000000,52239.000000
18063.000000,4450.000000,10316.000000,52274.000000
18013.000000,4467.000000,10371.000000,52232.000000
18117.000000,4357.000000,10406.000000,52246.000000
18066.000000,4393.000000,10338.000000,52225.000000
18065.000000,4416.000000,10331.000000,52176.000000
17996.000000,4413.000000,10339.000000,52156.000000
17984.000000,4366.000000,10330.000000,52194.000000
18019.000000,4326.000000,10295.000000,52201.000000
18006.000000,4353.000000,10358.000000,52149.000000
17979.000000,4310.000000,10372.000000,52195.000000
17996.000000,4355.000000,10297.000000,52202.000000
17871.000000,4337.000000,10340.000000,52169.000000
17947.000000,4351.000000,10297.000000,52145.000000
17908.000000,4359.000000,10213.000000,52200.000000
17885.000000,4298.000000,10207.000000,52117.000000
17814.000000,4348.000000,10189.000000,52086.000000
17877.000000,4247.000000,10198.000000,52145.000000
17859.000000,4294.000000,10095.000000,52205.000000
17881.000000,4287.000000,10171.000000,52112.000000
17816.000000,4297.000000,10126.000000,52150.000000
17822.000000,4237.000000,10127.000000,52092.000000
17799.000000,4241.000000,10210.000000,52096.000000
17815.000000,4198.000000,10136.000000,52105.000000
17738.000000,4193.000000,10227.000000,52034.000000
17779.000000,4228.000000,10132.000000,52087.000000
17760.000000,4292.000000,10090.000000,52091.000000
17746.000000,4203.000000,10103.000000,52094.000000
17762.000000,4147.000000,10110.000000,52048.000000
17702.000000,4206.000000,10083.000000,52063.000000
17736.000000,4214.000000,10042.000000,52099.000000
17715.000000,4168.000000,10052.000000,52025.000000
17713.000000,4133.000000,10094.000000,52015.000000
17688.000000,4170.000000,10059.000000,52030.000000
17694.000000,4160.000000,10047.000000,52022.000000
17677.000000,4133.000000,10022.000000,51972.000000
17672.000000,4122.000000,10011.000000,51978.000000
17672.000000,4100.000000,9948.000000,52031.000000
17623.000000,4102.000000,9993.000000,51932.000000
17592.000000,4085.000000,9948.000000,51979.000000
17599.000000,4076.000000,9941.000000,51950.000000
17514.000000,4135.000000,9924.000000,51970.000000
17544.000000,4061.000000,9920.000000,51964.000000
17533.000000,4036.000000,9969.000000,51942.000000
17529.000000,4054.000000,9881.000000,51965.000000
17493.000000,4023.000000,10009.000000,51943.000000
17539.000000,4056.000000,9910.000000,51928.000000
17476.000000,4079.000000,9904.000000,51919.000000
17528.000000,4045.000000,9861.000000,51959.000000
17514.000000,4108.000000,9802.000000,51977.000000
17503.000000,4008.000000,9855.000000,51941.000000
17432.000000,4049.000000,9775.000000,51915.000000
17429.000000,4010.000000,9800.000000,51926.000000
17457.000000,3958.000000,9740.000000,51963.000000
17449.000000,3965.000000,9803.000000,51872.000000
17241.000000,3948.000000,9719.000000,51866.000000
17298.000000,3898.000000,9725.000000,51836.000000
17274.000000,3873.000000,9777.000000,51751.000000
17275.000000,3884.000000,9671.000000,51825.000000
17204.000000,3840.000000,9719.000000,51766.000000
17215.000000,3829.000000,9638.000000,51807.000000
17223.000000,3846.000000,9601.000000,51826.000000
17250.000000,3864.000000,9647.000000,51762.000000
17267.000000,3790.000000,9563.000000,51799.000000
17261.000000,3836.000000,9647.000000,51782.000000
17232.000000,3877.000000,9618.000000,51816.000000
17250.000000,3874.000000,9666.000000,51777.000000
17308.000000,3850.000000,9687.000000,51823.000000
17300.000000,3899.000000,9684.000000,51820.000000
17313.000000,3839.000000,9781.000000,51796.000000
17342.000000,3880.000000,9723.000000,51869.000000
17336.000000,3897.000000,9684.000000,51835.000000
17351.000000,3862.000000,9747.000000,51857.000000
17296.000000,3958.000000,9730.000000,51826.000000
17298.000000,3893.000000,9783.000000,51856.000000
17345.000000,3916.000000,9722.000000,51816.000000
17367.000000,4010.000000,9681.000000,51857.000000
17402.000000,3962.000000,9765.000000,51866.000000
17427.000000,3972.000000,9773.000000,51853.000000
17420.000000,3972.000000,9798.000000,51894.000000
17441.000000,4053.000000,9767.000000,51930.000000
17486.000000,4016.000000,9824.000000,51956.000000
17543.000000,3968.000000,9850.000000,51961.000000
17543.000000,4075.000000,9893.000000,51937.000000
17604.000000,4031.000000,10019.000000,51894.000000
17650.000000,4122.000000,9967.000000,51994.000000
17625.000000,4227.000000,9997.000000,52064.000000
17947.000000,4279.000000,10210.000000,52119.000000
17908.000000,4394.000000,10298.000000,52108.000000
18045.000000,4366.000000,10337.000000,52227.000000
18261.000000,4436.000000,10501.000000,52279.000000
18228.000000,4582.000000,10531.000000,52327.000000
18284.000000,4615.000000,10552.000000,52407.000000
18281.000000,4626.000000,10635.000000,52375.000000
18316.000000,4561.000000,10631.000000,52397.000000
18329.000000,4601.000000,10603.000000,52370.000000
18312.000000,4604.000000,10652.000000,52356.000000
18323.000000,4640.000000,10640.000000,52405.000000
18293.000000,4638.000000,10668.000000,52353.000000
18387.000000,4621.000000,10590.000000,52369.000000
18384.000000,4586.000000,10651.000000,52322.000000
18363.000000,4630.000000,10607.000000,52382.000000
18363.000000,4627.000000,10605.000000,52373.000000
18351.000000,4616.000000,10618.000000,52429.000000
18315.000000,4655.000000,10565.000000,52401.000000
18261.000000,4617.000000,10638.000000,52338.000000
18274.000000,4561.000000,10565.000000,52361.000000
18249.000000,4573.000000,10573.000000,52348.000000
18217.000000,4568.000000,10597.000000,52332.000000
18225.000000,4644.000000,10515.000000,52301.000000
18178.000000,4522.000000,10547.000000,52291.000000
18206.000000,4438.000000,10589.000000,52326.000000
18197.000000,4534.000000,10505.000000,52311.000000
18096.000000,4529.000000,10509.000000,52324.000000
18188.000000,4515.000000,10490.000000,52288.000000
18218.000000,4443.000000,10538.000000,52264.000000
18124.000000,4524.000000,10485.000000,52297.000000
18080.000000,4569.000000,10407.000000,52220.000000
18108.000000,4480.000000,10423.000000,52282.000000
18138.000000,4474.000000,10369.000000,52366.000000
18078.000000,4441.000000,10425.000000,52244.000000
18084.000000,4426.000000,10423.000000,52237.000000
18066.000000,4427.000000,10355.000000,52217.000000
18029.000000,4436.000000,10334.000000,52295.000000
18048.000000,4410.000000,10367.000000,52241.000000
18005.000000,4296.000000,10364.000000,52209.000000
17983.000000,4323.000000,10311.000000,52215.000000
17918.000000,4363.000000,10294.000000,52211.000000
17935.000000,4306.000000,10285.000000,52190.000000
17898.000000,4301.000000,10282.000000,52171.000000
17897.000000,4324.000000,10211.000000,52163.000000
17865.000000,4288.000000,10293.000000,52103.000000
17933.000000,4277.000000,10200.000000,52125.000000
17848.000000,4257.000000,10220.000000,52063.000000
17868.000000,4260.000000,10185.000000,52150.000000
17809.000000,4267.000000,10115.000000,52170.000000
17818.000000,4222.000000,10139.000000,52118.000000
17790.000000,4220.000000,10120.000000,52050.000000
17760.000000,4180.000000,10106.000000,52036.000000
17759.000000,4223.000000,10056.000000,52080.000000
17742.000000,4165.000000,10135.000000,52074.000000
17681.000000,4224.000000,10038.000000,52112.000000
17700.000000,4186.000000,10066.000000,52049.000000
17680.000000,4143.000000,10033.000000,52070.000000
17665.000000,4125.000000,10001.000000,52000.000000
17625.000000,4111.000000,10024.000000,52063.000000
17616.000000,4196.000000,9912.000000,51980.000000
17649.000000,4124.000000,9971.000000,52013.000000
17681.000000,4111.000000,9909.000000,52069.000000
17636.000000,4081.000000,9931.000000,52012.000000
17716.000000,3969.000000,10001.000000,52001.000000
17628.000000,4124.000000,9961.000000,51978.000000
17577.000000,4091.000000,9909.000000,52052.000000
17610.000000,4062.000000,9947.000000,51997.000000
17622.000000,4021.000000,9982.000000,52004.000000
17577.000000,4028.000000,9888.000000,51997.000000
17500.000000,4118.000000,9874.000000,51933.000000
17458.000000,4027.000000,9882.000000,51965.000000
17437.000000,4014.000000,9801.000000,51898.000000
17433.000000,3957.000000,9768.000000,51919.000000
17400.000000,3981.000000,9741.000000,51929.000000
17441.000000,3953.000000,9761.000000,51928.000000
17444.000000,3918.000000,9785.000000,51909.000000
17375.000000,3954.000000,9771.000000,51895.000000
17388.000000,3856.000000,9823.000000,51871.000000
17359.000000,3915.000000,9747.000000,51896.000000
17397.000000,3900.000000,9759.000000,51922.000000
17335.000000,3927.000000,9742.000000,51878.000000
17291.000000,3831.000000,9722.000000,51854.000000
17279.000000,3842.000000,9626.000000,51811.000000
17188.000000,3825.000000,9589.000000,51778.000000
17250.000000,3798.000000,9654.000000,51767.000000
17189.000000,3808.000000,9598.000000,51770.000000
17170.000000,3776.000000,9581.000000,51815.000000
17198.000000,3766.000000,9575.000000,51760.000000
17156.000000,3686.000000,9558.000000,51782.000000
17105.000000,3749.000000,9505.000000,51741.000000
17106.000000,3750.000000,9568.000000,51712.000000
17132.000000,3749.000000,9568.000000,51749.000000
17194.000000,3702.000000,9530.000000,51731.000000
17186.000000,3755.000000,9551.000000,51748.000000
17145.000000,3795.000000,9468.000000,51763.000000
17178.000000,3790.000000,9533.000000,51754.000000
17294.000000,3754.000000,9510.000000,51865.000000
17167.000000,3810.000000,9578.000000,51772.000000
17215.000000,3751.000000,9640.000000,51766.000000
17263.000000,3840.000000,9613.000000,51787.000000
17308.000000,3815.000000,9651.000000,51817.000000
17277.000000,3828.000000,9647.000000,51809.000000
17318.000000,3937.000000,9720.000000,51814.000000
17401.000000,3927.000000,9733.000000,51887.000000
17436.000000,3924.000000,9770.000000,51874.000000
17453.000000,3978.000000,9811.000000,51931.000000
17519.000000,4046.000000,9871.000000,51886.000000
17578.000000,4072.000000,9886.000000,51955.000000
17574.000000,4162.000000,9893.000000,52004.000000
17689.000000,4160.000000,10007.000000,52047.000000
17915.000000,4272.000000,10214.000000,52123.000000
17926.000000,4337.000000,10254.000000,52207.000000
18003.000000,4380.000000,10323.000000,52263.000000
18019.000000,4451.000000,10382.000000,52194.000000
18198.000000,4487.000000,10541.000000,52303.000000
18287.000000,4497.000000,10555.000000,52388.000000
18227.000000,4543.000000,10635.000000,52375.000000
18257.000000,4574.000000,10574.000000,52366.000000
18271.000000,4552.000000,10563.000000,52397.000000
18291.000000,4609.000000,10573.000000,52419.000000
18313.000000,4601.000000,10601.000000,52346.000000
18245.000000,4581.000000,10634.000000,52348.000000
18280.000000,4583.000000,10602.000000,52401.000000
18239.000000,4623.000000,10607.000000,52322.000000
18293.000000,4557.000000,10580.000000,52379.000000
18295.000000,4541.000000,10628.000000,52337.000000
18257.000000,4533.000000,10533.000000,52354.000000
18195.000000,4606.000000,10496.000000,52375.000000
18247.000000,4535.000000,10507.000000,52328.000000
18309.000000,4517.000000,10438.000000,52412.000000
18180.000000,4529.000000,10492.000000,52334.000000
18243.000000,4407.000000,10545.000000,52310.000000
18172.000000,4484.000000,10440.000000,52321.000000
18117.000000,4509.000000,10483.000000,52309.000000
18116.000000,4453.000000,10478.000000,52285.000000
18112.000000,4449.000000,10451.000000,52373.000000
18124.000000,4452.000000,10400.000000,52297.000000
18125.000000,4380.000000,10506.000000,52285.000000
18105.000000,4454.000000,10454.000000,52249.000000
18026.000000,4427.000000,10476.000000,52199.000000
18094.000000,4426.000000,10408.000000,52255.000000
18031.000000,4476.000000,10349.000000,52276.000000
18065.000000,4427.000000,10345.000000,52225.000000
18017.000000,4459.000000,10335.000000,52198.000000
18062.000000,4411.000000,10353.000000,52260.000000
17997.000000,4449.000000,10295.000000,52240.000000
18085.000000,4393.000000,10356.000000,52233.000000
18090.000000,4368.000000,10308.000000,52265.000000
18062.000000,4395.000000,10342.000000,52260.000000
18028.000000,4400.000000,10299.000000,52258.000000
18016.000000,4400.000000,10335.000000,52204.000000
18004.000000,4354.000000,10323.000000,52258.000000
18050.000000,4428.000000,10295.000000,52193.000000
18018.000000,4365.000000,10330.000000,52231.000000
18016.000000,4391.000000,10293.000000,52261.000000
17995.000000,4378.000000,10343.000000,52213.000000
17941.000000,4367.000000,10257.000000,52229.000000
17942.000000,4349.000000,10277.000000,52168.000000
18003.000000,4332.000000,10249.000000,52248.000000
17928.000000,4318.000000,10296.000000,52214.000000
17911.000000,4204.000000,10281.000000,52136.000000
17861.000000,4303.000000,10243.000000,52155.000000
17762.000000,4335.000000,10210.000000,52164.000000
17837.000000,4250.000000,10226.000000,52170.000000
17897.000000,4244.000000,10232.000000,52145.000000
17779.000000,4264.000000,10200.000000,52134.000000
17784.000000,4234.000000,10234.000000,52097.000000
17782.000000,4248.000000,10193.000000,52086.000000
17744.000000,4310.000000,10180.000000,52017.000000
17786.000000,4239.000000,10124.000000,52081.000000
17679.000000,4307.000000,10118.000000,52076.000000
17740.000000,4237.000000,10151.000000,52122.000000
17784.000000,4172.000000,10121.000000,52086.000000
17713.000000,4185.000000,10104.000000,52099.000000
17716.000000,4253.000000,10022.000000,52067.000000
17706.000000,4207.000000,10089.000000,52055.000000
17750.000000,4188.000000,10024.000000,52152.000000
17691.000000,4164.000000,10073.000000,52087.000000
17732.000000,4163.000000,10110.000000,52049.000000
17634.000000,4167.000000,10039.000000,52061.000000
17656.000000,4151.000000,9996.000000,52064.000000
17654.000000,4109.000000,10074.000000,52053.000000
17683.000000,4136.000000,10081.000000,52050.000000
17701.000000,4136.000000,9974.000000,52080.000000
17604.000000,4102.000000,10058.000000,52014.000000
17648.000000,4143.000000,10021.000000,52015.000000
17633.000000,4127.000000,9996.000000,52065.000000
17574.000000,4147.000000,9974.000000,52079.000000
17571.000000,4129.000000,10081.000000,51996.000000
17578.000000,4101.000000,10066.000000,52013.000000
17557.000000,4124.000000,10005.000000,51963.000000
17533.000000,4023.000000,10041.000000,52017.000000
17522.000000,4087.000000,9975.000000,51933.000000
17404.000000,4099.000000,9919.000000,51970.000000
17481.000000,4030.000000,9868.000000,51911.000000
17477.000000,4022.000000,9900.000000,51967.000000
17434.000000,4007.000000,9893.000000,51908.000000
17372.000000,4001.000000,9861.000000,51898.000000
17397.000000,3976.000000,9780.000000,51895.000000
17398.000000,3891.000000,9796.000000,51975.000000
17388.000000,3949.000000,9808.000000,51914.000000
17354.000000,3951.000000,9846.000000,51845.000000
17349.000000,3959.000000,9818.000000,51926.000000
17349.000000,3977.000000,9802.000000,51949.000000
17361.000000,3986.000000,9846.000000,51888.000000
17393.000000,3948.000000,9854.000000,51900.000000
17386.000000,3987.000000,9846.000000,51912.000000
17367.000000,3917.000000,9909.000000,51898.000000
17360.000000,4004.000000,9855.000000,51899.000000
17390.000000,3982.000000,9874.000000,51856.000000
17391.000000,4015.000000,9831.000000,51873.000000
17334.000000,4047.000000,9823.000000,51942.000000
17418.000000,4018.000000,9822.000000,51943.000000
17433.000000,3999.000000,9913.000000,51880.000000
17465.000000,4031.000000,9862.000000,51966.000000
17408.000000,4061.000000,9881.000000,51920.000000
17452.000000,4074.000000,9887.000000,51956.000000
17450.000000,4086.000000,9857.000000,51988.000000
17465.000000,4038.000000,9954.000000,51972.000000
17517.000000,4114.000000,9998.000000,51939.000000
17585.000000,4094.000000,9993.000000,52041.000000
17677.000000,4259.000000,10071.000000,52071.000000
17689.000000,4234.000000,10148.000000,52045.000000
17794.000000,4296.000000,10164.000000,52154.000000
17783.000000,4396.000000,10231.000000,52113.000000
17922.000000,4390.000000,10347.000000,52179.000000
17957.000000,4432.000000,10382.000000,52221.000000
18039.000000,4435.000000,10434.000000,52285.000000
18016.000000,4543.000000,10492.000000,52269.000000
18169.000000,4530.000000,10542.000000,52332.000000
18207.000000,4620.000000,10580.000000,52363.000000
18253.000000,4578.000000,10657.000000,52392.000000
18408.000000,4616.000000,10768.000000,52437.000000
18385.000000,4709.000000,10790.000000,52431.000000
18354.000000,4747.000000,10733.000000,52446.000000
18382.000000,4717.000000,10776.000000,52455.000000
18405.000000,4687.000000,10747.000000,52517.000000
18396.000000,4692.000000,10774.000000,52418.000000
18309.000000,4681.000000,10816.000000,52381.000000
18372.000000,4687.000000,10758.000000,52426.000000
18337.000000,4729.000000,10716.000000,52474.000000
18325.000000,4666.000000,10730.000000,52412.000000
18260.000000,4634.000000,10711.000000,52349.000000
18281.000000,4647.000000,10713.000000,52388.000000
18239.000000,4642.000000,10744.000000,52329.000000
18268.000000,4625.000000,10677.000000,52423.000000
18227.000000,4607.000000,10627.000000,52350.000000
18194.000000,4602.000000,10652.000000,52369.000000
18125.000000,4609.000000,10563.000000,52347.000000
18181.000000,4516.000000,10613.000000,52394.000000
18189.000000,4549.000000,10528.000000,52403.000000
18117.000000,4546.000000,10583.000000,52336.000000
18177.000000,4527.000000,10533.000000,52304.000000
18172.000000,4501.000000,10542.000000,52367.000000
18170.000000,4537.000000,10519.000000,52309.000000
18096.000000,4527.000000,10516.000000,52261.000000
18106.000000,4445.000000,10496.000000,52359.000000
18087.000000,4454.000000,10471.000000,52367.000000
18026.000000,4430.000000,10457.000000,52296.000000
18033.000000,4451.000000,10410.000000,52302.000000
18036.000000,4421.000000,10457.000000,52269.000000
18072.000000,4358.000000,10474.000000,52297.000000
17974.000000,4437.000000,10438.000000,52260.000000
17959.000000,4393.000000,10491.000000,52190.000000
17992.000000,4402.000000,10423.000000,52222.000000
17896.000000,4490.000000,10390.000000,52198.000000
17948.000000,4387.000000,10374.000000,52197.000000
17955.000000,4381.000000,10364.000000,52237.000000
17954.000000,4372.000000,10367.000000,52190.000000
17902.000000,4424.000000,10342.000000,52193.000000
17940.000000,4365.000000,10322.000000,52215.000000
17867.000000,4388.000000,10279.000000,52219.000000
17921.000000,4345.000000,10314.000000,52231.000000
17961.000000,4311.000000,10259.000000,52229.000000
17835.000000,4312.000000,10293.000000,52165.000000
17869.000000,4331.000000,10227.000000,52193.000000
17806.000000,4273.000000,10242.000000,52156.000000
17795.000000,4205.000000,10204.000000,52225.000000
17741.000000,4231.000000,10192.000000,52122.000000
17768.000000,4193.000000,10246.000000,52128.000000
17754.000000,4256.000000,10188.000000,52129.000000
17687.000000,4187.000000,10232.000000,52063.000000
17762.000000,4192.000000,10144.000000,52139.000000
17673.000000,4206.000000,10184.000000,52086.000000
17748.000000,4170.000000,10112.000000,52143.000000
17631.000000,4216.000000,10103.000000,52065.000000
17636.000000,4155.000000,10115.000000,52086.000000
17653.000000,4202.000000,10069.000000,52104.000000
17542.000000,4234.000000,10079.000000,52010.000000
17612.000000,4166.000000,10079.000000,52058.000000
17601.000000,4144.000000,10090.000000,52054.000000
17606.000000,4114.000000,10059.000000,52050.000000
17610.000000,4092.000000,9958.000000,52067.000000
17526.000000,4122.000000,9978.000000,52015.000000
17515.000000,4007.000000,10060.000000,51995.000000
17483.000000,4061.000000,9970.000000,52029.000000
17535.000000,4016.000000,9970.000000,52051.000000
17502.000000,4023.000000,9910.000000,52008.000000
17369.000000,4018.000000,9986.000000,51937.000000
17457.000000,4045.000000,9922.000000,51960.000000
17367.000000,4103.000000,9867.000000,51964.000000
17421.000000,3983.000000,9899.000000,51948.000000
17418.000000,4005.000000,9799.000000,51975.000000
17335.000000,3898.000000,9818.000000,51913.000000
17296.000000,3886.000000,9779.000000,51946.000000
17311.000000,3903.000000,9794.000000,51897.000000
17285.000000,3878.000000,9787.000000,51902.000000
17243.000000,3881.000000,9718.000000,51886.000000
17266.000000,3847.000000,9818.000000,51789.000000
17263.000000,3857.000000,9721.000000,51829.000000
17216.000000,3907.000000,9749.000000,51871.000000
17222.000000,3865.000000,9728.000000,51850.000000
17237.000000,3830.000000,9740.000000,51808.000000
17201.000000,3845.000000,9731.000000,51816.000000
17178.000000,3847.000000,9757.000000,51811.000000
17288.000000,3854.000000,9682.000000,51910.000000
17247.000000,3902.000000,9702.000000,51884.000000
17217.000000,3849.000000,9749.000000,51897.000000
17237.000000,3898.000000,9701.000000,51837.000000
17227.000000,3905.000000,9705.000000,51917.000000
17285.000000,3882.000000,9738.000000,51858.000000
17250.000000,3908.000000,9765.000000,51859.000000
17282.000000,3909.000000,9763.000000,51854.000000
17235.000000,3894.000000,9794.000000,51876.000000
17338.000000,3897.000000,9829.000000,51947.000000
17366.000000,3964.000000,9769.000000,51956.000000
17333.000000,4014.000000,9794.000000,51865.000000
17383.000000,4102.000000,9832.000000,51895.000000
17481.000000,4040.000000,9909.000000,51960.000000
17557.000000,4021.000000,9871.000000,52052.000000
17566.000000,4069.000000,10007.000000,52011.000000
17671.000000,4039.000000,10082.000000,52028.000000
17620.000000,4173.000000,10070.000000,52050.000000
17683.000000,4225.000000,10092.000000,52142.000000
17778.000000,4235.000000,10173.000000,52153.000000
17989.000000,4321.000000,10367.000000,52285.000000
18061.000000,4430.000000,10468.000000,52248.000000
18131.000000,4437.000000,10541.000000,52248.000000
18147.000000,4526.000000,10532.000000,52352.000000
18116.000000,4566.000000,10555.000000,52376.000000
18275.000000,4564.000000,10681.000000,52395.000000
18281.000000,4599.000000,10707.000000,52389.000000
18285.000000,4598.000000,10676.000000,52427.000000
18260.000000,4621.000000,10733.000000,52370.000000
18283.000000,4578.000000,10684.000000,52413.000000
18218.000000,4672.000000,10680.000000,52388.000000
18336.000000,4595.000000,10658.000000,52437.000000
18281.000000,4606.000000,10689.000000,52402.000000
18277.000000,4595.000000,10653.000000,52429.000000
18219.000000,4597.000000,10666.000000,52359.000000
18281.000000,4553.000000,10582.000000,52448.000000
18249.000000,4590.000000,10579.000000,52370.000000
18182.000000,4554.000000,10657.000000,52389.000000
18210.000000,4588.000000,10588.000000,52456.000000
18169.000000,4616.000000,10642.000000,52355.000000
18218.000000,4550.000000,10594.000000,52386.000000
18186.000000,4532.000000,10629.000000,52382.000000
18157.000000,4556.000000,10596.000000,52358.000000
18194.000000,4546.000000,10507.000000,52343.000000
18107.000000,4478.000000,10543.000000,52331.000000
18267.000000,4490.000000,10478.000000,52398.000000
18133.000000,4489.000000,10504.000000,52353.000000
18046.000000,4532.000000,10471.000000,52340.000000
18074.000000,4473.000000,10475.000000,52342.000000
18125.000000,4382.000000,10523.000000,52374.000000
18082.000000,4460.000000,10479.000000,52335.000000
18104.000000,4360.000000,10505.000000,52306.000000
18023.000000,4457.000000,10488.000000,52310.000000
18058.000000,4400.000000,10562.000000,52244.000000
18051.000000,4399.000000,10480.000000,52336.000000
17996.000000,4458.000000,10455.000000,52313.000000
18035.000000,4439.000000,10436.000000,52285.000000
18033.000000,4398.000000,10475.000000,52291.000000
18011.000000,4433.000000,10426.000000,52229.000000
17945.000000,4416.000000,10488.000000,52193.000000
18002.000000,4393.000000,10404.000000,52224.000000
17908.000000,4436.000000,10398.000000,52282.000000
17990.000000,4377.000000,10405.000000,52246.000000
17988.000000,4364.000000,10406.000000,52252.000000
17951.000000,4364.000000,10364.000000,52212.000000
17918.000000,4414.000000,10340.000000,52236.000000
17951.000000,4316.000000,10347.000000,52237.000000
17944.000000,4342.000000,10294.000000,52282.000000
17860.000000,4336.000000,10347.000000,52207.000000
17923.000000,4287.000000,10307.000000,52211.000000
17929.000000,4316.000000,10270.000000,52261.000000
17857.000000,4320.000000,10284.000000,52258.000000
17830.000000,4332.000000,10270.000000,52188.000000
17878.000000,4275.000000,10228.000000,52208.000000
17788.000000,4299.000000,10170.000000,52150.000000
17800.000000,4259.000000,10254.000000,52172.000000
17823.000000,4247.000000,10223.000000,52186.000000
17784.000000,4233.000000,10226.000000,52126.000000
17695.000000,4154.000000,10123.000000,52182.000000
17691.000000,4159.000000,10134.000000,52139.000000
17731.000000,4114.000000,10168.000000,52141.000000
17689.000000,4186.000000,10130.000000,52070.000000
17606.000000,4139.000000,10153.000000,52079.000000
17662.000000,4150.000000,10074.000000,52085.000000
17545.000000,4219.000000,10060.000000,52002.000000
17625.000000,4126.000000,10077.000000,52050.000000
17562.000000,4168.000000,10036.000000,52100.000000
17588.000000,4113.000000,9991.000000,52012.000000
17509.000000,4113.000000,9962.000000,51958.000000
17576.000000,4075.000000,10002.000000,52029.000000
17551.000000,4149.000000,9954.000000,52077.000000
17569.000000,4107.000000,10017.000000,52062.000000
17548.000000,4129.000000,9943.000000,52027.000000
17566.000000,4096.000000,9997.000000,52001.000000
17549.000000,4073.000000,9932.000000,52073.000000
17533.000000,4084.000000,10003.000000,52045.000000
17581.000000,4015.000000,10028.000000,52058.000000
17491.000000,4084.000000,9998.000000,52021.000000
17538.000000,3988.000000,10032.000000,51976.000000
17476.000000,4060.000000,9974.000000,52007.000000
17429.000000,3999.000000,9903.000000,52047.000000
17399.000000,4025.000000,9929.000000,51958.000000
17422.000000,3986.000000,9922.000000,51932.000000
17420.000000,3990.000000,9836.000000,51959.000000
17383.000000,3934.000000,9858.000000,51916.000000
17399.000000,3899.000000,9779.000000,51970.000000
17314.000000,3973.000000,9817.000000,51873.000000
17320.000000,3908.000000,9760.000000,51884.000000
17288.000000,3883.000000,9773.000000,51896.000000
17288.000000,3909.000000,9718.000000,51929.000000
17262.000000,3891.000000,9808.000000,51803.000000
17222.000000,3935.000000,9713.000000,51791.000000
17255.000000,3880.000000,9735.000000,51855.000000
17185.000000,3922.000000,9684.000000,51868.000000
17229.000000,3853.000000,9759.000000,51861.000000
17205.000000,3905.000000,9721.000000,51872.000000
17248.000000,3871.000000,9748.000000,51866.000000
17287.000000,3903.000000,9655.000000,51940.000000
17243.000000,3881.000000,9722.000000,51887.000000
17328.000000,3846.000000,9816.000000,51816.000000
17258.000000,3901.000000,9750.000000,51900.000000
17260.000000,3922.000000,9735.000000,51931.000000
17309.000000,3920.000000,9752.000000,51922.000000
17420.000000,3866.000000,9810.000000,51967.000000
17319.000000,3937.000000,9799.000000,51911.000000
17334.000000,4025.000000,9875.000000,51979.000000
17431.000000,4022.000000,9931.000000,51963.000000
17516.000000,3992.000000,9979.000000,51949.000000
17509.000000,4115.000000,9969.000000,52047.000000
17541.000000,4094.000000,10084.000000,52004.000000
17755.000000,4220.000000,10147.000000,52149.000000
17757.000000,4353.000000,10231.000000,52230.000000
18093.000000,4394.000000,10481.000000,52316.000000
18089.000000,4453.000000,10540.000000,52334.000000
18203.000000,4563.000000,10670.000000,52371.000000
18292.000000,4577.000000,10638.000000,52446.000000
18297.000000,4670.000000,10653.000000,52453.000000
18323.000000,4666.000000,10729.000000,52416.000000
18278.000000,4734.000000,10699.000000,52435.000000
18314.000000,4609.000000,10705.000000,52478.000000
18395.000000,4584.000000,10663.000000,52476.000000
18312.000000,4614.000000,10680.000000,52443.000000
18332.000000,4552.000000,10745.000000,52374.000000
18316.000000,4626.000000,10653.000000,52431.000000
18302.000000,4624.000000,10622.000000,52522.000000
18271.000000,4563.000000,10656.000000,52449.000000
18315.000000,4536.000000,10671.000000,52438.000000
18248.000000,4606.000000,10649.000000,52448.000000
18233.000000,4481.000000,10737.000000,52391.000000
18204.000000,4546.000000,10663.000000,52450.000000
18183.000000,4569.000000,10650.000000,52356.000000
18237.000000,4573.000000,10595.000000,52391.000000
18196.000000,4536.000000,10617.000000,52323.000000
18187.000000,4540.000000,10589.000000,52369.000000
18107.000000,4526.000000,10554.000000,52342.000000
18143.000000,4496.000000,10546.000000,52349.000000
18065.000000,4522.000000,10485.000000,52344.000000
18150.000000,4464.000000,10535.000000,52358.000000
18120.000000,4513.000000,10481.000000,52367.000000
18115.000000,4458.000000,10505.000000,52290.000000
18051.000000,4489.000000,10448.000000,52344.000000
17993.000000,4463.000000,10502.000000,52282.000000
18082.000000,4401.000000,10413.000000,52340.000000
17969.000000,4448.000000,10481.000000,52273.000000
18077.000000,4372.000000,10453.000000,52333.000000
18012.000000,4459.000000,10433.000000,52299.000000
18061.000000,4373.000000,10447.000000,52289.000000
18017.000000,4388.000000,10469.000000,52261.000000
17994.000000,4399.000000,10395.000000,52337.000000
18036.000000,4331.000000,10337.000000,52315.000000
17951.000000,4365.000000,10352.000000,52278.000000
17959.000000,4268.000000,10396.000000,52261.000000
17902.000000,4344.000000,10336.000000,52233.000000
17835.000000,4361.000000,10304.000000,52260.000000
17903.000000,4294.000000,10310.000000,52229.000000
17910.000000,4244.000000,10338.000000,52205.000000
17919.000000,4315.000000,10324.000000,52200.000000
17818.000000,4333.000000,10316.000000,52142.000000
17875.000000,4269.000000,10263.000000,52189.000000
17869.000000,4291.000000,10211.000000,52282.000000
17856.000000,4268.000000,10259.000000,52184.000000
17830.000000,4266.000000,10237.000000,52152.000000
17805.000000,4219.000000,10230.000000,52167.000000
17788.000000,4270.000000,10119.000000,52218.000000
17772.000000,4229.000000,10188.000000,52164.000000
17764.000000,4159.000000,10157.000000,52226.000000
