660nm,730nm,850nm,940nm
32197.000000,18430.000000,25083.000000,59978.000000
32135.000000,18447.000000,25052.000000,60028.000000
32140.000000,18448.000000,25032.000000,59980.000000
32125.000000,18433.000000,25054.000000,59936.000000
32076.000000,18372.000000,25059.000000,59924.000000
32094.000000,18372.000000,25001.000000,59931.000000
32009.000000,18408.000000,24987.000000,59894.000000
32059.000000,18328.000000,24946.000000,59913.000000
32037.000000,18283.000000,25038.000000,59865.000000
32014.000000,18339.000000,24969.000000,59925.000000
32099.000000,18357.000000,24870.000000,59984.000000
32016.000000,18352.000000,24906.000000,59898.000000
32084.000000,18333.000000,24893.000000,59946.000000
31973.000000,18322.000000,24902.000000,59902.000000
31890.000000,18381.000000,24888.000000,59836.000000
31977.000000,18298.000000,24895.000000,59866.000000
32058.000000,18203.000000,24987.000000,59888.000000
31981.000000,18288.000000,24875.000000,59860.000000
32036.000000,18164.000000,24995.000000,59861.000000
31974.000000,18266.000000,24836.000000,59874.000000
31983.000000,18261.000000,24781.000000,60005.000000
31935.000000,18284.000000,24819.000000,59840.000000
31878.000000,18287.000000,24867.000000,59694.000000
31966.000000,18287.000000,24813.000000,59848.000000
31812.000000,18365.000000,24750.000000,59798.000000
31949.000000,18251.000000,24769.000000,59815.000000
31928.000000,18155.000000,24897.000000,59746.000000
31919.000000,18281.000000,24840.000000,59805.000000
31875.000000,18311.000000,24669.000000,59893.000000
31929.000000,18258.000000,24788.000000,59834.000000
31899.000000,18231.000000,24731.000000,59896.000000
31919.000000,18237.000000,24813.000000,59834.000000
31853.000000,18211.000000,24811.000000,59717.000000
31876.000000,18202.000000,24751.000000,59801.000000
31921.000000,18251.000000,24730.000000,59882.000000
31902.000000,18273.000000,24778.000000,59842.000000
31946.000000,18217.000000,24738.000000,59877.000000
31895.000000,18223.000000,24789.000000,59806.000000
31860.000000,18236.000000,24789.000000,59793.000000
31906.000000,18221.000000,24742.000000,59837.000000
31872.000000,18215.000000,24753.000000,59817.000000
31915.000000,18183.000000,24763.000000,59817.000000
31903.000000,18223.000000,24688.000000,59825.000000
31872.000000,18220.000000,24705.000000,59777.000000
31872.000000,18164.000000,24753.000000,59780.000000
31829.000000,18154.000000,24766.000000,59778.000000
31858.000000,18218.000000,24737.000000,59773.000000
31799.000000,18164.000000,24753.000000,59742.000000
31810.000000,18198.000000,24708.000000,59772.000000
31911.000000,18129.000000,24695.000000,59806.000000
31828.000000,18176.000000,24711.000000,59790.000000
31800.000000,18241.000000,24610.000000,59759.000000
31808.000000,18145.000000,24654.000000,59785.000000
31850.000000,18183.000000,24618.000000,59804.000000
31818.000000,18166.000000,24679.000000,59750.000000
31792.000000,18112.000000,24748.000000,59723.000000
31830.000000,18101.000000,24697.000000,59788.000000
31860.000000,18192.000000,24580.000000,59823.000000
31801.000000,18148.000000,24681.000000,59791.000000
31904.000000,18199.000000,24587.000000,59878.000000
31859.000000,18130.000000,24695.000000,59773.000000
31725.000000,18187.000000,24777.000000,59697.000000
31845.000000,18166.000000,24696.000000,59827.000000
31794.000000,18240.000000,24725.000000,59767.000000
31877.000000,18184.000000,24764.000000,59816.000000
31935.000000,18103.000000,24782.000000,59835.000000
31891.000000,18186.000000,24766.000000,59833.000000
31816.000000,18314.000000,24702.000000,59853.000000
31882.000000,18209.000000,24835.000000,59843.000000
31913.000000,18258.000000,24767.000000,59953.000000
31888.000000,18227.000000,24848.000000,59883.000000
31869.000000,18326.000000,24847.000000,59850.000000
31969.000000,18248.000000,24910.000000,59908.000000
32032.000000,18197.000000,24951.000000,59929.000000
32010.000000,18301.000000,24927.000000,59922.000000
32066.000000,18287.000000,24996.000000,59920.000000
32045.000000,18316.000000,24997.000000,59954.000000
32032.000000,18387.000000,24930.000000,60051.000000
32143.000000,18365.000000,25080.000000,60004.000000
32196.000000,18377.000000,25142.000000,60068.000000
32147.000000,18417.000000,25159.000000,60078.000000
32258.000000,18414.000000,25234.000000,60047.000000
32321.000000,18493.000000,25256.000000,60116.000000
32341.000000,18545.000000,25328.000000,60203.000000
32349.000000,18603.000000,25378.000000,60178.000000
32452.000000,18574.000000,25468.000000,60170.000000
32506.000000,18653.000000,25504.000000,60253.000000
32562.000000,18723.000000,25631.000000,60279.000000
32630.000000,18771.000000,25748.000000,60309.000000
32653.000000,18840.000000,25737.000000,60359.000000
32752.000000,18805.000000,25778.000000,60430.000000
32749.000000,18842.000000,25791.000000,60417.000000
32794.000000,18868.000000,25852.000000,60399.000000
32801.000000,18911.000000,25821.000000,60414.000000
32723.000000,18952.000000,25835.000000,60403.000000
32810.000000,18892.000000,25836.000000,60409.000000
32824.000000,18825.000000,25922.000000,60414.000000
32808.000000,18883.000000,25865.000000,60439.000000
32769.000000,18876.000000,25881.000000,60365.000000
32801.000000,18895.000000,25843.000000,60401.000000
32912.000000,18755.000000,25882.000000,60427.000000
32800.000000,18878.000000,25816.000000,60397.000000
32637.000000,18985.000000,25759.000000,60401.000000
32721.000000,18865.000000,25800.000000,60409.000000
32769.000000,18940.000000,25648.000000,60438.000000
32747.000000,18861.000000,25779.000000,60374.000000
32669.000000,18885.000000,25819.000000,60294.000000
32743.000000,18859.000000,25772.000000,60345.000000
32814.000000,18806.000000,25761.000000,60445.000000
32746.000000,18834.000000,25761.000000,60351.000000
32783.000000,18768.000000,25803.000000,60368.000000
32722.000000,18857.000000,25733.000000,60342.000000
32714.000000,18884.000000,25629.000000,60456.000000
32711.000000,18815.000000,25734.000000,60350.000000
32670.000000,18806.000000,25742.000000,60251.000000
32732.000000,18804.000000,25721.000000,60325.000000
32635.000000,18832.000000,25716.000000,60265.000000
32672.000000,18802.000000,25678.000000,60306.000000
32720.000000,18757.000000,25680.000000,60345.000000
32652.000000,18799.000000,25654.000000,60302.000000
32609.000000,18841.000000,25654.000000,60299.000000
32634.000000,18778.000000,25637.000000,60326.000000
32634.000000,18816.000000,25570.000000,60364.000000
32640.000000,18767.000000,25645.000000,60297.000000
32647.000000,18753.000000,25694.000000,60217.000000
32647.000000,18769.000000,25633.000000,60283.000000
32619.000000,18761.000000,25605.000000,60305.000000
32630.000000,18751.000000,25564.000000,60277.000000
32618.000000,18728.000000,25583.000000,60252.000000
32635.000000,18760.000000,25531.000000,60285.000000
32581.000000,18736.000000,25512.000000,60305.000000
32564.000000,18759.000000,25553.000000,60230.000000
32594.000000,18725.000000,25544.000000,60260.000000
32528.000000,18735.000000,25518.000000,60233.000000
32557.000000,18725.000000,25505.000000,60216.000000
32486.000000,18728.000000,25533.000000,60138.000000
32541.000000,18721.000000,25506.000000,60173.000000
32581.000000,18667.000000,25475.000000,60263.000000
32497.000000,18677.000000,25440.000000,60211.000000
32544.000000,18601.000000,25465.000000,60231.000000
32508.000000,18662.000000,25389.000000,60155.000000
32553.000000,18686.000000,25383.000000,60256.000000
32480.000000,18661.000000,25420.000000,60201.000000
32396.000000,18715.000000,25436.000000,60119.000000
32444.000000,18655.000000,25404.000000,60146.000000
32461.000000,18730.000000,25266.000000,60188.000000
32431.000000,18644.000000,25347.000000,60169.000000
32377.000000,18641.000000,25428.000000,59997.000000
32459.000000,18641.000000,25341.000000,60140.000000
32410.000000,18646.000000,25359.000000,60131.000000
32427.000000,18615.000000,25318.000000,60151.000000
32457.000000,18517.000000,25339.000000,60188.000000
32409.000000,18590.000000,25314.000000,60124.000000
32356.000000,18672.000000,25172.000000,60132.000000
32357.000000,18577.000000,25284.000000,60083.000000
32366.000000,18566.000000,25227.000000,60147.000000
32380.000000,18542.000000,25216.000000,60075.000000
32330.000000,18498.000000,25294.000000,60008.000000
32373.000000,18555.000000,25199.000000,60083.000000
32310.000000,18524.000000,25102.000000,60155.000000
32297.000000,18520.000000,25184.000000,60070.000000
32295.000000,18476.000000,25148.000000,60092.000000
32269.000000,18509.000000,25158.000000,60028.000000
32252.000000,18491.000000,25168.000000,59950.000000
32262.000000,18479.000000,25130.000000,60026.000000
32284.000000,18456.000000,25079.000000,60078.000000
32226.000000,18451.000000,25102.000000,60000.000000
32282.000000,18441.000000,25079.000000,60005.000000
32224.000000,18432.000000,25065.000000,59980.000000
32194.000000,18452.000000,25002.000000,60016.000000
32133.000000,18424.000000,25086.000000,59942.000000
32145.000000,18399.000000,25021.000000,59973.000000
32177.000000,18403.000000,25020.000000,59949.000000
32120.000000,18362.000000,24968.000000,59953.000000
32135.000000,18323.000000,24987.000000,59964.000000
32111.000000,18367.000000,24935.000000,59943.000000
32070.000000,18417.000000,24896.000000,59898.000000
32095.000000,18318.000000,24927.000000,59884.000000
32057.000000,18355.000000,24906.000000,59944.000000
32067.000000,18308.000000,24881.000000,59902.000000
31999.000000,18327.000000,24939.000000,59816.000000
32044.000000,18325.000000,24881.000000,59877.000000
32079.000000,18324.000000,24757.000000,59958.000000
32019.000000,18268.000000,24852.000000,59844.000000
32101.000000,18201.000000,24815.000000,59883.000000
31999.000000,18242.000000,24816.000000,59883.000000
31898.000000,18325.000000,24774.000000,59764.000000
31989.000000,18233.000000,24789.000000,59847.000000
32038.000000,18145.000000,24897.000000,59785.000000
31923.000000,18209.000000,24747.000000,59834.000000
31915.000000,18168.000000,24847.000000,59695.000000
31940.000000,18230.000000,24723.000000,59819.000000
32006.000000,18165.000000,24751.000000,59824.000000
31898.000000,18221.000000,24689.000000,59784.000000
31865.000000,18256.000000,24691.000000,59734.000000
31913.000000,18167.000000,24686.000000,59798.000000
31899.000000,18197.000000,24588.000000,59880.000000
31864.000000,18147.000000,24674.000000,59780.000000
31799.000000,18240.000000,24665.000000,59690.000000
31868.000000,18140.000000,24639.000000,59767.000000
31911.000000,18064.000000,24662.000000,59762.000000
31851.000000,18160.000000,24621.000000,59728.000000
31849.000000,18072.000000,24673.000000,59699.000000
31815.000000,18115.000000,24613.000000,59715.000000
31755.000000,18189.000000,24547.000000,59752.000000
31809.000000,18116.000000,24588.000000,59740.000000
31832.000000,18108.000000,24659.000000,59645.000000
31824.000000,18101.000000,24570.000000,59684.000000
31786.000000,18153.000000,24627.000000,59652.000000
31846.000000,18091.000000,24544.000000,59733.000000
31822.000000,18128.000000,24557.000000,59759.000000
31814.000000,18151.000000,24562.000000,59687.000000
31823.000000,18136.000000,24566.000000,59720.000000
31837.000000,18116.000000,24562.000000,59713.000000
31809.000000,18118.000000,24526.000000,59745.000000
31781.000000,18140.000000,24510.000000,59678.000000
31803.000000,18095.000000,24569.000000,59658.000000
31784.000000,18068.000000,24590.000000,59730.000000
31808.000000,18095.000000,24545.000000,59710.000000
31735.000000,18144.000000,24564.000000,59678.000000
31800.000000,18061.000000,24520.000000,59695.000000
31850.000000,18005.000000,24566.000000,59751.000000
31775.000000,18083.000000,24514.000000,59698.000000
31704.000000,18138.000000,24492.000000,59662.000000
31754.000000,18055.000000,24513.000000,59668.000000
31791.000000,18061.000000,24424.000000,59753.000000
31721.000000,18051.000000,24518.000000,59695.000000
31666.000000,18093.000000,24521.000000,59580.000000
31721.000000,18021.000000,24466.000000,59657.000000
31856.000000,17984.000000,24372.000000,59756.000000
31718.000000,18026.000000,24473.000000,59655.000000
31811.000000,17946.000000,24476.000000,59741.000000
31749.000000,18038.000000,24448.000000,59681.000000
31623.000000,18101.000000,24427.000000,59664.000000
31715.000000,18024.000000,24471.000000,59704.000000
31751.000000,17991.000000,24524.000000,59686.000000
31757.000000,18019.000000,24513.000000,59696.000000
31800.000000,17981.000000,24640.000000,59616.000000
31772.000000,18044.000000,24553.000000,59717.000000
31772.000000,18106.000000,24413.000000,59814.000000
31822.000000,18058.000000,24569.000000,59725.000000
31808.000000,18123.000000,24560.000000,59754.000000
31808.000000,18065.000000,24590.000000,59767.000000
31760.000000,18141.000000,24585.000000,59729.000000
31862.000000,18119.000000,24649.000000,59777.000000
31946.000000,18047.000000,24713.000000,59819.000000
31865.000000,18152.000000,24674.000000,59819.000000
31882.000000,18112.000000,24725.000000,59793.000000
31924.000000,18144.000000,24734.000000,59837.000000
31878.000000,18233.000000,24693.000000,59906.000000
31964.000000,18178.000000,24789.000000,59856.000000
31956.000000,18166.000000,24829.000000,59824.000000
32003.000000,18232.000000,24816.000000,59886.000000
32040.000000,18263.000000,24955.000000,59911.000000
32099.000000,18216.000000,24914.000000,59951.000000
32071.000000,18341.000000,24971.000000,60002.000000
32149.000000,18358.000000,24938.000000,59993.000000
32147.000000,18382.000000,25090.000000,60000.000000
32219.000000,18365.000000,25085.000000,60028.000000
32252.000000,18408.000000,25148.000000,60099.000000
32280.000000,18533.000000,25144.000000,60089.000000
32354.000000,18496.000000,25293.000000,60140.000000
32368.000000,18528.000000,25387.000000,60112.000000
32481.000000,18611.000000,25421.000000,60233.000000
32544.000000,18657.000000,25495.000000,60296.000000
32585.000000,18707.000000,25608.000000,60322.000000
32744.000000,18677.000000,25615.000000,60381.000000
32680.000000,18784.000000,25729.000000,60372.000000
32651.000000,18940.000000,25679.000000,60386.000000
32770.000000,18822.000000,25808.000000,60414.000000
32810.000000,18828.000000,25758.000000,60459.000000
32817.000000,18856.000000,25812.000000,60381.000000
32739.000000,18832.000000,25941.000000,60313.000000
32790.000000,18854.000000,25823.000000,60403.000000
32915.000000,18882.000000,25712.000000,60533.000000
32790.000000,18876.000000,25816.000000,60369.000000
32867.000000,18807.000000,25768.000000,60502.000000
32809.000000,18854.000000,25797.000000,60404.000000
32719.000000,18945.000000,25715.000000,60395.000000
32774.000000,18838.000000,25759.000000,60387.000000
32830.000000,18791.000000,25880.000000,60327.000000
32804.000000,18858.000000,25744.000000,60392.000000
32779.000000,18765.000000,25841.000000,60331.000000
32768.000000,18863.000000,25749.000000,60348.000000
32769.000000,18837.000000,25656.000000,60507.000000
32756.000000,18835.000000,25743.000000,60357.000000
32775.000000,18770.000000,25772.000000,60331.000000
32719.000000,18806.000000,25704.000000,60330.000000
32755.000000,18797.000000,25758.000000,60326.000000
32705.000000,18810.000000,25703.000000,60320.000000
32731.000000,18779.000000,25626.000000,60418.000000
32728.000000,18788.000000,25670.000000,60318.000000
32680.000000,18764.000000,25700.000000,60221.000000
32700.000000,18804.000000,25690.000000,60323.000000
32644.000000,18800.000000,25639.000000,60264.000000
32659.000000,18769.000000,25611.000000,60325.000000
32743.000000,18726.000000,25657.000000,60277.000000
32684.000000,18769.000000,25612.000000,60304.000000
32626.000000,18730.000000,25589.000000,60314.000000
32692.000000,18738.000000,25601.000000,60311.000000
32661.000000,18744.000000,25595.000000,60277.000000
32630.000000,18797.000000,25525.000000,60322.000000
32600.000000,18733.000000,25564.000000,60254.000000
32613.000000,18693.000000,25601.000000,60224.000000
32615.000000,18734.000000,25535.000000,60240.000000
32565.000000,18714.000000,25581.000000,60243.000000
32606.000000,18727.000000,25517.000000,60241.000000
32649.000000,18605.000000,25570.000000,60236.000000
32613.000000,18722.000000,25509.000000,60206.000000
32552.000000,18771.000000,25435.000000,60269.000000
32566.000000,18700.000000,25466.000000,60204.000000
32637.000000,18661.000000,25418.000000,60277.000000
32564.000000,18682.000000,25455.000000,60211.000000
32443.000000,18731.000000,25528.000000,60111.000000
32556.000000,18682.000000,25441.000000,60207.000000
32641.000000,18602.000000,25413.000000,60326.000000
32535.000000,18647.000000,25427.000000,60182.000000
32539.000000,18541.000000,25521.000000,60130.000000
32500.000000,18634.000000,25381.000000,60182.000000
32517.000000,18716.000000,25294.000000,60262.000000
32497.000000,18638.000000,25402.000000,60170.000000
32483.000000,18596.000000,25422.000000,60056.000000
32486.000000,18639.000000,25336.000000,60137.000000
32396.000000,18639.000000,25350.000000,60042.000000
32421.000000,18584.000000,25309.000000,60167.000000
32477.000000,18482.000000,25395.000000,60014.000000
32433.000000,18599.000000,25293.000000,60125.000000
32416.000000,18578.000000,25212.000000,60122.000000
32400.000000,18543.000000,25261.000000,60081.000000
32433.000000,18564.000000,25195.000000,60180.000000
32410.000000,18554.000000,25242.000000,60064.000000
32336.000000,18539.000000,25270.000000,59963.000000
32369.000000,18492.000000,25206.000000,60111.000000
32344.000000,18529.000000,25167.000000,60081.000000
32356.000000,18498.000000,25196.000000,60092.000000
32349.000000,18425.000000,25216.000000,60006.000000
32330.000000,18532.000000,25133.000000,60078.000000
32295.000000,18486.000000,25081.000000,60106.000000
32276.000000,18454.000000,25129.000000,60026.000000
32306.000000,18448.000000,25114.000000,60040.000000
32257.000000,18464.000000,25050.000000,60011.000000
32214.000000,18456.000000,25063.000000,60002.000000
32184.000000,18424.000000,25095.000000,59934.000000
32261.000000,18408.000000,25036.000000,59985.000000
32205.000000,18410.000000,25068.000000,60009.000000
32204.000000,18386.000000,25012.000000,59962.000000
32227.000000,18387.000000,25048.000000,59912.000000
32192.000000,18420.000000,24996.000000,59958.000000
32271.000000,18333.000000,24972.000000,60025.000000
32174.000000,18338.000000,25001.000000,59932.000000
32251.000000,18331.000000,24954.000000,59970.000000
32151.000000,18344.000000,24934.000000,59937.000000
32065.000000,18423.000000,24842.000000,59951.000000
32081.000000,18329.000000,24891.000000,59922.000000
32111.000000,18238.000000,25047.000000,59809.000000
32085.000000,18341.000000,24861.000000,59869.000000
32007.000000,18401.000000,24844.000000,59817.000000
32055.000000,18296.000000,24843.000000,59872.000000
32123.000000,18175.000000,24892.000000,59873.000000
32061.000000,18317.000000,24832.000000,59871.000000
31984.000000,18386.000000,24690.000000,59945.000000
32020.000000,18241.000000,24798.000000,59842.000000
32031.000000,18251.000000,24643.000000,59937.000000
31963.000000,18250.000000,24760.000000,59815.000000
31901.000000,18297.000000,24747.000000,59749.000000
31961.000000,18222.000000,24742.000000,59804.000000
32028.000000,18135.000000,24718.000000,59855.000000
31957.000000,18205.000000,24672.000000,59792.000000
31987.000000,18115.000000,24748.000000,59747.000000
31907.000000,18158.000000,24648.000000,59795.000000
31963.000000,18163.000000,24597.000000,59916.000000
31874.000000,18168.000000,24635.000000,59769.000000
31837.000000,18176.000000,24657.000000,59700.000000
31887.000000,18154.000000,24650.000000,59768.000000
31845.000000,18204.000000,24608.000000,59724.000000
31911.000000,18147.000000,24620.000000,59732.000000
31916.000000,18074.000000,24674.000000,59776.000000
31849.000000,18133.000000,24596.000000,59754.000000
31845.000000,18115.000000,24582.000000,59737.000000
31866.000000,18132.000000,24577.000000,59730.000000
31821.000000,18148.000000,24497.000000,59786.000000
31798.000000,18133.000000,24588.000000,59717.000000
31832.000000,18092.000000,24599.000000,59701.000000
31895.000000,18083.000000,24531.000000,59751.000000
31835.000000,18096.000000,24592.000000,59722.000000
31868.000000,18051.000000,24611.000000,59725.000000
31849.000000,18102.000000,24548.000000,59722.000000
31850.000000,18094.000000,24530.000000,59759.000000
31827.000000,18094.000000,24523.000000,59691.000000
31747.000000,18097.000000,24574.000000,59685.000000
31839.000000,18092.000000,24540.000000,59715.000000
31722.000000,18153.000000,24503.000000,59706.000000
31846.000000,18088.000000,24533.000000,59718.000000
31766.000000,18064.000000,24588.000000,59645.000000
31816.000000,18083.000000,24513.000000,59687.000000
31961.000000,18014.000000,24479.000000,59804.000000
31822.000000,18093.000000,24477.000000,59705.000000
31893.000000,17991.000000,24469.000000,59733.000000
31801.000000,18030.000000,24500.000000,59688.000000
31723.000000,18143.000000,24329.000000,59705.000000
31763.000000,18046.000000,24481.000000,59660.000000
31718.000000,17984.000000,24555.000000,59566.000000
31754.000000,18028.000000,24480.000000,59691.000000
31742.000000,18131.000000,24346.000000,59734.000000
31756.000000,18014.000000,24450.000000,59681.000000
31683.000000,18044.000000,24473.000000,59560.000000
31752.000000,17976.000000,24451.000000,59652.000000
31775.000000,17947.000000,24477.000000,59700.000000
31748.000000,17985.000000,24412.000000,59661.000000
31794.000000,17893.000000,24503.000000,59656.000000
31755.000000,18004.000000,24438.000000,59651.000000
31750.000000,18053.000000,24351.000000,59765.000000
31767.000000,18030.000000,24448.000000,59675.000000
31757.000000,17969.000000,24552.000000,59626.000000
31809.000000,18014.000000,24469.000000,59691.000000
31749.000000,18033.000000,24524.000000,59631.000000
31793.000000,18029.000000,24528.000000,59740.000000
31877.000000,17971.000000,24515.000000,59770.000000
31826.000000,18032.000000,24555.000000,59748.000000
31801.000000,18076.000000,24559.000000,59726.000000
31779.000000,18087.000000,24578.000000,59757.000000
31843.000000,18085.000000,24522.000000,59817.000000
31832.000000,18087.000000,24616.000000,59794.000000
31888.000000,18074.000000,24673.000000,59728.000000
31945.000000,18082.000000,24648.000000,59844.000000
31935.000000,18132.000000,24679.000000,59847.000000
31952.000000,18130.000000,24745.000000,59862.000000
31975.000000,18168.000000,24718.000000,59888.000000
32022.000000,18130.000000,24851.000000,59913.000000
32018.000000,18211.000000,24814.000000,59924.000000
31992.000000,18313.000000,24830.000000,59881.000000
32085.000000,18253.000000,24916.000000,59978.000000
32163.000000,18300.000000,24901.000000,60016.000000
32177.000000,18314.000000,24980.000000,59980.000000
32160.000000,18374.000000,25060.000000,59960.000000
32290.000000,18423.000000,25113.000000,60066.000000
32456.000000,18405.000000,25181.000000,60154.000000
32419.000000,18490.000000,25238.000000,60151.000000
32546.000000,18457.000000,25379.000000,60204.000000
32511.000000,18607.000000,25402.000000,60213.000000
32555.000000,18746.000000,25401.000000,60340.000000
32682.000000,18736.000000,25570.000000,60301.000000
32689.000000,18691.000000,25718.000000,60190.000000
32701.000000,18758.000000,25655.000000,60324.000000
32690.000000,18782.000000,25727.000000,60235.000000
32796.000000,18803.000000,25665.000000,60305.000000
32815.000000,18729.000000,25788.000000,60273.000000
32758.000000,18803.000000,25690.000000,60347.000000
32760.000000,18831.000000,25577.000000,60449.000000
32781.000000,18817.000000,25687.000000,60372.000000
32808.000000,18796.000000,25594.000000,60447.000000
32762.000000,18782.000000,25649.000000,60360.000000
32676.000000,18833.000000,25672.000000,60222.000000
32757.000000,18782.000000,25666.000000,60332.000000
32779.000000,18760.000000,25606.000000,60401.000000
32718.000000,18783.000000,25640.000000,60331.000000
32771.000000,18750.000000,25621.000000,60355.000000
32716.000000,18773.000000,25615.000000,60331.000000
32715.000000,18790.000000,25535.000000,60362.000000
32703.000000,18749.000000,25581.000000,60304.000000
32726.000000,18702.000000,25641.000000,60268.000000
32679.000000,18726.000000,25595.000000,60316.000000
32667.000000,18742.000000,25639.000000,60231.000000
32669.000000,18704.000000,25548.000000,60268.000000
32689.000000,18674.000000,25584.000000,60220.000000
32700.000000,18750.000000,25545.000000,60258.000000
32657.000000,18747.000000,25478.000000,60254.000000
32672.000000,18726.000000,25502.000000,60288.000000
32640.000000,18737.000000,25475.000000,60264.000000
32612.000000,18730.000000,25428.000000,60228.000000
32632.000000,18665.000000,25458.000000,60177.000000
32596.000000,18650.000000,25528.000000,60191.000000
32595.000000,18664.000000,25460.000000,60243.000000
32571.000000,18714.000000,25434.000000,60201.000000
32579.000000,18650.000000,25467.000000,60198.000000
32587.000000,18598.000000,25497.000000,60172.000000
32565.000000,18653.000000,25424.000000,60212.000000
32656.000000,18682.000000,25312.000000,60258.000000
32540.000000,18644.000000,25383.000000,60174.000000
32496.000000,18609.000000,25388.000000,60145.000000
32517.000000,18622.000000,25377.000000,60201.000000
32451.000000,18712.000000,25257.000000,60203.000000
32524.000000,18579.000000,25367.000000,60191.000000
32470.000000,18601.000000,25445.000000,60023.000000
32511.000000,18594.000000,25315.000000,60202.000000
32618.000000,18531.000000,25278.000000,60236.000000
32515.000000,18568.000000,25274.000000,60139.000000
32548.000000,18467.000000,25335.000000,60121.000000
32453.000000,18545.000000,25263.000000,60127.000000
32492.000000,18573.000000,25140.000000,60236.000000
32448.000000,18523.000000,25214.000000,60065.000000
32343.000000,18633.000000,25171.000000,60063.000000
32422.000000,18536.000000,25201.000000,60103.000000
32354.000000,18552.000000,25154.000000,60110.000000
32429.000000,18499.000000,25203.000000,60091.000000
32342.000000,18476.000000,25270.000000,59974.000000
32389.000000,18496.000000,25149.000000,60076.000000
32416.000000,18450.000000,25233.000000,60057.000000
32329.000000,18479.000000,25124.000000,60042.000000
32295.000000,18529.000000,25090.000000,60077.000000
32311.000000,18436.000000,25112.000000,60031.000000
32329.000000,18482.000000,25079.000000,60064.000000
32289.000000,18388.000000,25079.000000,60022.000000
32249.000000,18442.000000,25069.000000,59963.000000
32294.000000,18405.000000,25041.000000,60006.000000
32342.000000,18372.000000,25088.000000,59997.000000
32266.000000,18450.000000,25034.000000,60006.000000
32179.000000,18433.000000,24959.000000,59949.000000
32208.000000,18392.000000,25012.000000,59936.000000
32226.000000,18409.000000,24969.000000,59955.000000
32161.000000,18403.000000,24960.000000,59949.000000
32175.000000,18375.000000,24945.000000,59924.000000
32148.000000,18378.000000,24944.000000,59872.000000
32197.000000,18367.000000,24949.000000,59904.000000
32212.000000,18281.000000,24944.000000,59918.000000
32123.000000,18316.000000,24893.000000,59921.000000
32135.000000,18359.000000,24808.000000,59907.000000
32132.000000,18316.000000,24835.000000,59898.000000
32112.000000,18275.000000,24899.000000,59915.000000
32102.000000,18261.000000,24816.000000,59904.000000
31977.000000,18375.000000,24756.000000,59826.000000
32057.000000,18247.000000,24793.000000,59862.000000
32024.000000,18242.000000,24872.000000,59755.000000
32006.000000,18246.000000,24768.000000,59856.000000
32151.000000,18150.000000,24701.000000,59936.000000
32030.000000,18211.000000,24772.000000,59842.000000
31948.000000,18342.000000,24571.000000,59842.000000
31952.000000,18215.000000,24728.000000,59818.000000
32035.000000,18108.000000,24753.000000,59772.000000
31983.000000,18177.000000,24670.000000,59794.000000
31865.000000,18161.000000,24727.000000,59684.000000
31942.000000,18147.000000,24663.000000,59778.000000
31997.000000,18079.000000,24656.000000,59845.000000
31927.000000,18133.000000,24658.000000,59799.000000
31884.000000,18204.000000,24487.000000,59831.000000
31868.000000,18139.000000,24599.000000,59753.000000
31825.000000,18103.000000,24648.000000,59643.000000
31880.000000,18097.000000,24576.000000,59739.000000
31878.000000,18153.000000,24505.000000,59811.000000
31850.000000,18113.000000,24552.000000,59722.000000
31861.000000,18098.000000,24573.000000,59662.000000
31839.000000,18094.000000,24513.000000,59740.000000
31829.000000,18067.000000,24546.000000,59688.000000
31826.000000,18050.000000,24529.000000,59703.000000
31856.000000,18025.000000,24506.000000,59698.000000
31811.000000,18054.000000,24504.000000,59678.000000
31769.000000,18098.000000,24437.000000,59732.000000
31769.000000,18044.000000,24463.000000,59694.000000
31798.000000,18050.000000,24554.000000,59592.000000
31798.000000,17998.000000,24467.000000,59663.000000
31777.000000,18073.000000,24452.000000,59738.000000
31730.000000,18073.000000,24439.000000,59627.000000
31826.000000,18004.000000,24484.000000,59640.000000
31783.000000,18029.000000,24509.000000,59674.000000
31780.000000,18025.000000,24425.000000,59721.000000
31816.000000,18052.000000,24419.000000,59700.000000
31789.000000,18001.000000,24430.000000,59672.000000
31775.000000,18031.000000,24446.000000,59685.000000
31788.000000,18008.000000,24421.000000,59707.000000
31731.000000,18085.000000,24410.000000,59655.000000
31772.000000,18010.000000,24428.000000,59697.000000
31745.000000,17982.000000,24523.000000,59677.000000
31771.000000,18014.000000,24431.000000,59665.000000
31799.000000,17986.000000,24344.000000,59689.000000
31763.000000,18009.000000,24408.000000,59631.000000
31677.000000,18086.000000,24401.000000,59621.000000
31726.000000,18014.000000,24418.000000,59660.000000
31849.000000,17873.000000,24445.000000,59684.000000
31721.000000,17970.000000,24397.000000,59641.000000
31624.000000,18063.000000,24321.000000,59607.000000
31739.000000,17956.000000,24365.000000,59639.000000
31725.000000,17953.000000,24386.000000,59618.000000
31715.000000,17973.000000,24388.000000,59639.000000
31706.000000,17927.000000,24367.000000,59632.000000
31699.000000,17962.000000,24347.000000,59622.000000
31743.000000,17967.000000,24357.000000,59681.000000
31724.000000,17958.000000,24372.000000,59618.000000
31671.000000,18023.000000,24383.000000,59603.000000
31701.000000,17961.000000,24348.000000,59653.000000
31785.000000,17930.000000,24481.000000,59638.000000
31743.000000,17975.000000,24412.000000,59668.000000
31742.000000,18026.000000,24356.000000,59723.000000
31761.000000,18016.000000,24443.000000,59676.000000
31726.000000,18050.000000,24467.000000,59648.000000
31774.000000,18038.000000,24455.000000,59702.000000
31836.000000,18041.000000,24437.000000,59766.000000
31788.000000,18005.000000,24489.000000,59706.000000
31754.000000,18003.000000,24546.000000,59686.000000
31824.000000,18042.000000,24516.000000,59726.000000
31868.000000,18019.000000,24496.000000,59783.000000
31795.000000,18092.000000,24573.000000,59746.000000
31843.000000,18111.000000,24554.000000,59771.000000
31877.000000,18092.000000,24601.000000,59760.000000
31919.000000,18106.000000,24666.000000,59849.000000
31952.000000,18147.000000,24630.000000,59856.000000
31958.000000,18172.000000,24695.000000,59823.000000
31952.000000,18134.000000,24716.000000,59863.000000
32050.000000,18189.000000,24752.000000,59865.000000
32011.000000,18231.000000,24789.000000,59900.000000
32073.000000,18206.000000,24856.000000,59921.000000
32163.000000,18218.000000,24910.000000,59950.000000
32160.000000,18301.000000,24914.000000,59990.000000
32204.000000,18290.000000,24942.000000,60028.000000
32248.000000,18339.000000,25034.000000,60034.000000
32293.000000,18445.000000,25101.000000,60032.000000
32347.000000,18419.000000,25161.000000,60102.000000
32467.000000,18487.000000,25243.000000,60183.000000
32487.000000,18561.000000,25318.000000,60168.000000
32546.000000,18672.000000,25362.000000,60238.000000
32617.000000,18661.000000,25468.000000,60282.000000
32659.000000,18738.000000,25568.000000,60253.000000
32688.000000,18706.000000,25569.000000,60296.000000
32816.000000,18646.000000,25608.000000,60400.000000
32704.000000,18769.000000,25593.000000,60346.000000
32685.000000,18826.000000,25622.000000,60325.000000
32768.000000,18755.000000,25644.000000,60328.000000
32785.000000,18703.000000,25678.000000,60237.000000
32730.000000,18751.000000,25616.000000,60300.000000
32796.000000,18714.000000,25588.000000,60331.000000
32732.000000,18756.000000,25575.000000,60302.000000
32679.000000,18767.000000,25599.000000,60245.000000
32707.000000,18727.000000,25565.000000,60319.000000
32786.000000,18663.000000,25587.000000,60275.000000
32688.000000,18742.000000,25521.000000,60298.000000
32755.000000,18684.000000,25566.000000,60287.000000
32723.000000,18726.000000,25480.000000,60293.000000
32656.000000,18726.000000,25491.000000,60265.000000
32710.000000,18701.000000,25497.000000,60276.000000
32723.000000,18671.000000,25510.000000,60271.000000
32658.000000,18715.000000,25483.000000,60223.000000
32639.000000,18720.000000,25463.000000,60264.000000
32653.000000,18645.000000,25424.000000,60254.000000
32644.000000,18718.000000,25442.000000,60256.000000
32623.000000,18658.000000,25463.000000,60234.000000
32644.000000,18668.000000,25450.000000,60240.000000
32634.000000,18656.000000,25382.000000,60248.000000
32659.000000,18676.000000,25382.000000,60202.000000
32607.000000,18652.000000,25384.000000,60247.000000
32601.000000,18637.000000,25397.000000,60219.000000
32593.000000,18634.000000,25354.000000,60201.000000
32601.000000,18612.000000,25406.000000,60219.000000
32606.000000,18629.000000,25368.000000,60168.000000
32585.000000,18614.000000,25395.000000,60184.000000
32561.000000,18587.000000,25350.000000,60168.000000
32552.000000,18642.000000,25312.000000,60177.000000
32512.000000,18617.000000,25296.000000,60143.000000
32541.000000,18588.000000,25303.000000,60156.000000
32560.000000,18534.000000,25280.000000,60163.000000
32513.000000,18533.000000,25246.000000,60131.000000
32505.000000,18553.000000,25256.000000,60171.000000
32464.000000,18507.000000,25262.000000,60131.000000
32476.000000,18563.000000,25185.000000,60130.000000
32449.000000,18524.000000,25217.000000,60087.000000
32477.000000,18471.000000,25238.000000,60132.000000
32445.000000,18510.000000,25183.000000,60100.000000
32419.000000,18543.000000,25139.000000,60084.000000
32450.000000,18504.000000,25166.000000,60062.000000
32373.000000,18527.000000,25149.000000,60044.000000
32403.000000,18496.000000,25152.000000,60068.000000
32430.000000,18401.000000,25158.000000,60072.000000
32397.000000,18459.000000,25112.000000,60031.000000
32364.000000,18522.000000,25059.000000,60034.000000
32359.000000,18414.000000,25058.000000,60042.000000
32386.000000,18403.000000,25093.000000,59978.000000
32364.000000,18391.000000,25065.000000,60021.000000
32341.000000,18411.000000,25070.000000,60055.000000
32341.000000,18398.000000,25034.000000,60010.000000
32268.000000,18468.000000,24997.000000,59954.000000
32292.000000,18408.000000,24994.000000,59966.000000
32333.000000,18340.000000,25003.000000,59945.000000
32256.000000,18423.000000,24987.000000,59987.000000
32258.000000,18354.000000,24920.000000,60040.000000
32265.000000,18332.000000,24919.000000,59929.000000
32217.000000,18366.000000,24884.000000,59940.000000
32200.000000,18282.000000,24934.000000,59959.000000
32255.000000,18315.000000,24902.000000,59972.000000
32206.000000,18345.000000,24857.000000,59924.000000
32186.000000,18353.000000,24849.000000,59935.000000
32176.000000,18313.000000,24862.000000,59907.000000
32172.000000,18265.000000,24861.000000,59916.000000
32153.000000,18222.000000,24835.000000,59898.000000
32170.000000,18266.000000,24828.000000,59921.000000
32142.000000,18268.000000,24765.000000,59890.000000
32121.000000,18270.000000,24820.000000,59857.000000
32045.000000,18223.000000,24783.000000,59860.000000
32092.000000,18252.000000,24737.000000,59849.000000
32104.000000,18244.000000,24718.000000,59800.000000
32050.000000,18216.000000,24722.000000,59873.000000
32066.000000,18163.000000,24675.000000,59824.000000
32031.000000,18222.000000,24728.000000,59853.000000
32057.000000,18184.000000,24707.000000,59785.000000
32013.000000,18179.000000,24674.000000,59809.000000
32005.000000,18203.000000,24591.000000,59829.000000
31982.000000,18149.000000,24643.000000,59822.000000
31888.000000,18130.000000,24685.000000,59718.000000
31943.000000,18111.000000,24588.000000,59730.000000
31990.000000,18070.000000,24614.000000,59779.000000
31925.000000,18102.000000,24543.000000,59735.000000
31938.000000,18111.000000,24468.000000,59853.000000
31937.000000,18087.000000,24527.000000,59746.000000
31806.000000,18124.000000,24540.000000,59661.000000
31857.000000,18039.000000,24500.000000,59718.000000
31950.000000,18018.000000,24523.000000,59703.000000
31865.000000,18057.000000,24471.000000,59715.000000
31812.000000,18063.000000,24389.000000,59761.000000
31856.000000,18023.000000,24427.000000,59692.000000
31797.000000,18004.000000,24463.000000,59612.000000
31828.000000,18019.000000,24390.000000,59655.000000
31793.000000,18023.000000,24338.000000,59754.000000
31792.000000,17996.000000,24376.000000,59665.000000
31815.000000,17999.000000,24390.000000,59609.000000
31806.000000,17969.000000,24330.000000,59659.000000
31795.000000,17985.000000,24373.000000,59628.000000
31777.000000,17990.000000,24314.000000,59638.000000
31823.000000,17929.000000,24344.000000,59642.000000
31772.000000,17946.000000,24328.000000,59576.000000
31748.000000,17949.000000,24344.000000,59651.000000
31758.000000,17921.000000,24289.000000,59610.000000
31710.000000,17933.000000,24350.000000,59541.000000
31774.000000,17896.000000,24304.000000,59641.000000
31719.000000,17936.000000,24281.000000,59658.000000
31704.000000,17955.000000,24227.000000,59608.000000
31721.000000,17929.000000,24262.000000,59641.000000
31634.000000,17951.000000,24327.000000,59532.000000
31689.000000,17881.000000,24321.000000,59547.000000
31740.000000,17857.000000,24305.000000,59572.000000
31719.000000,17942.000000,24237.000000,59575.000000
31639.000000,17971.000000,24201.000000,59598.000000
31674.000000,17895.000000,24243.000000,59586.000000
31633.000000,17907.000000,24266.000000,59580.000000
31673.000000,17918.000000,24240.000000,59562.000000
31667.000000,17847.000000,24230.000000,59622.000000
31621.000000,17893.000000,24230.000000,59554.000000
31666.000000,17926.000000,24210.000000,59539.000000
31623.000000,17870.000000,24233.000000,59571.000000
31643.000000,17862.000000,24180.000000,59600.000000
31629.000000,17895.000000,24211.000000,59573.000000
31597.000000,17870.000000,24240.000000,59489.000000
31643.000000,17834.000000,24178.000000,59554.000000
31670.000000,17826.000000,24153.000000,59546.000000
31597.000000,17833.000000,24179.000000,59538.000000
31578.000000,17869.000000,24091.000000,59599.000000
31592.000000,17837.000000,24165.000000,59555.000000
31532.000000,17815.000000,24236.000000,59443.000000
31564.000000,17869.000000,24138.000000,59549.000000
31650.000000,17844.000000,24089.000000,59602.000000
31587.000000,17840.000000,24126.000000,59502.000000
31536.000000,17783.000000,24147.000000,59475.000000
31590.000000,17830.000000,24143.000000,59545.000000
31617.000000,17813.000000,24189.000000,59478.000000
31578.000000,17845.000000,24144.000000,59536.000000
31558.000000,17876.000000,24145.000000,59546.000000
31548.000000,17797.000000,24135.000000,59546.000000
31587.000000,17807.000000,24156.000000,59554.000000
31609.000000,17890.000000,24182.000000,59563.000000
31555.000000,17865.000000,24181.000000,59524.000000
31653.000000,17853.000000,24182.000000,59564.000000
31652.000000,17893.000000,24178.000000,59630.000000
31616.000000,17876.000000,24241.000000,59602.000000
31608.000000,17891.000000,24209.000000,59616.000000
31648.000000,17928.000000,24239.000000,59583.000000
31668.000000,17891.000000,24307.000000,59560.000000
31749.000000,17889.000000,24296.000000,59642.000000
31704.000000,17906.000000,24267.000000,59689.000000
31697.000000,17943.000000,24297.000000,59645.000000
31732.000000,17943.000000,24343.000000,59639.000000
31734.000000,17919.000000,24396.000000,59653.000000
31762.000000,17941.000000,24434.000000,59666.000000
31792.000000,17927.000000,24470.000000,59670.000000
31810.000000,17989.000000,24436.000000,59735.000000
31882.000000,18050.000000,24420.000000,59766.000000
31887.000000,18043.000000,24567.000000,59736.000000
31832.000000,18069.000000,24597.000000,59772.000000
31914.000000,18084.000000,24579.000000,59802.000000
31988.000000,18048.000000,24676.000000,59786.000000
31967.000000,18120.000000,24695.000000,59825.000000
32084.000000,18123.000000,24747.000000,59893.000000
32038.000000,18160.000000,24776.000000,59916.000000
32073.000000,18278.000000,24804.000000,59922.000000
32198.000000,18252.000000,24903.000000,59980.000000
32230.000000,18316.000000,24979.000000,59986.000000
32245.000000,18346.000000,25054.000000,60066.000000
32391.000000,18372.000000,25116.000000,60123.000000
32416.000000,18418.000000,25215.000000,60129.000000
32494.000000,18550.000000,25270.000000,60106.000000
32551.000000,18556.000000,25375.000000,60227.000000
32610.000000,18561.000000,25387.000000,60266.000000
32621.000000,18629.000000,25414.000000,60226.000000
32659.000000,18658.000000,25469.000000,60256.000000
32647.000000,18639.000000,25493.000000,60281.000000
32660.000000,18703.000000,25412.000000,60275.000000
32689.000000,18631.000000,25459.000000,60261.000000
32697.000000,18688.000000,25445.000000,60297.000000
32670.000000,18667.000000,25428.000000,60265.000000
32650.000000,18640.000000,25460.000000,60251.000000
32651.000000,18673.000000,25429.000000,60222.000000
32682.000000,18647.000000,25420.000000,60230.000000
32658.000000,18611.000000,25411.000000,60237.000000
32645.000000,18622.000000,25412.000000,60263.000000
32613.000000,18629.000000,25417.000000,60254.000000
32633.000000,18601.000000,25400.000000,60178.000000
32613.000000,18620.000000,25351.000000,60225.000000
32594.000000,18574.000000,25334.000000,60211.000000
32565.000000,18573.000000,25351.000000,60213.000000
32572.000000,18589.000000,25318.000000,60224.000000
32583.000000,18548.000000,25319.000000,60188.000000
32585.000000,18547.000000,25307.000000,60199.000000
32565.000000,18574.000000,25279.000000,60163.000000
32520.000000,18574.000000,25312.000000,60130.000000
32486.000000,18568.000000,25268.000000,60163.000000
32569.000000,18531.000000,25265.000000,60176.000000
32508.000000,18601.000000,25233.000000,60113.000000
32483.000000,18514.000000,25260.000000,60158.000000
32520.000000,18476.000000,25203.000000,60138.000000
32511.000000,18508.000000,25184.000000,60131.000000
32483.000000,18493.000000,25212.000000,60092.000000
32476.000000,18499.000000,25219.000000,60118.000000
32461.000000,18470.000000,25158.000000,60125.000000
32465.000000,18468.000000,25151.000000,60113.000000
32413.000000,18473.000000,25190.000000,60065.000000
32461.000000,18475.000000,25135.000000,60109.000000
32449.000000,18459.000000,25080.000000,60060.000000
32420.000000,18436.000000,25092.000000,60086.000000
32464.000000,18388.000000,25082.000000,60099.000000
32390.000000,18401.000000,25074.000000,60055.000000
32390.000000,18441.000000,25083.000000,60006.000000
32377.000000,18384.000000,25034.000000,60044.000000
32419.000000,18369.000000,25022.000000,60028.000000
32375.000000,18365.000000,24980.000000,60021.000000
32338.000000,18388.000000,25007.000000,60019.000000
32342.000000,18349.000000,24996.000000,60003.000000
32280.000000,18387.000000,24992.000000,59992.000000
32315.000000,18369.000000,24987.000000,60007.000000
32307.000000,18381.000000,24890.000000,60041.000000
32305.000000,18359.000000,24964.000000,60002.000000
32284.000000,18293.000000,24946.000000,59952.000000
32278.000000,18341.000000,24932.000000,59973.000000
32240.000000,18308.000000,24909.000000,59982.000000
32269.000000,18284.000000,24906.000000,59980.000000
32273.000000,18320.000000,24862.000000,59938.000000
32246.000000,18286.000000,24867.000000,59939.000000
32230.000000,18257.000000,24886.000000,59954.000000
32199.000000,18289.000000,24867.000000,59946.000000
32247.000000,18284.000000,24855.000000,59934.000000
32237.000000,18262.000000,24825.000000,59926.000000
32198.000000,18239.000000,24769.000000,59917.000000
32202.000000,18249.000000,24783.000000,59886.000000
32228.000000,18230.000000,24802.000000,59915.000000
32151.000000,18251.000000,24787.000000,59878.000000
32099.000000,18242.000000,24805.000000,59885.000000
32087.000000,18241.000000,24781.000000,59870.000000
32177.000000,18206.000000,24736.000000,59849.000000
32110.000000,18225.000000,24723.000000,59831.000000
32127.000000,18183.000000,24712.000000,59895.000000
32090.000000,18179.000000,24673.000000,59910.000000
32114.000000,18178.000000,24705.000000,59813.000000
32040.000000,18134.000000,24753.000000,59842.000000
32072.000000,18147.000000,24678.000000,59821.000000
32080.000000,18146.000000,24663.000000,59837.000000
32032.000000,18159.000000,24678.000000,59827.000000
32036.000000,18108.000000,24652.000000,59840.000000
32010.000000,18117.000000,24622.000000,59811.000000
31961.000000,18123.000000,24653.000000,59741.000000
32005.000000,18136.000000,24588.000000,59768.000000
31997.000000,18110.000000,24533.000000,59833.000000
31951.000000,18095.000000,24553.000000,59776.000000
31980.000000,18085.000000,24588.000000,59785.000000
31948.000000,18079.000000,24551.000000,59753.000000
31911.000000,18090.000000,24551.000000,59709.000000
31910.000000,18046.000000,24516.000000,59760.000000
31961.000000,18095.000000,24450.000000,59819.000000
31905.000000,18049.000000,24501.000000,59719.000000
31868.000000,18048.000000,24504.000000,59733.000000
31908.000000,18016.000000,24475.000000,59760.000000
31866.000000,18054.000000,24406.000000,59681.000000
31905.000000,18039.000000,24468.000000,59708.000000
31882.000000,18013.000000,24439.000000,59732.000000
31858.000000,18011.000000,24464.000000,59714.000000
31846.000000,18028.000000,24399.000000,59677.000000
31836.000000,17987.000000,24392.000000,59705.000000
31878.000000,18005.000000,24410.000000,59656.000000
31823.000000,17990.000000,24349.000000,59686.000000
31878.000000,17946.000000,24357.000000,59674.000000
31780.000000,17951.000000,24404.000000,59687.000000
31760.000000,17974.000000,24370.000000,59625.000000
31656.000000,18065.000000,25075.000000,60154.000000
31597.000000,18057.000000,25039.000000,60168.000000
31654.000000,17997.000000,25039.000000,60176.000000
31637.000000,18006.000000,25063.000000,60121.000000
31622.000000,17996.000000,25065.000000,60147.000000
31652.000000,17963.000000,25049.000000,60181.000000
31592.000000,18009.000000,25049.000000,60150.000000
31538.000000,18003.000000,25043.000000,60074.000000
31656.000000,18017.000000,25013.000000,60124.000000
31628.000000,17938.000000,25020.000000,60143.000000
31625.000000,17981.000000,25016.000000,60134.000000
31631.000000,17993.000000,25009.000000,60174.000000
31621.000000,17971.000000,25058.000000,60164.000000
31606.000000,17988.000000,25039.000000,60111.000000
31631.000000,17996.000000,25048.000000,60165.000000
31718.000000,17982.000000,25027.000000,60213.000000
31661.000000,18007.000000,25060.000000,60174.000000
31653.000000,18056.000000,25084.000000,60182.000000
31692.000000,17988.000000,25103.000000,60165.000000
31658.000000,18080.000000,25162.000000,60155.000000
31710.000000,18022.000000,25148.000000,60192.000000
31717.000000,18042.000000,25126.000000,60263.000000
31761.000000,18039.000000,25143.000000,60185.000000
31721.000000,18033.000000,25241.000000,60182.000000
31747.000000,18110.000000,25208.000000,60250.000000
31798.000000,18077.000000,25229.000000,60280.000000
31800.000000,18111.000000,25247.000000,60275.000000
31799.000000,18129.000000,25234.000000,60323.000000
31838.000000,18133.000000,25306.000000,60318.000000
31861.000000,18120.000000,25342.000000,60333.000000
31866.000000,18187.000000,25375.000000,60337.000000
31925.000000,18200.000000,25386.000000,60356.000000
31908.000000,18187.000000,25416.000000,60411.000000
31963.000000,18233.000000,25483.000000,60410.000000
32036.000000,18247.000000,25490.000000,60423.000000
32045.000000,18285.000000,25603.000000,60427.000000
32095.000000,18306.000000,25628.000000,60518.000000
32120.000000,18381.000000,25641.000000,60527.000000
32185.000000,18394.000000,25777.000000,60529.000000
32290.000000,18462.000000,25846.000000,60586.000000
32359.000000,18518.000000,25914.000000,60631.000000
32375.000000,18546.000000,25935.000000,60710.000000
32464.000000,18608.000000,25974.000000,60687.000000
32437.000000,18613.000000,26037.000000,60694.000000
32468.000000,18634.000000,26084.000000,60698.000000
32499.000000,18665.000000,26068.000000,60752.000000
32541.000000,18650.000000,26054.000000,60735.000000
32556.000000,18689.000000,26125.000000,60722.000000
32556.000000,18686.000000,26103.000000,60760.000000
32534.000000,18708.000000,26122.000000,60747.000000
32499.000000,18679.000000,26115.000000,60692.000000
32508.000000,18684.000000,26116.000000,60742.000000
32608.000000,18663.000000,26023.000000,60772.000000
32567.000000,18678.000000,26108.000000,60748.000000
32479.000000,18730.000000,26059.000000,60710.000000
32509.000000,18676.000000,26053.000000,60722.000000
32527.000000,18636.000000,26083.000000,60712.000000
32536.000000,18671.000000,26086.000000,60679.000000
32501.000000,18681.000000,26018.000000,60749.000000
32495.000000,18657.000000,26057.000000,60725.000000
32500.000000,18556.000000,26084.000000,60647.000000
32461.000000,18643.000000,26030.000000,60712.000000
32481.000000,18656.000000,26036.000000,60715.000000
32486.000000,18623.000000,26010.000000,60683.000000
32464.000000,18635.000000,26023.000000,60642.000000
32479.000000,18637.000000,26035.000000,60715.000000
32479.000000,18587.000000,26002.000000,60740.000000
32467.000000,18612.000000,26027.000000,60662.000000
32454.000000,18606.000000,26056.000000,60620.000000
32452.000000,18603.000000,25998.000000,60636.000000
32459.000000,18577.000000,25967.000000,60610.000000
32418.000000,18609.000000,25976.000000,60638.000000
32415.000000,18601.000000,25933.000000,60667.000000
32408.000000,18596.000000,25920.000000,60665.000000
32376.000000,18592.000000,25963.000000,60635.000000
32423.000000,18584.000000,25920.000000,60635.000000
32398.000000,18593.000000,25928.000000,60649.000000
32385.000000,18570.000000,25919.000000,60618.000000
32382.000000,18594.000000,25911.000000,60659.000000
32374.000000,18582.000000,25886.000000,60607.000000
32408.000000,18562.000000,25897.000000,60619.000000
32413.000000,18563.000000,25860.000000,60645.000000
32356.000000,18553.000000,25892.000000,60626.000000
32343.000000,18577.000000,25873.000000,60596.000000
32371.000000,18557.000000,25847.000000,60615.000000
32377.000000,18518.000000,25893.000000,60609.000000
32365.000000,18537.000000,25847.000000,60611.000000
32380.000000,18513.000000,25861.000000,60623.000000
32374.000000,18527.000000,25834.000000,60579.000000
32287.000000,18543.000000,25873.000000,60515.000000
32298.000000,18505.000000,25839.000000,60564.000000
32356.000000,18482.000000,25775.000000,60540.000000
32330.000000,18513.000000,25818.000000,60610.000000
32260.000000,18494.000000,25784.000000,60615.000000
32300.000000,18511.000000,25779.000000,60535.000000
32244.000000,18465.000000,25762.000000,60505.000000
32282.000000,18490.000000,25742.000000,60566.000000
32271.000000,18498.000000,25653.000000,60580.000000
32284.000000,18447.000000,25737.000000,60575.000000
32195.000000,18442.000000,25723.000000,60497.000000
32223.000000,18450.000000,25715.000000,60546.000000
32197.000000,18448.000000,25742.000000,60480.000000
32214.000000,18453.000000,25674.000000,60521.000000
32243.000000,18378.000000,25636.000000,60578.000000
32185.000000,18436.000000,25701.000000,60492.000000
32150.000000,18404.000000,25717.000000,60412.000000
32186.000000,18358.000000,25654.000000,60513.000000
32236.000000,18394.000000,25638.000000,60493.000000
32173.000000,18359.000000,25652.000000,60459.000000
32133.000000,18421.000000,25583.000000,60531.000000
32165.000000,18373.000000,25603.000000,60460.000000
32165.000000,18312.000000,25660.000000,60442.000000
32120.000000,18347.000000,25604.000000,60460.000000
32103.000000,18399.000000,25533.000000,60450.000000
32101.000000,18337.000000,25565.000000,60430.000000
32109.000000,18348.000000,25582.000000,60420.000000
32126.000000,18315.000000,25522.000000,60439.000000
32050.000000,18326.000000,25584.000000,60389.000000
32108.000000,18315.000000,25510.000000,60417.000000
32046.000000,18353.000000,25439.000000,60410.000000
32009.000000,18306.000000,25537.000000,60381.000000
32063.000000,18259.000000,25466.000000,60357.000000
32055.000000,18298.000000,25468.000000,60369.000000
32028.000000,18263.000000,25442.000000,60373.000000
32005.000000,18271.000000,25425.000000,60394.000000
31968.000000,18299.000000,25421.000000,60364.000000
31976.000000,18231.000000,25438.000000,60338.000000
31961.000000,18217.000000,25385.000000,60371.000000
31994.000000,18179.000000,25394.000000,60386.000000
31939.000000,18234.000000,25387.000000,60362.000000
31949.000000,18207.000000,25332.000000,60342.000000
31915.000000,18189.000000,25326.000000,60303.000000
31894.000000,18190.000000,25380.000000,60273.000000
31944.000000,18189.000000,25318.000000,60308.000000
31937.000000,18163.000000,25241.000000,60311.000000
31918.000000,18157.000000,25295.000000,60279.000000
31829.000000,18166.000000,25270.000000,60268.000000
31877.000000,18134.000000,25305.000000,60309.000000
31855.000000,18132.000000,25342.000000,60254.000000
31854.000000,18124.000000,25225.000000,60260.000000
31852.000000,18192.000000,25174.000000,60253.000000
31839.000000,18095.000000,25208.000000,60247.000000
31864.000000,18033.000000,25282.000000,60253.000000
31821.000000,18087.000000,25204.000000,60251.000000
31758.000000,18129.000000,25168.000000,60248.000000
31814.000000,18110.000000,25197.000000,60216.000000
31757.000000,18072.000000,25162.000000,60200.000000
31778.000000,18083.000000,25151.000000,60233.000000
31790.000000,18069.000000,25104.000000,60282.000000
31785.000000,18048.000000,25142.000000,60221.000000
31773.000000,18017.000000,25185.000000,60172.000000
31782.000000,18079.000000,25105.000000,60207.000000
31744.000000,18058.000000,25114.000000,60201.000000
31747.000000,18057.000000,25091.000000,60214.000000
31741.000000,18057.000000,25085.000000,60191.000000
31767.000000,18053.000000,25097.000000,60172.000000
31782.000000,18018.000000,25086.000000,60253.000000
31761.000000,18048.000000,25070.000000,60212.000000
31711.000000,18016.000000,25108.000000,60143.000000
31759.000000,18031.000000,25058.000000,60192.000000
31698.000000,18023.000000,25105.000000,60155.000000
31751.000000,18025.000000,25114.000000,60183.000000
31721.000000,18010.000000,25069.000000,60240.000000
31700.000000,18090.000000,25099.000000,60167.000000
31720.000000,18038.000000,25094.000000,60150.000000
31749.000000,18004.000000,25083.000000,60194.000000
31696.000000,18037.000000,25083.000000,60201.000000
31654.000000,18041.000000,25017.000000,60191.000000
31710.000000,18034.000000,25034.000000,60173.000000
31709.000000,18016.000000,24989.000000,60130.000000
31697.000000,17971.000000,25038.000000,60169.000000
31732.000000,17986.000000,24985.000000,60212.000000
31684.000000,17999.000000,25014.000000,60149.000000
31599.000000,17995.000000,25004.000000,60129.000000
31629.000000,17956.000000,24997.000000,60135.000000
31637.000000,17918.000000,25012.000000,60105.000000
31661.000000,17967.000000,24975.000000,60130.000000
31662.000000,17943.000000,24953.000000,60166.000000
31608.000000,17919.000000,24900.000000,60123.000000
31592.000000,17916.000000,24980.000000,60062.000000
31649.000000,17936.000000,24970.000000,60119.000000
31654.000000,17938.000000,24920.000000,60207.000000
31673.000000,17964.000000,24975.000000,60141.000000
31650.000000,17992.000000,24987.000000,60102.000000
31651.000000,17984.000000,25004.000000,60151.000000
31682.000000,17915.000000,25050.000000,60161.000000
31690.000000,17988.000000,25041.000000,60194.000000
31685.000000,18006.000000,25022.000000,60154.000000
31712.000000,17981.000000,25056.000000,60210.000000
31778.000000,17988.000000,25088.000000,60216.000000
31733.000000,18002.000000,25070.000000,60197.000000
31712.000000,18035.000000,25079.000000,60278.000000
31795.000000,18044.000000,25102.000000,60237.000000
31746.000000,18017.000000,25167.000000,60223.000000
31769.000000,18003.000000,25148.000000,60230.000000
31787.000000,18068.000000,25116.000000,60293.000000
31793.000000,18054.000000,25212.000000,60258.000000
31816.000000,18039.000000,25225.000000,60268.000000
31838.000000,18113.000000,25235.000000,60300.000000
31853.000000,18057.000000,25238.000000,60291.000000
31888.000000,18115.000000,25252.000000,60329.000000
31891.000000,18132.000000,25249.000000,60333.000000
31892.000000,18131.000000,25320.000000,60345.000000
31947.000000,18141.000000,25380.000000,60366.000000
31980.000000,18175.000000,25389.000000,60395.000000
31968.000000,18244.000000,25409.000000,60417.000000
32024.000000,18278.000000,25470.000000,60431.000000
32038.000000,18298.000000,25528.000000,60467.000000
32127.000000,18283.000000,25604.000000,60489.000000
32190.000000,18330.000000,25612.000000,60513.000000
32243.000000,18400.000000,25640.000000,60600.000000
32258.000000,18412.000000,25791.000000,60589.000000
32370.000000,18471.000000,25892.000000,60660.000000
32437.000000,18500.000000,25954.000000,60669.000000
32435.000000,18539.000000,25977.000000,60694.000000
32480.000000,18621.000000,25998.000000,60686.000000
32548.000000,18593.000000,26018.000000,60747.000000
32531.000000,18634.000000,26043.000000,60728.000000
32525.000000,18606.000000,26118.000000,60697.000000
32600.000000,18655.000000,26047.000000,60739.000000
32619.000000,18634.000000,26055.000000,60709.000000
32578.000000,18673.000000,26078.000000,60745.000000
32607.000000,18628.000000,26016.000000,60767.000000
32577.000000,18653.000000,26021.000000,60717.000000
32572.000000,18635.000000,26055.000000,60718.000000
32577.000000,18641.000000,26080.000000,60740.000000
32523.000000,18687.000000,26005.000000,60734.000000
32549.000000,18628.000000,26021.000000,60709.000000
32610.000000,18638.000000,26014.000000,60736.000000
32540.000000,18632.000000,26012.000000,60709.000000
32574.000000,18603.000000,26034.000000,60711.000000
32554.000000,18631.000000,25975.000000,60691.000000
32487.000000,18633.000000,26052.000000,60672.000000
32523.000000,18651.000000,26014.000000,60697.000000
32524.000000,18634.000000,25986.000000,60716.000000
32558.000000,18598.000000,25994.000000,60711.000000
32521.000000,18578.000000,25990.000000,60692.000000
32515.000000,18629.000000,25947.000000,60694.000000
32497.000000,18609.000000,25941.000000,60681.000000
32524.000000,18591.000000,25949.000000,60685.000000
32485.000000,18583.000000,25917.000000,60653.000000
32496.000000,18594.000000,25948.000000,60660.000000
32518.000000,18559.000000,25926.000000,60684.000000
32492.000000,18603.000000,25921.000000,60665.000000
32479.000000,18562.000000,25937.000000,60628.000000
32489.000000,18523.000000,25896.000000,60664.000000
32495.000000,18597.000000,25908.000000,60644.000000
32490.000000,18572.000000,25880.000000,60644.000000
32459.000000,18561.000000,25878.000000,60667.000000
32457.000000,18572.000000,25872.000000,60623.000000
32485.000000,18556.000000,25893.000000,60634.000000
32469.000000,18522.000000,25832.000000,60668.000000
32430.000000,18512.000000,25874.000000,60630.000000
32395.000000,18553.000000,25875.000000,60620.000000
32418.000000,18504.000000,25852.000000,60654.000000
32436.000000,18490.000000,25842.000000,60576.000000
32407.000000,18513.000000,25823.000000,60597.000000
32421.000000,18510.000000,25818.000000,60599.000000
32387.000000,18503.000000,25799.000000,60616.000000
32364.000000,18472.000000,25846.000000,60573.000000
32361.000000,18470.000000,25781.000000,60632.000000
32421.000000,18488.000000,25743.000000,60575.000000
32342.000000,18496.000000,25800.000000,60563.000000
32366.000000,18437.000000,25763.000000,60597.000000
32343.000000,18426.000000,25740.000000,60534.000000
32305.000000,18480.000000,25748.000000,60518.000000
32288.000000,18418.000000,25708.000000,60531.000000
32319.000000,18471.000000,25689.000000,60603.000000
32305.000000,18417.000000,25697.000000,60513.000000
32269.000000,18400.000000,25704.000000,60557.000000
32268.000000,18406.000000,25662.000000,60523.000000
32246.000000,18429.000000,25686.000000,60480.000000
32278.000000,18429.000000,25694.000000,60527.000000
32236.000000,18433.000000,25617.000000,60539.000000
32257.000000,18391.000000,25643.000000,60510.000000
32214.000000,18363.000000,25664.000000,60467.000000
32241.000000,18378.000000,25628.000000,60482.000000
32238.000000,18358.000000,25624.000000,60478.000000
32236.000000,18359.000000,25576.000000,60488.000000
32215.000000,18355.000000,25535.000000,60494.000000
32181.000000,18320.000000,25567.000000,60468.000000
32164.000000,18317.000000,25627.000000,60420.000000
32160.000000,18329.000000,25556.000000,60468.000000
32191.000000,18336.000000,25518.000000,60440.000000
32149.000000,18319.000000,25511.000000,60428.000000
32139.000000,18310.000000,25545.000000,60443.000000
32097.000000,18301.000000,25498.000000,60421.000000
32172.000000,18241.000000,25486.000000,60414.000000
32133.000000,18254.000000,25441.000000,60407.000000
32065.000000,18309.000000,25474.000000,60422.000000
32055.000000,18276.000000,25475.000000,60375.000000
32075.000000,18268.000000,25463.000000,60366.000000
32049.000000,18227.000000,25464.000000,60358.000000
32030.000000,18226.000000,25430.000000,60431.000000
32074.000000,18223.000000,25323.000000,60427.000000
32010.000000,18211.000000,25383.000000,60325.000000
31983.000000,18252.000000,25421.000000,60339.000000
32015.000000,18215.000000,25395.000000,60387.000000
32029.000000,18163.000000,25332.000000,60383.000000
31977.000000,18177.000000,25335.000000,60361.000000
32017.000000,18151.000000,25336.000000,60348.000000
31923.000000,18137.000000,25307.000000,60355.000000
31942.000000,18223.000000,25267.000000,60340.000000
31929.000000,18147.000000,25282.000000,60300.000000
31897.000000,18136.000000,25289.000000,60254.000000
31927.000000,18117.000000,25233.000000,60304.000000
31969.000000,18095.000000,25222.000000,60352.000000
31873.000000,18103.000000,25215.000000,60272.000000
31824.000000,18143.000000,25226.000000,60229.000000
31861.000000,18099.000000,25197.000000,60268.000000
31912.000000,18046.000000,25237.000000,60186.000000
31891.000000,18072.000000,25161.000000,60241.000000
31878.000000,18082.000000,25097.000000,60352.000000
31834.000000,18068.000000,25133.000000,60245.000000
31790.000000,18052.000000,25146.000000,60176.000000
31822.000000,18085.000000,25147.000000,60197.000000
31837.000000,18025.000000,25096.000000,60264.000000
31804.000000,18069.000000,25118.000000,60213.000000
31805.000000,18015.000000,25102.000000,60234.000000
31798.000000,18042.000000,25082.000000,60213.000000
31729.000000,18040.000000,25050.000000,60198.000000
31776.000000,18003.000000,25051.000000,60221.000000
31739.000000,18025.000000,25057.000000,60167.000000
31764.000000,18018.000000,25040.000000,60159.000000
31775.000000,17959.000000,25057.000000,60243.000000
31717.000000,17997.000000,25018.000000,60185.000000
31711.000000,18004.000000,24997.000000,60158.000000
31753.000000,17975.000000,25019.000000,60175.000000
31754.000000,17970.000000,25042.000000,60127.000000
31762.000000,17940.000000,25020.000000,60192.000000
31747.000000,17957.000000,25007.000000,60198.000000
31728.000000,17964.000000,24988.000000,60181.000000
31709.000000,17971.000000,24988.000000,60129.000000
31665.000000,17967.000000,25024.000000,60132.000000
31706.000000,17971.000000,24962.000000,60175.000000
31707.000000,17953.000000,24944.000000,60129.000000
31731.000000,17982.000000,25000.000000,60153.000000
31707.000000,17943.000000,24980.000000,60165.000000
31708.000000,17911.000000,24961.000000,60141.000000
31685.000000,17934.000000,24950.000000,60133.000000
31702.000000,17957.000000,24944.000000,60147.000000
31675.000000,17970.000000,24908.000000,60140.000000
31638.000000,17918.000000,24965.000000,60133.000000
31691.000000,17860.000000,24977.000000,60138.000000
31666.000000,17913.000000,24918.000000,60154.000000
31586.000000,17972.000000,24899.000000,60100.000000
31679.000000,17888.000000,24881.000000,60107.000000
31653.000000,17878.000000,24945.000000,60069.000000
31609.000000,17902.000000,24888.000000,60084.000000
31677.000000,17847.000000,24870.000000,60158.000000
31647.000000,17910.000000,24895.000000,60099.000000
31559.000000,17950.000000,24868.000000,60047.000000
31647.000000,17881.000000,24876.000000,60121.000000
31675.000000,17906.000000,24876.000000,60152.000000
31646.000000,17894.000000,24889.000000,60106.000000
31672.000000,17897.000000,24884.000000,60200.000000
31648.000000,17920.000000,24892.000000,60135.000000
31629.000000,17929.000000,24966.000000,60100.000000
31676.000000,17909.000000,24941.000000,60131.000000
31691.000000,17939.000000,24953.000000,60193.000000
31698.000000,17913.000000,24925.000000,60162.000000
31715.000000,17897.000000,24992.000000,60163.000000
31710.000000,17931.000000,24997.000000,60162.000000
31724.000000,17916.000000,25048.000000,60163.000000
31778.000000,17981.000000,25013.000000,60199.000000
31731.000000,17958.000000,25010.000000,60234.000000
31750.000000,17956.000000,25052.000000,60241.000000
31766.000000,17967.000000,25103.000000,60220.000000
31809.000000,17996.000000,25106.000000,60237.000000
31820.000000,17998.000000,25072.000000,60262.000000
31812.000000,18038.000000,25163.000000,60272.000000
31861.000000,18061.000000,25138.000000,60304.000000
31852.000000,18028.000000,25196.000000,60278.000000
31910.000000,18035.000000,25181.000000,60323.000000
31927.000000,18074.000000,25203.000000,60338.000000
31907.000000,18098.000000,25249.000000,60359.000000
31964.000000,18111.000000,25311.000000,60381.000000
31984.000000,18122.000000,25322.000000,60404.000000
32005.000000,18192.000000,25394.000000,60395.000000
32063.000000,18159.000000,25389.000000,60441.000000
32112.000000,18202.000000,25461.000000,60471.000000
32102.000000,18260.000000,25492.000000,60489.000000
32150.000000,18257.000000,25629.000000,60499.000000
32248.000000,18324.000000,25636.000000,60567.000000
32313.000000,18402.000000,25686.000000,60574.000000
32373.000000,18397.000000,25779.000000,60622.000000
32422.000000,18446.000000,25871.000000,60685.000000
32498.000000,18510.000000,25916.000000,60696.000000
32551.000000,18544.000000,25948.000000,60687.000000
32523.000000,18572.000000,25979.000000,60737.000000
32599.000000,18592.000000,25987.000000,60738.000000
32605.000000,18556.000000,26004.000000,60743.000000
32641.000000,18612.000000,26085.000000,60728.000000
32621.000000,18627.000000,26059.000000,60749.000000
32602.000000,18649.000000,26054.000000,60763.000000
32619.000000,18623.000000,26039.000000,60737.000000
32605.000000,18663.000000,25979.000000,60777.000000
32632.000000,18655.000000,26050.000000,60737.000000
32608.000000,18605.000000,26059.000000,60792.000000
32606.000000,18621.000000,26011.000000,60770.000000
32620.000000,18638.000000,26020.000000,60747.000000
32602.000000,18611.000000,26032.000000,60745.000000
32651.000000,18569.000000,26051.000000,60735.000000
32618.000000,18647.000000,25997.000000,60750.000000
32611.000000,18588.000000,26033.000000,60767.000000
32580.000000,18627.000000,25992.000000,60752.000000
32587.000000,18638.000000,25997.000000,60686.000000
32612.000000,18633.000000,25955.000000,60733.000000
32584.000000,18574.000000,25969.000000,60737.000000
32543.000000,18619.000000,25961.000000,60692.000000
32543.000000,18587.000000,25949.000000,60714.000000
32550.000000,18581.000000,25955.000000,60704.000000
32547.000000,18579.000000,25935.000000,60670.000000
32530.000000,18537.000000,25954.000000,60691.000000
32527.000000,18549.000000,25923.000000,60744.000000
32516.000000,18634.000000,25900.000000,60649.000000
32544.000000,18528.000000,25919.000000,60670.000000
32537.000000,18552.000000,25884.000000,60696.000000
32517.000000,18544.000000,25893.000000,60692.000000
32539.000000,18522.000000,25884.000000,60696.000000
32514.000000,18532.000000,25867.000000,60629.000000
32529.000000,18554.000000,25869.000000,60652.000000
32502.000000,18523.000000,25878.000000,60666.000000
32477.000000,18474.000000,25886.000000,60634.000000
32506.000000,18508.000000,25867.000000,60659.000000
32493.000000,18523.000000,25858.000000,60644.000000
32430.000000,18512.000000,25830.000000,60654.000000
32486.000000,18538.000000,25796.000000,60665.000000
32478.000000,18491.000000,25816.000000,60634.000000
32446.000000,18461.000000,25844.000000,60635.000000
32423.000000,18499.000000,25790.000000,60621.000000
32452.000000,18441.000000,25774.000000,60634.000000
32426.000000,18473.000000,25751.000000,60604.000000
32460.000000,18461.000000,25747.000000,60658.000000
32414.000000,18475.000000,25773.000000,60643.000000
32349.000000,18481.000000,25791.000000,60555.000000
32429.000000,18437.000000,25755.000000,60611.000000
32391.000000,18486.000000,25709.000000,60602.000000
32390.000000,18430.000000,25721.000000,60583.000000
32367.000000,18428.000000,25697.000000,60568.000000
32368.000000,18441.000000,25708.000000,60585.000000
32371.000000,18395.000000,25714.000000,60543.000000
32368.000000,18425.000000,25702.000000,60559.000000
32371.000000,18409.000000,25667.000000,60608.000000
32329.000000,18411.000000,25663.000000,60547.000000
32335.000000,18369.000000,25700.000000,60513.000000
32341.000000,18420.000000,25655.000000,60551.000000
32321.000000,18345.000000,25651.000000,60496.000000
32344.000000,18383.000000,25644.000000,60502.000000
32317.000000,18400.000000,25582.000000,60558.000000
32291.000000,18391.000000,25632.000000,60501.000000
32275.000000,18348.000000,25617.000000,60494.000000
32288.000000,18333.000000,25582.000000,60499.000000
32286.000000,18366.000000,25543.000000,60500.000000
32251.000000,18348.000000,25579.000000,60497.000000
32231.000000,18331.000000,25522.000000,60529.000000
32215.000000,18335.000000,25541.000000,60506.000000
32244.000000,18275.000000,25550.000000,60493.000000
32256.000000,18250.000000,25482.000000,60490.000000
32207.000000,18289.000000,25523.000000,60479.000000
32195.000000,18273.000000,25523.000000,60446.000000
32196.000000,18292.000000,25473.000000,60458.000000
32204.000000,18279.000000,25490.000000,60441.000000
32165.000000,18261.000000,25457.000000,60472.000000
32164.000000,18274.000000,25452.000000,60430.000000
32173.000000,18265.000000,25443.000000,60406.000000
32143.000000,18246.000000,25447.000000,60376.000000
32138.000000,18224.000000,25420.000000,60419.000000
32145.000000,18252.000000,25366.000000,60418.000000
32125.000000,18200.000000,25377.000000,60408.000000
32064.000000,18179.000000,25429.000000,60380.000000
32066.000000,18204.000000,25381.000000,60390.000000
32119.000000,18188.000000,25299.000000,60392.000000
32052.000000,18156.000000,25301.000000,60375.000000
32047.000000,18164.000000,25305.000000,60379.000000
32012.000000,18164.000000,25297.000000,60333.000000
32008.000000,18128.000000,25347.000000,60293.000000
32021.000000,18140.000000,25295.000000,60319.000000
31993.000000,18191.000000,25240.000000,60352.000000
31981.000000,18153.000000,25241.000000,60340.000000
31961.000000,18157.000000,25210.000000,60298.000000
31962.000000,18102.000000,25212.000000,60304.000000
31964.000000,18075.000000,25238.000000,60255.000000
31940.000000,18104.000000,25202.000000,60312.000000
31947.000000,18083.000000,25171.000000,60325.000000
31946.000000,18082.000000,25169.000000,60293.000000
31897.000000,18089.000000,25192.000000,60231.000000
31873.000000,18072.000000,25136.000000,60276.000000
31927.000000,18016.000000,25168.000000,60237.000000
31898.000000,18049.000000,25128.000000,60270.000000
31866.000000,18070.000000,25100.000000,60265.000000
31839.000000,18021.000000,25107.000000,60259.000000
31886.000000,17991.000000,25101.000000,60219.000000
31843.000000,18005.000000,25061.000000,60213.000000
31821.000000,18034.000000,25062.000000,60220.000000
31790.000000,18020.000000,25008.000000,60226.000000
31817.000000,18013.000000,25031.000000,60193.000000
31788.000000,18013.000000,25053.000000,60162.000000
31777.000000,17991.000000,25023.000000,60227.000000
31763.000000,17945.000000,24975.000000,60192.000000
31787.000000,17966.000000,25014.000000,60196.000000
31793.000000,17962.000000,25036.000000,60173.000000
31798.000000,17962.000000,25002.000000,60196.000000
31806.000000,17918.000000,25000.000000,60196.000000
31796.000000,17940.000000,24959.000000,60211.000000
31807.000000,17964.000000,24979.000000,60179.000000
31775.000000,17975.000000,25011.000000,60228.000000
31754.000000,17918.000000,25009.000000,60175.000000
31770.000000,17932.000000,24977.000000,60165.000000
31748.000000,17945.000000,24989.000000,60163.000000
31720.000000,17972.000000,24977.000000,60178.000000
31761.000000,17981.000000,24911.000000,60152.000000
31766.000000,17920.000000,24971.000000,60205.000000
31724.000000,17925.000000,24974.000000,60142.000000
31749.000000,17934.000000,24955.000000,60150.000000
31694.000000,17964.000000,24918.000000,60180.000000
31726.000000,17898.000000,24932.000000,60138.000000
31738.000000,17904.000000,24932.000000,60176.000000
31704.000000,17894.000000,24916.000000,60147.000000
31738.000000,17854.000000,24934.000000,60195.000000
31712.000000,17882.000000,24885.000000,60118.000000
31686.000000,17889.000000,24879.000000,60127.000000
31714.000000,17868.000000,24856.000000,60128.000000
31719.000000,17836.000000,24866.000000,60129.000000
31707.000000,17877.000000,24867.000000,60114.000000
31698.000000,17873.000000,24892.000000,60123.000000
31675.000000,17852.000000,24833.000000,60105.000000
31680.000000,17880.000000,24843.000000,60113.000000
31678.000000,17840.000000,24863.000000,60111.000000
31695.000000,17859.000000,24864.000000,60127.000000
31646.000000,17868.000000,24847.000000,60142.000000
31684.000000,17853.000000,24869.000000,60139.000000
31719.000000,17860.000000,24885.000000,60135.000000
31726.000000,17874.000000,24885.000000,60147.000000
31681.000000,17872.000000,24900.000000,60143.000000
31718.000000,17871.000000,24894.000000,60163.000000
31741.000000,17908.000000,24905.000000,60178.000000
31720.000000,17921.000000,24955.000000,60161.000000
31738.000000,17908.000000,24971.000000,60188.000000
31748.000000,17942.000000,24924.000000,60209.000000
31751.000000,17968.000000,24968.000000,60166.000000
31803.000000,17933.000000,25010.000000,60222.000000
31808.000000,17953.000000,24996.000000,60221.000000
31806.000000,17959.000000,25040.000000,60223.000000
31849.000000,17927.000000,25070.000000,60260.000000
31850.000000,17980.000000,25062.000000,60238.000000
31885.000000,17988.000000,25124.000000,60245.000000
31875.000000,18003.000000,25111.000000,60296.000000
31944.000000,17994.000000,25196.000000,60338.000000
31928.000000,18067.000000,25200.000000,60323.000000
31944.000000,18072.000000,25254.000000,60337.000000
31976.000000,18083.000000,25263.000000,60376.000000
31993.000000,18139.000000,25283.000000,60425.000000
32022.000000,18102.000000,25320.000000,60378.000000
32129.000000,18152.000000,25376.000000,60422.000000
32136.000000,18194.000000,25413.000000,60469.000000
32150.000000,18247.000000,25461.000000,60510.000000
32228.000000,18243.000000,25499.000000,60515.000000
32301.000000,18279.000000,25575.000000,60579.000000
32340.000000,18327.000000,25679.000000,60574.000000
32423.000000,18375.000000,25753.000000,60636.000000
32472.000000,18467.000000,25820.000000,60655.000000
32461.000000,18538.000000,25840.000000,60681.000000
32538.000000,18495.000000,25882.000000,60681.000000
32597.000000,18546.000000,25921.000000,60703.000000
32594.000000,18570.000000,25925.000000,60723.000000
32600.000000,18586.000000,25996.000000,60732.000000
32598.000000,18582.000000,25942.000000,60750.000000
32614.000000,18585.000000,25950.000000,60718.000000
32631.000000,18562.000000,25968.000000,60750.000000
32655.000000,18552.000000,25959.000000,60718.000000
32584.000000,18559.000000,25980.000000,60764.000000
32614.000000,18588.000000,25943.000000,60717.000000
32613.000000,18548.000000,25939.000000,60717.000000
32621.000000,18579.000000,25911.000000,60736.000000
32589.000000,18554.000000,25938.000000,60710.000000
32608.000000,18541.000000,25941.000000,60727.000000
32597.000000,18569.000000,25905.000000,60669.000000
32571.000000,18610.000000,25908.000000,60706.000000
32560.000000,18575.000000,25923.000000,60704.000000
32571.000000,18557.000000,25878.000000,60687.000000
32574.000000,18545.000000,25916.000000,60679.000000
32612.000000,18516.000000,25917.000000,60697.000000
32629.000000,18491.000000,25900.000000,60734.000000
32571.000000,18571.000000,25870.000000,60683.000000
32528.000000,18533.000000,25836.000000,60669.000000
32576.000000,18535.000000,25828.000000,60667.000000
32506.000000,18529.000000,25885.000000,60606.000000
32526.000000,18494.000000,25838.000000,60667.000000
32532.000000,18441.000000,25865.000000,60657.000000
32561.000000,18500.000000,25828.000000,60660.000000
32531.000000,18551.000000,25768.000000,60620.000000
32506.000000,18485.000000,25837.000000,60666.000000
32513.000000,18459.000000,25813.000000,60606.000000
32530.000000,18520.000000,25798.000000,60642.000000
32522.000000,18416.000000,25834.000000,60662.000000
32471.000000,18473.000000,25797.000000,60634.000000
32507.000000,18492.000000,25763.000000,60643.000000
32494.000000,18454.000000,25760.000000,60607.000000
32442.000000,18423.000000,25801.000000,60598.000000
32471.000000,18474.000000,25751.000000,60600.000000
32473.000000,18433.000000,25754.000000,60602.000000
32470.000000,18443.000000,25735.000000,60625.000000
32461.000000,18465.000000,25695.000000,60638.000000
32461.000000,18419.000000,25719.000000,60597.000000
32423.000000,18392.000000,25686.000000,60652.000000
32435.000000,18417.000000,25671.000000,60583.000000
32401.000000,18431.000000,25675.000000,60542.000000
32427.000000,18411.000000,25687.000000,60558.000000
32455.000000,18381.000000,25666.000000,60599.000000
32386.000000,18405.000000,25672.000000,60566.000000
32361.000000,18373.000000,25637.000000,60537.000000
32392.000000,18390.000000,25636.000000,60530.000000
32359.000000,18355.000000,25641.000000,60507.000000
32341.000000,18352.000000,25635.000000,60589.000000
32352.000000,18393.000000,25563.000000,60554.000000
32308.000000,18355.000000,25583.000000,60523.000000
32319.000000,18324.000000,25609.000000,60519.000000
32349.000000,18342.000000,25574.000000,60531.000000
32332.000000,18319.000000,25551.000000,60531.000000
32278.000000,18346.000000,25551.000000,60495.000000
32299.000000,18327.000000,25505.000000,60529.000000
32261.000000,18307.000000,25511.000000,60490.000000
32308.000000,18290.000000,25558.000000,60473.000000
32306.000000,18246.000000,25501.000000,60503.000000
32251.000000,18307.000000,25497.000000,60500.000000
32223.000000,18258.000000,25485.000000,60455.000000
32248.000000,18275.000000,25470.000000,60487.000000
32231.000000,18275.000000,25409.000000,60426.000000
32247.000000,18259.000000,25437.000000,60454.000000
32175.000000,18249.000000,25382.000000,60473.000000
32232.000000,18224.000000,25417.000000,60420.000000
32164.000000,18260.000000,25370.000000,60405.000000
32165.000000,18221.000000,25384.000000,60439.000000
32208.000000,18153.000000,25354.000000,60478.000000
32151.000000,18183.000000,25339.000000,60427.000000
32109.000000,18251.000000,25315.000000,60378.000000
32144.000000,18209.000000,25337.000000,60402.000000
32080.000000,18184.000000,25342.000000,60340.000000
32100.000000,18157.000000,25304.000000,60392.000000
32139.000000,18184.000000,25262.000000,60431.000000
32090.000000,18162.000000,25293.000000,60358.000000
32027.000000,18174.000000,25273.000000,60295.000000
32077.000000,18151.000000,25266.000000,60362.000000
32044.000000,18115.000000,25259.000000,60339.000000
32020.000000,18127.000000,25246.000000,60328.000000
32014.000000,18078.000000,25164.000000,60364.000000
31997.000000,18110.000000,25216.000000,60338.000000
31986.000000,18094.000000,25210.000000,60285.000000
31984.000000,18073.000000,25177.000000,60294.000000
31957.000000,18094.000000,25159.000000,60303.000000
31967.000000,18059.000000,25147.000000,60286.000000
32018.000000,18015.000000,25174.000000,60254.000000
31954.000000,18058.000000,25125.000000,60219.000000
31857.000000,18062.000000,25076.000000,60318.000000
31941.000000,18016.000000,25056.000000,60264.000000
31947.000000,18037.000000,25098.000000,60223.000000
31882.000000,17988.000000,25072.000000,60288.000000
31910.000000,17955.000000,25086.000000,60275.000000
31894.000000,18010.000000,25052.000000,60244.000000
31840.000000,17992.000000,25006.000000,60179.000000
31829.000000,17969.000000,25038.000000,60231.000000
31847.000000,17974.000000,24954.000000,60235.000000
31832.000000,17977.000000,24989.000000,60178.000000
31873.000000,17973.000000,24989.000000,60221.000000
31855.000000,17918.000000,24939.000000,60264.000000
31807.000000,17931.000000,24937.000000,60197.000000
31798.000000,17946.000000,24925.000000,60198.000000
31835.000000,17951.000000,24957.000000,60163.000000
31739.000000,17923.000000,24976.000000,60108.000000
31813.000000,17932.000000,24908.000000,60172.000000
31820.000000,17854.000000,24896.000000,60187.000000
31796.000000,17935.000000,24917.000000,60171.000000
31724.000000,17918.000000,24923.000000,60152.000000
31751.000000,17910.000000,24878.000000,60169.000000
31757.000000,17938.000000,24857.000000,60140.000000
31744.000000,17901.000000,24891.000000,60145.000000
31781.000000,17799.000000,24926.000000,60118.000000
31742.000000,17897.000000,24887.000000,60148.000000
31836.000000,17854.000000,24822.000000,60213.000000
31712.000000,17912.000000,24848.000000,60173.000000
31685.000000,17935.000000,24828.000000,60117.000000
31751.000000,17873.000000,24887.000000,60132.000000
31776.000000,17833.000000,24884.000000,60140.000000
31738.000000,17889.000000,24877.000000,60132.000000
31716.000000,17882.000000,24856.000000,60133.000000
31741.000000,17857.000000,24824.000000,60116.000000
31711.000000,17903.000000,24752.000000,60175.000000
31702.000000,17845.000000,24799.000000,60131.000000
31644.000000,17879.000000,24798.000000,60080.000000
31674.000000,17805.000000,24787.000000,60105.000000
31711.000000,17803.000000,24849.000000,60063.000000
31664.000000,17840.000000,24799.000000,60107.000000
31659.000000,17882.000000,24667.000000,60141.000000
31633.000000,17805.000000,24773.000000,60082.000000
31695.000000,17758.000000,24774.000000,60077.000000
31613.000000,17813.000000,24767.000000,60077.000000
31615.000000,17778.000000,24787.000000,60003.000000
31653.000000,17767.000000,24730.000000,60080.000000
31671.000000,17782.000000,24721.000000,60128.000000
31660.000000,17813.000000,24773.000000,60114.000000
31640.000000,17827.000000,24748.000000,60127.000000
31629.000000,17799.000000,24771.000000,60093.000000
31711.000000,17793.000000,24854.000000,60064.000000
31689.000000,17814.000000,24811.000000,60109.000000
31700.000000,17809.000000,24789.000000,60110.000000
31713.000000,17813.000000,24875.000000,60140.000000
31707.000000,17896.000000,24798.000000,60217.000000
31784.000000,17872.000000,24783.000000,60238.000000
31750.000000,17874.000000,24863.000000,60150.000000
31805.000000,17903.000000,24845.000000,60213.000000
31797.000000,17907.000000,24891.000000,60187.000000
31690.000000,17910.000000,24972.000000,60154.000000
31794.000000,17906.000000,24944.000000,60247.000000
31725.000000,17962.000000,24961.000000,60158.000000
31843.000000,17914.000000,24975.000000,60215.000000
31888.000000,17869.000000,25066.000000,60219.000000
31862.000000,17928.000000,25016.000000,60244.000000
31947.000000,17965.000000,24950.000000,60361.000000
31897.000000,17960.000000,25039.000000,60255.000000
31876.000000,17994.000000,25162.000000,60175.000000
31949.000000,17996.000000,25138.000000,60319.000000
31883.000000,18084.000000,25172.000000,60268.000000
32006.000000,18034.000000,25174.000000,60326.000000
32140.000000,17968.000000,25254.000000,60459.000000
32054.000000,18078.000000,25297.000000,60389.000000
32145.000000,18176.000000,25244.000000,60524.000000
32179.000000,18153.000000,25365.000000,60464.000000
32159.000000,18194.000000,25533.000000,60333.000000
32221.000000,18176.000000,25479.000000,60524.000000
32270.000000,18319.000000,25502.000000,60556.000000
32404.000000,18279.000000,25628.000000,60575.000000
32486.000000,18327.000000,25773.000000,60609.000000
32486.000000,18406.000000,25766.000000,60673.000000
32559.000000,18508.000000,25754.000000,60748.000000
32561.000000,18493.000000,25860.000000,60705.000000
32574.000000,18486.000000,25957.000000,60635.000000
32595.000000,18521.000000,25910.000000,60726.000000
32596.000000,18511.000000,25920.000000,60671.000000
32681.000000,18529.000000,25901.000000,60722.000000
32665.000000,18496.000000,25957.000000,60724.000000
32647.000000,18578.000000,25941.000000,60741.000000
32633.000000,18558.000000,25813.000000,60804.000000
32606.000000,18563.000000,25902.000000,60701.000000
32660.000000,18510.000000,25925.000000,60634.000000
32649.000000,18517.000000,25889.000000,60734.000000
32620.000000,18546.000000,25857.000000,60671.000000
32613.000000,18491.000000,25936.000000,60716.000000
32652.000000,18560.000000,25859.000000,60742.000000
32662.000000,18526.000000,25842.000000,60760.000000
32609.000000,18520.000000,25841.000000,60687.000000
32533.000000,18581.000000,25842.000000,60668.000000
32614.000000,18497.000000,25856.000000,60661.000000
32586.000000,18522.000000,25844.000000,60690.000000
32581.000000,18495.000000,25821.000000,60688.000000
32507.000000,18498.000000,25861.000000,60604.000000
32583.000000,18494.000000,25791.000000,60680.000000
32626.000000,18341.000000,25877.000000,60697.000000
32588.000000,18483.000000,25761.000000,60643.000000
32484.000000,18590.000000,25706.000000,60652.000000
32559.000000,18457.000000,25759.000000,60638.000000
32530.000000,18533.000000,25632.000000,60749.000000
32533.000000,18421.000000,25749.000000,60639.000000
32450.000000,18391.000000,25835.000000,60504.000000
32512.000000,18432.000000,25757.000000,60661.000000
32579.000000,18317.000000,25875.000000,60573.000000
32490.000000,18425.000000,25721.000000,60625.000000
32501.000000,18417.000000,25644.000000,60691.000000
32497.000000,18395.000000,25711.000000,60602.000000
32478.000000,18501.000000,25616.000000,60742.000000
32494.000000,18386.000000,25661.000000,60626.000000
32404.000000,18478.000000,25655.000000,60535.000000
32461.000000,18378.000000,25661.000000,60597.000000
32525.000000,18310.000000,25722.000000,60586.000000
32443.000000,18364.000000,25661.000000,60572.000000
32447.000000,18358.000000,25731.000000,60544.000000
32427.000000,18389.000000,25639.000000,60586.000000
32413.000000,18378.000000,25593.000000,60649.000000
32398.000000,18314.000000,25622.000000,60562.000000
32361.000000,18386.000000,25568.000000,60586.000000
32413.000000,18339.000000,25603.000000,60529.000000
32393.000000,18313.000000,25652.000000,60533.000000
32374.000000,18320.000000,25584.000000,60559.000000
32420.000000,18274.000000,25586.000000,60481.000000
32419.000000,18273.000000,25567.000000,60570.000000
32361.000000,18300.000000,25480.000000,60527.000000
32401.000000,18319.000000,25482.000000,60498.000000
32307.000000,18304.000000,25445.000000,60485.000000
32313.000000,18255.000000,25532.000000,60467.000000
32354.000000,18300.000000,25473.000000,60515.000000
32281.000000,18332.000000,25478.000000,60454.000000
32326.000000,18270.000000,25447.000000,60494.000000
32315.000000,18205.000000,25538.000000,60485.000000
32283.000000,18269.000000,25435.000000,60467.000000
32376.000000,18219.000000,25405.000000,60563.000000
32230.000000,18222.000000,25411.000000,60445.000000
32265.000000,18188.000000,25447.000000,60464.000000
32265.000000,18208.000000,25404.000000,60450.000000
32107.000000,18280.000000,25371.000000,60370.000000
32239.000000,18205.000000,25381.000000,60451.000000
32185.000000,18119.000000,25471.000000,60337.000000
32222.000000,18196.000000,25340.000000,60430.000000
32309.000000,18170.000000,25235.000000,60577.000000
32156.000000,18139.000000,25319.000000,60418.000000
32248.000000,18055.000000,25342.000000,60435.000000
32146.000000,18137.000000,25296.000000,60377.000000
32094.000000,18233.000000,25181.000000,60415.000000
32121.000000,18117.000000,25268.000000,60364.000000
32046.000000,18080.000000,25357.000000,60242.000000
32078.000000,18101.000000,25262.000000,60362.000000
32085.000000,18083.000000,25185.000000,60396.000000
32075.000000,18085.000000,25243.000000,60372.000000
32171.000000,18044.000000,25216.000000,60399.000000
32060.000000,18057.000000,25166.000000,60317.000000
32003.000000,18111.000000,25093.000000,60411.000000
32027.000000,18023.000000,25160.000000,60306.000000
32004.000000,18040.000000,25243.000000,60178.000000
31955.000000,18048.000000,25124.000000,60298.000000
31970.000000,18049.000000,25097.000000,60266.000000
31973.000000,18000.000000,25081.000000,60297.000000
32043.000000,17975.000000,25103.000000,60274.000000
31929.000000,17998.000000,25075.000000,60286.000000
31912.000000,18033.000000,25027.000000,60262.000000
31911.000000,17947.000000,25045.000000,60256.000000
31966.000000,17955.000000,25044.000000,60203.000000
31883.000000,17958.000000,25017.000000,60246.000000
31886.000000,17949.000000,25049.000000,60160.000000
31890.000000,17933.000000,24958.000000,60249.000000
31858.000000,17916.000000,24947.000000,60211.000000
31899.000000,17911.000000,24911.000000,60234.000000
31872.000000,17934.000000,24901.000000,60210.000000
31818.000000,17977.000000,24885.000000,60193.000000
31855.000000,17888.000000,24929.000000,60161.000000
31861.000000,17887.000000,24846.000000,60208.000000
31791.000000,17874.000000,24867.000000,60160.000000
31725.000000,17953.000000,24840.000000,60098.000000
31756.000000,17848.000000,24835.000000,60157.000000
31820.000000,17748.000000,24871.000000,60135.000000
31744.000000,17811.000000,24789.000000,60135.000000
31787.000000,17835.000000,24762.000000,60170.000000
31733.000000,17812.000000,24774.000000,60113.000000
31820.000000,17730.000000,24706.000000,60206.000000
31701.000000,17795.000000,24747.000000,60115.000000
31714.000000,17866.000000,24630.000000,60175.000000
31693.000000,17770.000000,24711.000000,60088.000000
31575.000000,17852.000000,24738.000000,59972.000000
31646.000000,17790.000000,24700.000000,60068.000000
31609.000000,17861.000000,24637.000000,60105.000000
31683.000000,17756.000000,24705.000000,60072.000000
31640.000000,17677.000000,24779.000000,59971.000000
31665.000000,17735.000000,24665.000000,60047.000000
31739.000000,17670.000000,24640.000000,60136.000000
31651.000000,17736.000000,24666.000000,60026.000000
31577.000000,17781.000000,24619.000000,60052.000000
31630.000000,17706.000000,24659.000000,60047.000000
31626.000000,17790.000000,24552.000000,60158.000000
31654.000000,17734.000000,24638.000000,60056.000000
31600.000000,17746.000000,24584.000000,60014.000000
31622.000000,17744.000000,24642.000000,60057.000000
31640.000000,17608.000000,24725.000000,59976.000000
31570.000000,17690.000000,24585.000000,60062.000000
31620.000000,17728.000000,24639.000000,60030.000000
31614.000000,17695.000000,24604.000000,60036.000000
31641.000000,17687.000000,24602.000000,60061.000000
31616.000000,17733.000000,24621.000000,60030.000000
31559.000000,17739.000000,24540.000000,60038.000000
31541.000000,17622.000000,24606.000000,60003.000000
31609.000000,17665.000000,24602.000000,59962.000000
31507.000000,17656.000000,24554.000000,59977.000000
31540.000000,17625.000000,24578.000000,59961.000000
31578.000000,17637.000000,24591.000000,60004.000000
31570.000000,17671.000000,24542.000000,59980.000000
31606.000000,17552.000000,24565.000000,60019.000000
31495.000000,17617.000000,24522.000000,60025.000000
31496.000000,17685.000000,24454.000000,59980.000000
31555.000000,17637.000000,24547.000000,59957.000000
31555.000000,17654.000000,24527.000000,60063.000000
31526.000000,17643.000000,24588.000000,60007.000000
31458.000000,17685.000000,24603.000000,59961.000000
31566.000000,17646.000000,24597.000000,60011.000000
31652.000000,17553.000000,24671.000000,60052.000000
31600.000000,17657.000000,24560.000000,60034.000000
31553.000000,17735.000000,24607.000000,60105.000000
31603.000000,17696.000000,24667.000000,60053.000000
31681.000000,17741.000000,24549.000000,60169.000000
31649.000000,17700.000000,24656.000000,60074.000000
31584.000000,17757.000000,24714.000000,60013.000000
31685.000000,17728.000000,24705.000000,60112.000000
31767.000000,17617.000000,24727.000000,60183.000000
31698.000000,17758.000000,24746.000000,60143.000000
31805.000000,17724.000000,24857.000000,60088.000000
31737.000000,17729.000000,24766.000000,60158.000000
31725.000000,17800.000000,24720.000000,60283.000000
31788.000000,17819.000000,24846.000000,60206.000000
31782.000000,17806.000000,24998.000000,60098.000000
31818.000000,17874.000000,24918.000000,60240.000000
31850.000000,17898.000000,24866.000000,60307.000000
31841.000000,17879.000000,24989.000000,60255.000000
31939.000000,17865.000000,24981.000000,60365.000000
31914.000000,17907.000000,25036.000000,60303.000000
31944.000000,17996.000000,25032.000000,60344.000000
32001.000000,17993.000000,25144.000000,60369.000000
32059.000000,17938.000000,25277.000000,60293.000000
32078.000000,18026.000000,25227.000000,60416.000000
32072.000000,18061.000000,25265.000000,60459.000000
32183.000000,18081.000000,25353.000000,60480.000000
32252.000000,18155.000000,25379.000000,60530.000000
32297.000000,18221.000000,25447.000000,60522.000000
32313.000000,18246.000000,25454.000000,60613.000000
32402.000000,18324.000000,25636.000000,60605.000000
32510.000000,18277.000000,25730.000000,60587.000000
32535.000000,18410.000000,25737.000000,60683.000000
32505.000000,18385.000000,25796.000000,60660.000000
32627.000000,18391.000000,25806.000000,60761.000000
32622.000000,18462.000000,25824.000000,60761.000000
32626.000000,18508.000000,25797.000000,60767.000000
32602.000000,18457.000000,25845.000000,60731.000000
32554.000000,18501.000000,25855.000000,60679.000000
32629.000000,18455.000000,25845.000000,60678.000000
32549.000000,18553.000000,25782.000000,60708.000000
32631.000000,18435.000000,25797.000000,60695.000000
32613.000000,18384.000000,25868.000000,60659.000000
32605.000000,18469.000000,25812.000000,60710.000000
32680.000000,18469.000000,25727.000000,60804.000000
32625.000000,18420.000000,25796.000000,60671.000000
32545.000000,18511.000000,25825.000000,60641.000000
32596.000000,18441.000000,25807.000000,60659.000000
32492.000000,18580.000000,25686.000000,60689.000000
32595.000000,18446.000000,25754.000000,60670.000000
32536.000000,18410.000000,25864.000000,60580.000000
32565.000000,18421.000000,25753.000000,60659.000000
32653.000000,18346.000000,25750.000000,60772.000000
32563.000000,18442.000000,25754.000000,60677.000000
32625.000000,18371.000000,25709.000000,60735.000000
32571.000000,18435.000000,25724.000000,60663.000000
32468.000000,18484.000000,25695.000000,60600.000000
32541.000000,18363.000000,25734.000000,60644.000000
32586.000000,18312.000000,25815.000000,60611.000000
32515.000000,18335.000000,25677.000000,60625.000000
32459.000000,18417.000000,25700.000000,60605.000000
32529.000000,18357.000000,25686.000000,60620.000000
32460.000000,18409.000000,25614.000000,60649.000000
32488.000000,18373.000000,25677.000000,60616.000000
32515.000000,18263.000000,25691.000000,60548.000000
32469.000000,18356.000000,25662.000000,60632.000000
32450.000000,18388.000000,25538.000000,60654.000000
32471.000000,18315.000000,25647.000000,60599.000000
32452.000000,18356.000000,25588.000000,60550.000000
32409.000000,18311.000000,25633.000000,60593.000000
32453.000000,18294.000000,25629.000000,60492.000000
32489.000000,18281.000000,25577.000000,60606.000000
32466.000000,18292.000000,25605.000000,60544.000000
32430.000000,18327.000000,25490.000000,60584.000000
32389.000000,18334.000000,25505.000000,60551.000000
32429.000000,18285.000000,25550.000000,60539.000000
32392.000000,18276.000000,25549.000000,60556.000000
32323.000000,18296.000000,25498.000000,60533.000000
32393.000000,18254.000000,25500.000000,60573.000000
32377.000000,18212.000000,25579.000000,60493.000000
32361.000000,18285.000000,25484.000000,60519.000000
32376.000000,18291.000000,25386.000000,60579.000000
32339.000000,18223.000000,25434.000000,60522.000000
32459.000000,18151.000000,25409.000000,60571.000000
32304.000000,18215.000000,25453.000000,60506.000000
32206.000000,18315.000000,25405.000000,60490.000000
32299.000000,18220.000000,25429.000000,60469.000000
32294.000000,18137.000000,25536.000000,60405.000000
32267.000000,18177.000000,25415.000000,60489.000000
32301.000000,18226.000000,25354.000000,60538.000000
32253.000000,18187.000000,25376.000000,60455.000000
32303.000000,18244.000000,25281.000000,60565.000000
32244.000000,18179.000000,25370.000000,60466.000000
32159.000000,18238.000000,25252.000000,60487.000000
32230.000000,18166.000000,25336.000000,60449.000000
32237.000000,18042.000000,25465.000000,60348.000000
32184.000000,18114.000000,25305.000000,60427.000000
32129.000000,18109.000000,25377.000000,60305.000000
32184.000000,18085.000000,25262.000000,60407.000000
32198.000000,18130.000000,25246.000000,60494.000000
32122.000000,18099.000000,25254.000000,60411.000000
32095.000000,18170.000000,25166.000000,60372.000000
32152.000000,18095.000000,25227.000000,60374.000000
32136.000000,18025.000000,25273.000000,60318.000000
32094.000000,18055.000000,25216.000000,60390.000000
32092.000000,17977.000000,25229.000000,60302.000000
32059.000000,18070.000000,25190.000000,60349.000000
32143.000000,17997.000000,25148.000000,60372.000000
32040.000000,18069.000000,25120.000000,60351.000000
31992.000000,18078.000000,25056.000000,60346.000000
32034.000000,17989.000000,25082.000000,60329.000000
32003.000000,17975.000000,25066.000000,60292.000000
31949.000000,18016.000000,25097.000000,60292.000000
32009.000000,17952.000000,25100.000000,60254.000000
31987.000000,17930.000000,25037.000000,60296.000000
31992.000000,17955.000000,24998.000000,60299.000000
32008.000000,17985.000000,24974.000000,60303.000000
31953.000000,17969.000000,24995.000000,60233.000000
31939.000000,17921.000000,24952.000000,60214.000000
31941.000000,17926.000000,24954.000000,60212.000000
31855.000000,17948.000000,24983.000000,60215.000000
31891.000000,17916.000000,24910.000000,60261.000000
31904.000000,17796.000000,24995.000000,60203.000000
31875.000000,17889.000000,24898.000000,60180.000000
31890.000000,17953.000000,24809.000000,60266.000000
31858.000000,17878.000000,24861.000000,60167.000000
31928.000000,17823.000000,24808.000000,60240.000000
31858.000000,17852.000000,24874.000000,60202.000000
31702.000000,17943.000000,24779.000000,60186.000000
31812.000000,17811.000000,24824.000000,60177.000000
31857.000000,17692.000000,24939.000000,60120.000000
31826.000000,17824.000000,24844.000000,60156.000000
31770.000000,17836.000000,24685.000000,60238.000000
31786.000000,17796.000000,24743.000000,60117.000000
31769.000000,17829.000000,24653.000000,60218.000000
31757.000000,17779.000000,24727.000000,60129.000000
31653.000000,17866.000000,24714.000000,60047.000000
31711.000000,17767.000000,24696.000000,60117.000000
31816.000000,17661.000000,24765.000000,60127.000000
31726.000000,17749.000000,24681.000000,60100.000000
31745.000000,17680.000000,24741.000000,60072.000000
31715.000000,17713.000000,24658.000000,60087.000000
31572.000000,17776.000000,24630.000000,60044.000000
31666.000000,17706.000000,24635.000000,60057.000000
31671.000000,17662.000000,24714.000000,59993.000000
31643.000000,17708.000000,24637.000000,60013.000000
31630.000000,17737.000000,24560.000000,60157.000000
31662.000000,17694.000000,24620.000000,60054.000000
31661.000000,17668.000000,24580.000000,60089.000000
31606.000000,17688.000000,24593.000000,60038.000000
31576.000000,17678.000000,24569.000000,59996.000000
31612.000000,17646.000000,24598.000000,60051.000000
31644.000000,17589.000000,24626.000000,60037.000000
31651.000000,17688.000000,24562.000000,60013.000000
31569.000000,17695.000000,24555.000000,60028.000000
31625.000000,17640.000000,24568.000000,60084.000000
31547.000000,17664.000000,24535.000000,60041.000000
31544.000000,17689.000000,24561.000000,60009.000000
31572.000000,17624.000000,24565.000000,60012.000000
31574.000000,17585.000000,24586.000000,59981.000000
31573.000000,17615.000000,24542.000000,60069.000000
31541.000000,17623.000000,24558.000000,60070.000000
31560.000000,17633.000000,24542.000000,60018.000000
31640.000000,17623.000000,24481.000000,60067.000000
31600.000000,17625.000000,24548.000000,59984.000000
31470.000000,17707.000000,24465.000000,59987.000000
31559.000000,17637.000000,24527.000000,60013.000000
31527.000000,17516.000000,24660.000000,59932.000000
31569.000000,17578.000000,24501.000000,59973.000000
31461.000000,17610.000000,24497.000000,59970.000000
31479.000000,17560.000000,24484.000000,59968.000000
31593.000000,17470.000000,24578.000000,59924.000000
31499.000000,17560.000000,24464.000000,59969.000000
31589.000000,17561.000000,24459.000000,60091.000000
31495.000000,17573.000000,24488.000000,60010.000000
31423.000000,17563.000000,24545.000000,59865.000000
31506.000000,17559.000000,24465.000000,59993.000000
31412.000000,17654.000000,24449.000000,59932.000000
31488.000000,17577.000000,24478.000000,59995.000000
31595.000000,17490.000000,24545.000000,59914.000000
31528.000000,17582.000000,24498.000000,60004.000000
31550.000000,17697.000000,24430.000000,60169.000000
31556.000000,17607.000000,24527.000000,60049.000000
31607.000000,17598.000000,24588.000000,60018.000000
31605.000000,17625.000000,24573.000000,60003.000000
31538.000000,17651.000000,24630.000000,59974.000000
31598.000000,17635.000000,24606.000000,60059.000000
31705.000000,17614.000000,24677.000000,60067.000000
31647.000000,17667.000000,24652.000000,60082.000000
31621.000000,17733.000000,24630.000000,60144.000000
31709.000000,17681.000000,24658.000000,60141.000000
31657.000000,17751.000000,24650.000000,60169.000000
31720.000000,17705.000000,24748.000000,60163.000000
31775.000000,17727.000000,24818.000000,60119.000000
31765.000000,17722.000000,24806.000000,60218.000000
31825.000000,17784.000000,24788.000000,60260.000000
31839.000000,17811.000000,24822.000000,60213.000000
31824.000000,17843.000000,24900.000000,60231.000000
31900.000000,17801.000000,24925.000000,60297.000000
31889.000000,17875.000000,24957.000000,60281.000000
31882.000000,17942.000000,24984.000000,60273.000000
31952.000000,17908.000000,25075.000000,60315.000000
32015.000000,17902.000000,25169.000000,60335.000000
32074.000000,17985.000000,25134.000000,60402.000000
32066.000000,18033.000000,25211.000000,60424.000000
32128.000000,18038.000000,25250.000000,60449.000000
32336.000000,18027.000000,25293.000000,60550.000000
32272.000000,18089.000000,25401.000000,60526.000000
32237.000000,18258.000000,25398.000000,60563.000000
32382.000000,18222.000000,25534.000000,60608.000000
32497.000000,18158.000000,25732.000000,60567.000000
32496.000000,18335.000000,25662.000000,60650.000000
32516.000000,18342.000000,25807.000000,60622.000000
32569.000000,18384.000000,25764.000000,60713.000000
32665.000000,18302.000000,25792.000000,60773.000000
32622.000000,18466.000000,25795.000000,60696.000000
32534.000000,18555.000000,25711.000000,60730.000000
32617.000000,18398.000000,25810.000000,60727.000000
32625.000000,18339.000000,25862.000000,60593.000000
32600.000000,18416.000000,25755.000000,60720.000000
32539.000000,18417.000000,25913.000000,60585.000000
32602.000000,18379.000000,25759.000000,60701.000000
32650.000000,18368.000000,25753.000000,60753.000000
32579.000000,18377.000000,25746.000000,60682.000000
32517.000000,18482.000000,25698.000000,60710.000000
32611.000000,18405.000000,25727.000000,60688.000000
32596.000000,18375.000000,25705.000000,60697.000000
32539.000000,18378.000000,25701.000000,60698.000000
32560.000000,18373.000000,25776.000000,60577.000000
32509.000000,18377.000000,25690.000000,60678.000000
32607.000000,18332.000000,25647.000000,60744.000000
32524.000000,18352.000000,25698.000000,60664.000000
32495.000000,18305.000000,25722.000000,60586.000000
32532.000000,18322.000000,25645.000000,60658.000000
32496.000000,18374.000000,25641.000000,60612.000000
32506.000000,18289.000000,25672.000000,60658.000000
32521.000000,18255.000000,25681.000000,60620.000000
32542.000000,18270.000000,25594.000000,60636.000000
32470.000000,18302.000000,25582.000000,60673.000000
32431.000000,18373.000000,25571.000000,60577.000000
32456.000000,18302.000000,25609.000000,60585.000000
32519.000000,18282.000000,25526.000000,60661.000000
32476.000000,18279.000000,25556.000000,60567.000000
32441.000000,18327.000000,25546.000000,60539.000000
32445.000000,18265.000000,25555.000000,60563.000000
32373.000000,18205.000000,25663.000000,60539.000000
32438.000000,18233.000000,25523.000000,60588.000000
32464.000000,18262.000000,25508.000000,60603.000000
32419.000000,18239.000000,25509.000000,60547.000000
32482.000000,18128.000000,25578.000000,60576.000000
32386.000000,18231.000000,25475.000000,60569.000000
32429.000000,18200.000000,25447.000000,60617.000000
32372.000000,18214.000000,25481.000000,60559.000000
32277.000000,18356.000000,25411.000000,60518.000000
32336.000000,18200.000000,25424.000000,60542.000000
32271.000000,18282.000000,25339.000000,60580.000000
32327.000000,18154.000000,25408.000000,60507.000000
32286.000000,18169.000000,25485.000000,60378.000000
32331.000000,18199.000000,25391.000000,60497.000000
32392.000000,18061.000000,25418.000000,60501.000000
32308.000000,18160.000000,25368.000000,60473.000000
32245.000000,18214.000000,25332.000000,60510.000000
32298.000000,18146.000000,25388.000000,60492.000000
32257.000000,18209.000000,25250.000000,60609.000000
32253.000000,18153.000000,25334.000000,60461.000000
32229.000000,18134.000000,25369.000000,60398.000000
32246.000000,18140.000000,25330.000000,60449.000000
32280.000000,18026.000000,25380.000000,60414.000000
32220.000000,18108.000000,25276.000000,60423.000000
32242.000000,18085.000000,25303.000000,60401.000000
32223.000000,18104.000000,25290.000000,60392.000000
32201.000000,18097.000000,25199.000000,60472.000000
32179.000000,18040.000000,25230.000000,60407.000000
32126.000000,18140.000000,25169.000000,60401.000000
32158.000000,18061.000000,25242.000000,60402.000000
32188.000000,17990.000000,25263.000000,60360.000000
32146.000000,18063.000000,25211.000000,60378.000000
32128.000000,17990.000000,25207.000000,60314.000000
32130.000000,17978.000000,25164.000000,60415.000000
32106.000000,18005.000000,25089.000000,60419.000000
32122.000000,18028.000000,25145.000000,60392.000000
32087.000000,17985.000000,25110.000000,60316.000000
32025.000000,18041.000000,25090.000000,60283.000000
31993.000000,17983.000000,25114.000000,60354.000000
32005.000000,18050.000000,25063.000000,60293.000000
32020.000000,17952.000000,25048.000000,60358.000000
31987.000000,17873.000000,25124.000000,60249.000000
32011.000000,17954.000000,25042.000000,60302.000000
32105.000000,17850.000000,24943.000000,60364.000000
31989.000000,17933.000000,25006.000000,60293.000000
31907.000000,17949.000000,24977.000000,60242.000000
31972.000000,17937.000000,24970.000000,60250.000000
31912.000000,17995.000000,24859.000000,60289.000000
31947.000000,17912.000000,24936.000000,60271.000000
31858.000000,17856.000000,25010.000000,60183.000000
31928.000000,17887.000000,24923.000000,60250.000000
32017.000000,17882.000000,24799.000000,60383.000000
31897.000000,17866.000000,24905.000000,60241.000000
31987.000000,17799.000000,24892.000000,60266.000000
31848.000000,17856.000000,24873.000000,60235.000000
31802.000000,17921.000000,24748.000000,60247.000000
31836.000000,17826.000000,24790.000000,60218.000000
31785.000000,17781.000000,24907.000000,60053.000000
31809.000000,17800.000000,24826.000000,60190.000000
31849.000000,17767.000000,24761.000000,60289.000000
31809.000000,17802.000000,24734.000000,60171.000000
31871.000000,17660.000000,24809.000000,60181.000000
31791.000000,17767.000000,24799.000000,60170.000000
31740.000000,17772.000000,24713.000000,60129.000000
31760.000000,17728.000000,24729.000000,60141.000000
31843.000000,17644.000000,24805.000000,60079.000000
31731.000000,17748.000000,24715.000000,60119.000000
31731.000000,17723.000000,24683.000000,60127.000000
31751.000000,17724.000000,24680.000000,60104.000000
31752.000000,17763.000000,24650.000000,60176.000000
31672.000000,17734.000000,24693.000000,60122.000000
31675.000000,17745.000000,24589.000000,60131.000000
31678.000000,17722.000000,24648.000000,60094.000000
31716.000000,17655.000000,24708.000000,60080.000000
31734.000000,17716.000000,24633.000000,60108.000000
31722.000000,17662.000000,24682.000000,60063.000000
31721.000000,17623.000000,24638.000000,60111.000000
31698.000000,17654.000000,24556.000000,60115.000000
31701.000000,17695.000000,24586.000000,60069.000000
31668.000000,17667.000000,24615.000000,60060.000000
31607.000000,17687.000000,24681.000000,60012.000000
31690.000000,17661.000000,24577.000000,60077.000000
31611.000000,17745.000000,24585.000000,60048.000000
31659.000000,17632.000000,24593.000000,60078.000000
31635.000000,17644.000000,24618.000000,60026.000000
31630.000000,17622.000000,24584.000000,60057.000000
31753.000000,17565.000000,24590.000000,60138.000000
31619.000000,17637.000000,24579.000000,60073.000000
31570.000000,17698.000000,24544.000000,59998.000000
31639.000000,17612.000000,24556.000000,60063.000000
31563.000000,17746.000000,24458.000000,60112.000000
31621.000000,17616.000000,24591.000000,60078.000000
31499.000000,17638.000000,24622.000000,59940.000000
31640.000000,17603.000000,24520.000000,60067.000000
31760.000000,17528.000000,24614.000000,60077.000000
31598.000000,17584.000000,24547.000000,60049.000000
31650.000000,17551.000000,24569.000000,60044.000000
31585.000000,17613.000000,24545.000000,60025.000000
31627.000000,17610.000000,24485.000000,60197.000000
31593.000000,17581.000000,24563.000000,60050.000000
31524.000000,17701.000000,24484.000000,60046.000000
31600.000000,17586.000000,24566.000000,60042.000000
31669.000000,17534.000000,24563.000000,60051.000000
31569.000000,17607.000000,24539.000000,60036.000000
31636.000000,17507.000000,24592.000000,59980.000000
31590.000000,17602.000000,24527.000000,60050.000000
31598.000000,17683.000000,24434.000000,60107.000000
31641.000000,17612.000000,24519.000000,60058.000000
31575.000000,17586.000000,24569.000000,59960.000000
31636.000000,17606.000000,24562.000000,60049.000000
31643.000000,17620.000000,24587.000000,60069.000000
31640.000000,17611.000000,24570.000000,60077.000000
31686.000000,17558.000000,24623.000000,60085.000000
31667.000000,17660.000000,24586.000000,60122.000000
31669.000000,17670.000000,24580.000000,60177.000000
31684.000000,17680.000000,24655.000000,60111.000000
31668.000000,17585.000000,24664.000000,60094.000000
31701.000000,17615.000000,24715.000000,60149.000000
31729.000000,17684.000000,24698.000000,60179.000000
31690.000000,17701.000000,24775.000000,60075.000000
31704.000000,17706.000000,24724.000000,60216.000000
31816.000000,17641.000000,24780.000000,60208.000000
31784.000000,17736.000000,24799.000000,60222.000000
31801.000000,17829.000000,24742.000000,60252.000000
31821.000000,17741.000000,24884.000000,60219.000000
31926.000000,17700.000000,24833.000000,60284.000000
31883.000000,17822.000000,24908.000000,60268.000000
31869.000000,17853.000000,24848.000000,60362.000000
31859.000000,17856.000000,25005.000000,60328.000000
31890.000000,17872.000000,25101.000000,60226.000000
31987.000000,17894.000000,25019.000000,60363.000000
32083.000000,17879.000000,25050.000000,60456.000000
32053.000000,17962.000000,25153.000000,60409.000000
32208.000000,17852.000000,25252.000000,60455.000000
32140.000000,18013.000000,25268.000000,60458.000000
32209.000000,18148.000000,25198.000000,60549.000000
32232.000000,18126.000000,25395.000000,60542.000000
32183.000000,18198.000000,25525.000000,60466.000000
32421.000000,18207.000000,25504.000000,60592.000000
32402.000000,18302.000000,25572.000000,60603.000000
32530.000000,18281.000000,25677.000000,60672.000000
32527.000000,18337.000000,25809.000000,60567.000000
32568.000000,18362.000000,25742.000000,60742.000000
32672.000000,18346.000000,25774.000000,60774.000000
32624.000000,18404.000000,25760.000000,60727.000000
32567.000000,18466.000000,25784.000000,60683.000000
32605.000000,18389.000000,25779.000000,60771.000000
32570.000000,18454.000000,25732.000000,60742.000000
32631.000000,18418.000000,25813.000000,60729.000000
32663.000000,18372.000000,25854.000000,60713.000000
32600.000000,18398.000000,25769.000000,60728.000000
32639.000000,18442.000000,25688.000000,60809.000000
32618.000000,18397.000000,25793.000000,60688.000000
32612.000000,18352.000000,25765.000000,60714.000000
32596.000000,18406.000000,25750.000000,60712.000000
32590.000000,18347.000000,25790.000000,60688.000000
32602.000000,18302.000000,25779.000000,60712.000000
32588.000000,18352.000000,25750.000000,60672.000000
32637.000000,18327.000000,25699.000000,60735.000000
32516.000000,18361.000000,25670.000000,60661.000000
32511.000000,18342.000000,25730.000000,60662.000000
32527.000000,18325.000000,25691.000000,60706.000000
32460.000000,18395.000000,25635.000000,60629.000000
32521.000000,18301.000000,25662.000000,60628.000000
32468.000000,18291.000000,25711.000000,60622.000000
32504.000000,18323.000000,25636.000000,60654.000000
32623.000000,18306.000000,25531.000000,60737.000000
32541.000000,18300.000000,25646.000000,60655.000000
32603.000000,18222.000000,25601.000000,60720.000000
32485.000000,18299.000000,25598.000000,60635.000000
32395.000000,18389.000000,25561.000000,60598.000000
32484.000000,18293.000000,25628.000000,60645.000000
32508.000000,18191.000000,25708.000000,60560.000000
32480.000000,18259.000000,25576.000000,60639.000000
32479.000000,18282.000000,25470.000000,60712.000000
32451.000000,18237.000000,25571.000000,60626.000000
32490.000000,18265.000000,25480.000000,60746.000000
32452.000000,18253.000000,25531.000000,60595.000000
32321.000000,18286.000000,25555.000000,60492.000000
32406.000000,18219.000000,25497.000000,60600.000000
32514.000000,18089.000000,25574.000000,60582.000000
32365.000000,18205.000000,25484.000000,60561.000000
32363.000000,18195.000000,25485.000000,60544.000000
32404.000000,18204.000000,25477.000000,60582.000000
32413.000000,18160.000000,25377.000000,60668.000000
32378.000000,18178.000000,25456.000000,60536.000000
32319.000000,18204.000000,25390.000000,60554.000000
32341.000000,18159.000000,25412.000000,60520.000000
32410.000000,18088.000000,25426.000000,60519.000000
32303.000000,18163.000000,25399.000000,60490.000000
32361.000000,18108.000000,25405.000000,60525.000000
32264.000000,18131.000000,25388.000000,60517.000000
32270.000000,18176.000000,25289.000000,60529.000000
32297.000000,18096.000000,25373.000000,60476.000000
32295.000000,18118.000000,25427.000000,60424.000000
32310.000000,18130.000000,25349.000000,60497.000000
32241.000000,18106.000000,25312.000000,60473.000000
32276.000000,18067.000000,25319.000000,60448.000000
32224.000000,18118.000000,25278.000000,60529.000000
32173.000000,18165.000000,25284.000000,60412.000000
32228.000000,18063.000000,25289.000000,60414.000000
32156.000000,18050.000000,25322.000000,60413.000000
32182.000000,18027.000000,25263.000000,60460.000000
32217.000000,18030.000000,25217.000000,60452.000000
32161.000000,18053.000000,25211.000000,60427.000000
32253.000000,17982.000000,25218.000000,60495.000000
32122.000000,17982.000000,25194.000000,60413.000000
32081.000000,18067.000000,25114.000000,60426.000000
32139.000000,18018.000000,25171.000000,60372.000000
32069.000000,17917.000000,25267.000000,60337.000000
32092.000000,18003.000000,25138.000000,60389.000000
32016.000000,18018.000000,25129.000000,60304.000000
32054.000000,17989.000000,25138.000000,60360.000000
32160.000000,17839.000000,25132.000000,60398.000000
32027.000000,17975.000000,25058.000000,60352.000000
31957.000000,18033.000000,25021.000000,60291.000000
31997.000000,17942.000000,25062.000000,60341.000000
32016.000000,17820.000000,25153.000000,60270.000000
31994.000000,17900.000000,25021.000000,60324.000000
31936.000000,17895.000000,25084.000000,60173.000000
31977.000000,17906.000000,25050.000000,60332.000000
32029.000000,17795.000000,25021.000000,60315.000000
31955.000000,17878.000000,24968.000000,60305.000000
31851.000000,17944.000000,24848.000000,60283.000000
31917.000000,17874.000000,24948.000000,60314.000000
31925.000000,17846.000000,24931.000000,60292.000000
31910.000000,17840.000000,24888.000000,60259.000000
31851.000000,17842.000000,24952.000000,60161.000000
31879.000000,17855.000000,24904.000000,60219.000000
31937.000000,17787.000000,24882.000000,60279.000000
31857.000000,17795.000000,24821.000000,60213.000000
31836.000000,17815.000000,24794.000000,60245.000000
31839.000000,17787.000000,24836.000000,60234.000000
31784.000000,17872.000000,24741.000000,60204.000000
31819.000000,17743.000000,24797.000000,60161.000000
31851.000000,17722.000000,24841.000000,60159.000000
31827.000000,17716.000000,24776.000000,60222.000000
31798.000000,17769.000000,24668.000000,60254.000000
31729.000000,17787.000000,24752.000000,60176.000000
31829.000000,17696.000000,24761.000000,60101.000000
31722.000000,17767.000000,24669.000000,60181.000000
31770.000000,17720.000000,24746.000000,60125.000000
31720.000000,17680.000000,24786.000000,60091.000000
31747.000000,17718.000000,24695.000000,60163.000000
31797.000000,17644.000000,24681.000000,60173.000000
31716.000000,17683.000000,24699.000000,60109.000000
31673.000000,17724.000000,24671.000000,60100.000000
31724.000000,17677.000000,24670.000000,60123.000000
31669.000000,17778.000000,24562.000000,60126.000000
31705.000000,17678.000000,24634.000000,60113.000000
31601.000000,17716.000000,24670.000000,60046.000000
31667.000000,17655.000000,24624.000000,60081.000000
31786.000000,17566.000000,24631.000000,60212.000000
31688.000000,17668.000000,24620.000000,60081.000000
31732.000000,17533.000000,24710.000000,60051.000000
31678.000000,17640.000000,24602.000000,60119.000000
31640.000000,17724.000000,24463.000000,60199.000000
31647.000000,17639.000000,24623.000000,60107.000000
31549.000000,17655.000000,24664.000000,59944.000000
31670.000000,17625.000000,24586.000000,60095.000000
31733.000000,17586.000000,24581.000000,60161.000000
31665.000000,17630.000000,24613.000000,60103.000000
31742.000000,17518.000000,24663.000000,60105.000000
31606.000000,17636.000000,24561.000000,60088.000000
31600.000000,17693.000000,24483.000000,60102.000000
31594.000000,17562.000000,24537.000000,60054.000000
31647.000000,17538.000000,24643.000000,59963.000000
31598.000000,17560.000000,24537.000000,60074.000000
31594.000000,17571.000000,24514.000000,60072.000000
31571.000000,17568.000000,24538.000000,60028.000000
31618.000000,17503.000000,24478.000000,60134.000000
31545.000000,17564.000000,24489.000000,60037.000000
31509.000000,17611.000000,24445.000000,60035.000000
31566.000000,17542.000000,24492.000000,60034.000000
31588.000000,17490.000000,24491.000000,60051.000000
31554.000000,17552.000000,24447.000000,60041.000000
31528.000000,17507.000000,24519.000000,60019.000000
31582.000000,17539.000000,24462.000000,60053.000000
31517.000000,17574.000000,24457.000000,60109.000000
31539.000000,17591.000000,24485.000000,60041.000000
31563.000000,17566.000000,24532.000000,60075.000000
31566.000000,17565.000000,24574.000000,60045.000000
31601.000000,17525.000000,24542.000000,60092.000000
31560.000000,17567.000000,24559.000000,60068.000000
31622.000000,17614.000000,24573.000000,60087.000000
31660.000000,17501.000000,24627.000000,60119.000000
31668.000000,17637.000000,24595.000000,60098.000000
31680.000000,17618.000000,24586.000000,60180.000000
31662.000000,17622.000000,24621.000000,60138.000000
31591.000000,17630.000000,24738.000000,60090.000000
31687.000000,17634.000000,24666.000000,60156.000000
31583.000000,17733.000000,24679.000000,60074.000000
31712.000000,17642.000000,24729.000000,60189.000000
31774.000000,17591.000000,24818.000000,60187.000000
31764.000000,17725.000000,24764.000000,60241.000000
31845.000000,17701.000000,24725.000000,60315.000000
31814.000000,17735.000000,24805.000000,60238.000000
31841.000000,17719.000000,24829.000000,60245.000000
