660nm,730nm,850nm,940nm
23349.000000,12206.000000,15140.000000,53056.000000
23369.000000,12140.000000,15192.000000,53046.000000
23338.000000,12127.000000,15112.000000,53038.000000
23376.000000,12100.000000,15099.000000,53013.000000
23309.000000,12153.000000,15061.000000,53060.000000
23290.000000,12125.000000,15128.000000,52960.000000
23253.000000,12145.000000,15106.000000,53045.000000
23259.000000,12120.000000,15116.000000,53024.000000
23299.000000,12105.000000,15059.000000,53050.000000
23329.000000,12148.000000,15063.000000,53024.000000
23262.000000,12104.000000,15043.000000,52999.000000
23321.000000,12195.000000,15032.000000,52965.000000
23241.000000,12141.000000,15146.000000,52997.000000
23314.000000,12141.000000,15162.000000,52979.000000
23276.000000,12159.000000,15122.000000,52986.000000
23293.000000,12168.000000,15149.000000,53066.000000
23269.000000,12193.000000,15102.000000,53024.000000
23336.000000,12196.000000,15151.000000,53091.000000
23343.000000,12208.000000,15105.000000,53076.000000
23363.000000,12208.000000,15116.000000,53071.000000
23305.000000,12336.000000,15180.000000,53030.000000
23402.000000,12272.000000,15257.000000,53084.000000
23411.000000,12272.000000,15250.000000,53181.000000
23476.000000,12300.000000,15340.000000,53146.000000
23588.000000,12323.000000,15267.000000,53240.000000
23517.000000,12314.000000,15363.000000,53198.000000
23633.000000,12387.000000,15360.000000,53258.000000
23595.000000,12394.000000,15422.000000,53261.000000
23686.000000,12329.000000,15544.000000,53213.000000
23611.000000,12427.000000,15509.000000,53275.000000
23734.000000,12386.000000,15629.000000,53352.000000
23726.000000,12494.000000,15629.000000,53325.000000
23845.000000,12473.000000,15713.000000,53346.000000
23834.000000,12581.000000,15739.000000,53450.000000
23835.000000,12614.000000,15800.000000,53355.000000
23903.000000,12625.000000,15815.000000,53470.000000
23955.000000,12695.000000,15930.000000,53407.000000
24034.000000,12723.000000,15910.000000,53528.000000
23971.000000,12768.000000,15991.000000,53509.000000
24129.000000,12762.000000,16008.000000,53588.000000
24162.000000,12837.000000,16012.000000,53691.000000
24163.000000,12840.000000,16133.000000,53612.000000
24194.000000,12938.000000,16101.000000,53645.000000
24259.000000,12912.000000,16193.000000,53635.000000
24299.000000,12904.000000,16171.000000,53686.000000
24326.000000,12938.000000,16261.000000,53747.000000
24331.000000,12962.000000,16261.000000,53757.000000
24411.000000,12936.000000,16258.000000,53767.000000
24450.000000,12977.000000,16304.000000,53788.000000
24371.000000,12948.000000,16352.000000,53780.000000
24395.000000,12983.000000,16405.000000,53796.000000
24407.000000,12981.000000,16414.000000,53786.000000
24405.000000,13009.000000,16416.000000,53769.000000
24352.000000,13001.000000,16383.000000,53770.000000
24445.000000,12966.000000,16361.000000,53767.000000
24338.000000,12977.000000,16396.000000,53738.000000
24408.000000,13001.000000,16276.000000,53801.000000
24379.000000,12984.000000,16311.000000,53794.000000
24388.000000,12921.000000,16351.000000,53711.000000
24311.000000,13055.000000,16332.000000,53704.000000
24370.000000,12970.000000,16354.000000,53758.000000
24332.000000,12998.000000,16306.000000,53751.000000
24336.000000,12930.000000,16351.000000,53731.000000
24456.000000,12915.000000,16278.000000,53821.000000
24325.000000,12947.000000,16302.000000,53699.000000
24417.000000,12882.000000,16245.000000,53785.000000
24304.000000,12913.000000,16264.000000,53733.000000
24413.000000,12885.000000,16317.000000,53686.000000
24298.000000,12911.000000,16241.000000,53684.000000
24242.000000,12908.000000,16330.000000,53637.000000
24278.000000,12922.000000,16258.000000,53689.000000
24304.000000,12834.000000,16336.000000,53682.000000
24240.000000,12913.000000,16227.000000,53681.000000
24277.000000,12938.000000,16224.000000,53659.000000
24257.000000,12885.000000,16209.000000,53706.000000
24229.000000,12914.000000,16241.000000,53593.000000
24257.000000,12856.000000,16189.000000,53650.000000
24188.000000,12872.000000,16217.000000,53586.000000
24225.000000,12876.000000,16145.000000,53666.000000
24240.000000,12866.000000,16086.000000,53697.000000
24223.000000,12839.000000,16139.000000,53657.000000
24159.000000,12899.000000,16059.000000,53664.000000
24201.000000,12836.000000,16094.000000,53637.000000
24169.000000,12882.000000,16125.000000,53615.000000
24188.000000,12845.000000,16082.000000,53607.000000
24139.000000,12802.000000,16063.000000,53668.000000
24143.000000,12875.000000,16082.000000,53631.000000
24226.000000,12871.000000,16052.000000,53685.000000
24172.000000,12795.000000,16067.000000,53622.000000
24118.000000,12859.000000,16018.000000,53658.000000
24193.000000,12820.000000,16036.000000,53663.000000
24200.000000,12779.000000,16077.000000,53584.000000
24134.000000,12764.000000,16065.000000,53609.000000
24140.000000,12771.000000,16033.000000,53692.000000
24195.000000,12722.000000,15976.000000,53658.000000
24150.000000,12747.000000,15954.000000,53656.000000
24099.000000,12714.000000,16008.000000,53559.000000
24087.000000,12759.000000,15983.000000,53585.000000
24049.000000,12680.000000,16064.000000,53509.000000
24054.000000,12770.000000,15968.000000,53569.000000
24053.000000,12736.000000,15992.000000,53504.000000
24038.000000,12700.000000,15918.000000,53503.000000
23975.000000,12781.000000,15873.000000,53516.000000
24035.000000,12706.000000,15925.000000,53523.000000
24033.000000,12724.000000,15839.000000,53532.000000
24070.000000,12687.000000,15893.000000,53487.000000
23979.000000,12807.000000,15790.000000,53568.000000
24029.000000,12640.000000,15842.000000,53541.000000
24020.000000,12624.000000,15834.000000,53524.000000
24023.000000,12648.000000,15806.000000,53484.000000
24063.000000,12616.000000,15738.000000,53572.000000
23969.000000,12668.000000,15797.000000,53451.000000
24025.000000,12618.000000,15763.000000,53543.000000
23942.000000,12620.000000,15777.000000,53484.000000
23999.000000,12596.000000,15855.000000,53452.000000
23931.000000,12636.000000,15777.000000,53457.000000
23957.000000,12600.000000,15854.000000,53416.000000
23953.000000,12614.000000,15779.000000,53477.000000
23979.000000,12595.000000,15828.000000,53428.000000
23915.000000,12628.000000,15767.000000,53453.000000
23904.000000,12625.000000,15770.000000,53409.000000
23919.000000,12614.000000,15736.000000,53417.000000
23851.000000,12647.000000,15704.000000,53368.000000
23846.000000,12596.000000,15692.000000,53440.000000
23795.000000,12560.000000,15709.000000,53380.000000
23873.000000,12582.000000,15697.000000,53420.000000
23768.000000,12607.000000,15599.000000,53444.000000
23807.000000,12552.000000,15659.000000,53371.000000
23775.000000,12558.000000,15645.000000,53342.000000
23753.000000,12562.000000,15620.000000,53324.000000
23795.000000,12483.000000,15614.000000,53370.000000
23779.000000,12469.000000,15613.000000,53367.000000
23778.000000,12452.000000,15615.000000,53380.000000
23778.000000,12455.000000,15614.000000,53352.000000
23799.000000,12442.000000,15616.000000,53331.000000
23738.000000,12468.000000,15572.000000,53322.000000
23759.000000,12452.000000,15545.000000,53276.000000
23714.000000,12505.000000,15517.000000,53265.000000
23734.000000,12491.000000,15562.000000,53253.000000
23699.000000,12512.000000,15562.000000,53234.000000
23711.000000,12505.000000,15505.000000,53318.000000
23674.000000,12516.000000,15477.000000,53285.000000
23680.000000,12451.000000,15515.000000,53310.000000
23730.000000,12408.000000,15521.000000,53296.000000
23682.000000,12453.000000,15538.000000,53283.000000
23802.000000,12401.000000,15414.000000,53383.000000
23706.000000,12400.000000,15478.000000,53351.000000
23715.000000,12364.000000,15517.000000,53279.000000
23634.000000,12428.000000,15488.000000,53325.000000
23686.000000,12368.000000,15607.000000,53259.000000
23650.000000,12454.000000,15517.000000,53307.000000
23658.000000,12359.000000,15578.000000,53205.000000
23683.000000,12433.000000,15503.000000,53307.000000
23675.000000,12391.000000,15488.000000,53224.000000
23629.000000,12398.000000,15479.000000,53251.000000
23543.000000,12415.000000,15413.000000,53201.000000
23621.000000,12417.000000,15425.000000,53254.000000
23555.000000,12422.000000,15410.000000,53175.000000
23549.000000,12379.000000,15375.000000,53253.000000
23466.000000,12405.000000,15387.000000,53268.000000
23591.000000,12354.000000,15353.000000,53226.000000
23578.000000,12338.000000,15315.000000,53281.000000
23539.000000,12340.000000,15383.000000,53163.000000
23433.000000,12427.000000,15297.000000,53211.000000
23546.000000,12283.000000,15319.000000,53193.000000
23560.000000,12259.000000,15344.000000,53209.000000
23521.000000,12328.000000,15285.000000,53174.000000
23519.000000,12240.000000,15237.000000,53248.000000
23477.000000,12327.000000,15282.000000,53163.000000
23495.000000,12271.000000,15216.000000,53210.000000
23448.000000,12258.000000,15267.000000,53124.000000
23414.000000,12272.000000,15221.000000,53097.000000
23441.000000,12191.000000,15263.000000,53144.000000
23420.000000,12198.000000,15244.000000,53039.000000
23361.000000,12193.000000,15183.000000,53110.000000
23378.000000,12178.000000,15121.000000,53053.000000
23357.000000,12212.000000,15152.000000,53043.000000
23344.000000,12217.000000,15113.000000,53107.000000
23403.000000,12183.000000,15082.000000,53100.000000
23346.000000,12186.000000,15128.000000,53039.000000
23415.000000,12244.000000,15041.000000,53140.000000
23379.000000,12132.000000,15172.000000,53126.000000
23348.000000,12142.000000,15189.000000,53090.000000
23390.000000,12207.000000,15151.000000,53073.000000
23372.000000,12139.000000,15217.000000,53063.000000
23374.000000,12217.000000,15139.000000,53102.000000
23438.000000,12100.000000,15184.000000,53057.000000
23397.000000,12202.000000,15144.000000,53082.000000
23355.000000,12332.000000,15116.000000,53090.000000
23396.000000,12204.000000,15188.000000,53124.000000
23307.000000,12336.000000,15186.000000,53009.000000
23409.000000,12240.000000,15223.000000,53135.000000
23372.000000,12336.000000,15186.000000,53162.000000
23461.000000,12269.000000,15198.000000,53161.000000
23494.000000,12273.000000,15212.000000,53235.000000
23496.000000,12294.000000,15301.000000,53181.000000
23581.000000,12378.000000,15221.000000,53309.000000
23527.000000,12356.000000,15316.000000,53196.000000
23563.000000,12364.000000,15348.000000,53259.000000
23636.000000,12387.000000,15429.000000,53284.000000
23698.000000,12367.000000,15530.000000,53283.000000
23682.000000,12490.000000,15486.000000,53300.000000
23806.000000,12442.000000,15528.000000,53381.000000
23769.000000,12525.000000,15574.000000,53378.000000
23846.000000,12547.000000,15666.000000,53371.000000
23869.000000,12545.000000,15680.000000,53450.000000
23912.000000,12574.000000,15813.000000,53403.000000
24016.000000,12639.000000,15790.000000,53466.000000
24006.000000,12578.000000,15908.000000,53444.000000
24036.000000,12664.000000,15881.000000,53547.000000
24089.000000,12688.000000,15959.000000,53515.000000
24107.000000,12766.000000,15977.000000,53596.000000
24105.000000,12855.000000,16018.000000,53576.000000
24140.000000,12820.000000,16105.000000,53598.000000
24214.000000,12816.000000,16120.000000,53605.000000
24189.000000,12914.000000,16122.000000,53625.000000
24289.000000,12884.000000,16153.000000,53750.000000
24327.000000,12850.000000,16175.000000,53760.000000
24282.000000,12985.000000,16181.000000,53719.000000
24405.000000,12967.000000,16143.000000,53804.000000
24405.000000,12994.000000,16244.000000,53779.000000
24398.000000,12957.000000,16254.000000,53702.000000
24396.000000,12977.000000,16225.000000,53757.000000
24365.000000,12942.000000,16369.000000,53698.000000
24397.000000,12961.000000,16239.000000,53793.000000
24286.000000,12930.000000,16320.000000,53706.000000
24388.000000,12953.000000,16274.000000,53703.000000
24332.000000,13010.000000,16201.000000,53708.000000
24361.000000,12933.000000,16248.000000,53747.000000
24387.000000,12974.000000,16147.000000,53777.000000
24381.000000,12941.000000,16256.000000,53747.000000
24335.000000,13069.000000,16126.000000,53789.000000
24373.000000,12863.000000,16204.000000,53725.000000
24384.000000,12870.000000,16237.000000,53747.000000
24392.000000,12910.000000,16195.000000,53746.000000
24448.000000,12854.000000,16220.000000,53758.000000
24345.000000,12934.000000,16208.000000,53723.000000
24408.000000,12811.000000,16212.000000,53687.000000
24324.000000,12905.000000,16140.000000,53708.000000
24278.000000,12921.000000,16208.000000,53631.000000
24247.000000,12929.000000,16163.000000,53702.000000
24216.000000,12853.000000,16254.000000,53628.000000
24274.000000,12836.000000,16146.000000,53653.000000
24233.000000,12861.000000,16120.000000,53661.000000
24237.000000,12840.000000,16119.000000,53673.000000
24207.000000,12881.000000,16090.000000,53685.000000
24228.000000,12838.000000,16113.000000,53654.000000
24198.000000,12912.000000,16037.000000,53651.000000
24207.000000,12844.000000,16092.000000,53676.000000
24108.000000,12891.000000,16081.000000,53688.000000
24233.000000,12866.000000,16126.000000,53647.000000
24239.000000,12840.000000,16045.000000,53735.000000
24289.000000,12788.000000,16070.000000,53696.000000
24220.000000,12889.000000,16062.000000,53706.000000
24242.000000,12910.000000,16051.000000,53669.000000
24206.000000,12809.000000,16093.000000,53652.000000
24224.000000,12804.000000,16057.000000,53610.000000
24213.000000,12828.000000,16037.000000,53683.000000
24297.000000,12766.000000,16006.000000,53702.000000
24228.000000,12919.000000,15981.000000,53647.000000
24237.000000,12765.000000,16057.000000,53632.000000
24181.000000,12836.000000,16032.000000,53628.000000
24119.000000,12787.000000,16069.000000,53582.000000
24175.000000,12835.000000,16019.000000,53592.000000
24106.000000,12783.000000,16062.000000,53569.000000
24222.000000,12739.000000,15992.000000,53566.000000
24085.000000,12841.000000,15990.000000,53560.000000
24140.000000,12782.000000,15963.000000,53634.000000
24167.000000,12763.000000,15959.000000,53643.000000
24117.000000,12770.000000,16018.000000,53589.000000
24178.000000,12835.000000,15862.000000,53702.000000
24118.000000,12781.000000,15976.000000,53562.000000
24112.000000,12796.000000,15925.000000,53632.000000
24103.000000,12741.000000,15954.000000,53572.000000
24147.000000,12653.000000,15937.000000,53634.000000
24078.000000,12711.000000,15894.000000,53556.000000
24147.000000,12684.000000,15872.000000,53645.000000
24067.000000,12705.000000,15873.000000,53528.000000
24100.000000,12689.000000,15893.000000,53532.000000
24069.000000,12725.000000,15858.000000,53512.000000
24061.000000,12655.000000,15893.000000,53495.000000
24029.000000,12693.000000,15863.000000,53524.000000
24063.000000,12668.000000,15871.000000,53544.000000
23996.000000,12677.000000,15795.000000,53517.000000
24018.000000,12620.000000,15843.000000,53478.000000
23994.000000,12659.000000,15808.000000,53501.000000
23955.000000,12707.000000,15784.000000,53473.000000
23973.000000,12593.000000,15771.000000,53445.000000
23940.000000,12605.000000,15856.000000,53383.000000
24041.000000,12622.000000,15753.000000,53481.000000
23997.000000,12633.000000,15746.000000,53516.000000
23938.000000,12673.000000,15766.000000,53454.000000
23929.000000,12657.000000,15729.000000,53391.000000
23890.000000,12666.000000,15763.000000,53499.000000
23917.000000,12660.000000,15783.000000,53402.000000
23908.000000,12587.000000,15747.000000,53487.000000
23854.000000,12604.000000,15756.000000,53480.000000
23936.000000,12625.000000,15665.000000,53466.000000
23944.000000,12568.000000,15656.000000,53510.000000
23945.000000,12578.000000,15626.000000,53431.000000
23883.000000,12562.000000,15681.000000,53396.000000
23961.000000,12564.000000,15615.000000,53429.000000
23897.000000,12542.000000,15644.000000,53420.000000
23765.000000,12558.000000,15637.000000,53353.000000
23841.000000,12553.000000,15550.000000,53405.000000
23841.000000,12422.000000,15654.000000,53385.000000
23778.000000,12538.000000,15576.000000,53392.000000
23763.000000,12452.000000,15571.000000,53399.000000
23733.000000,12495.000000,15584.000000,53344.000000
23725.000000,12538.000000,15542.000000,53315.000000
23785.000000,12487.000000,15569.000000,53312.000000
23710.000000,12475.000000,15567.000000,53302.000000
23766.000000,12453.000000,15494.000000,53308.000000
23767.000000,12435.000000,15523.000000,53371.000000
23752.000000,12467.000000,15516.000000,53340.000000
23724.000000,12421.000000,15524.000000,53335.000000
23733.000000,12491.000000,15499.000000,53284.000000
23742.000000,12488.000000,15424.000000,53346.000000
23712.000000,12444.000000,15512.000000,53277.000000
23650.000000,12478.000000,15509.000000,53253.000000
23675.000000,12463.000000,15436.000000,53297.000000
23664.000000,12443.000000,15432.000000,53321.000000
23633.000000,12448.000000,15473.000000,53315.000000
23659.000000,12421.000000,15378.000000,53298.000000
23639.000000,12369.000000,15405.000000,53257.000000
23669.000000,12406.000000,15345.000000,53338.000000
23598.000000,12347.000000,15390.000000,53251.000000
23595.000000,12355.000000,15410.000000,53189.000000
23614.000000,12368.000000,15371.000000,53241.000000
23611.000000,12320.000000,15455.000000,53176.000000
23616.000000,12353.000000,15292.000000,53225.000000
23556.000000,12317.000000,15355.000000,53196.000000
23570.000000,12303.000000,15325.000000,53226.000000
23531.000000,12356.000000,15280.000000,53195.000000
23461.000000,12318.000000,15298.000000,53127.000000
23454.000000,12316.000000,15318.000000,53123.000000
23474.000000,12314.000000,15294.000000,53156.000000
23482.000000,12315.000000,15241.000000,53138.000000
23498.000000,12248.000000,15218.000000,53165.000000
23448.000000,12290.000000,15199.000000,53239.000000
23481.000000,12208.000000,15229.000000,53175.000000
23472.000000,12235.000000,15162.000000,53185.000000
23498.000000,12148.000000,15214.000000,53111.000000
23420.000000,12250.000000,15127.000000,53137.000000
23429.000000,12248.000000,15144.000000,53128.000000
23421.000000,12192.000000,15053.000000,53093.000000
23389.000000,12254.000000,15020.000000,53065.000000
23375.000000,12168.000000,15076.000000,53084.000000
23365.000000,12226.000000,15056.000000,53113.000000
23368.000000,12159.000000,15095.000000,53067.000000
23349.000000,12109.000000,15094.000000,53115.000000
23334.000000,12160.000000,15041.000000,53072.000000
23416.000000,12114.000000,15012.000000,53123.000000
23336.000000,12119.000000,15060.000000,53066.000000
23374.000000,12099.000000,15027.000000,53101.000000
23365.000000,12130.000000,15028.000000,53088.000000
23293.000000,12155.000000,15056.000000,53000.000000
23362.000000,12161.000000,15041.000000,53048.000000
23351.000000,12099.000000,15107.000000,52985.000000
23373.000000,12137.000000,15070.000000,53036.000000
23329.000000,12156.000000,15031.000000,53065.000000
23339.000000,12165.000000,15041.000000,53102.000000
23347.000000,12163.000000,14994.000000,53138.000000
23356.000000,12224.000000,15098.000000,53093.000000
23304.000000,12234.000000,15104.000000,53023.000000
23376.000000,12197.000000,15090.000000,53089.000000
23376.000000,12200.000000,15131.000000,53130.000000
23438.000000,12229.000000,15154.000000,53137.000000
23475.000000,12309.000000,15153.000000,53197.000000
23425.000000,12300.000000,15212.000000,53134.000000
23501.000000,12269.000000,15191.000000,53191.000000
23483.000000,12329.000000,15223.000000,53178.000000
23505.000000,12303.000000,15290.000000,53176.000000
23539.000000,12292.000000,15300.000000,53200.000000
23550.000000,12342.000000,15378.000000,53130.000000
23579.000000,12388.000000,15384.000000,53243.000000
23675.000000,12342.000000,15426.000000,53228.000000
23638.000000,12463.000000,15446.000000,53283.000000
23698.000000,12511.000000,15420.000000,53394.000000
23877.000000,12472.000000,15482.000000,53373.000000
23803.000000,12578.000000,15561.000000,53342.000000
23938.000000,12562.000000,15558.000000,53462.000000
23846.000000,12618.000000,15626.000000,53407.000000
23929.000000,12615.000000,15744.000000,53388.000000
24002.000000,12688.000000,15815.000000,53494.000000
23958.000000,12667.000000,15849.000000,53436.000000
24045.000000,12696.000000,15854.000000,53510.000000
24093.000000,12718.000000,15951.000000,53550.000000
24142.000000,12753.000000,15922.000000,53629.000000
24172.000000,12745.000000,16007.000000,53558.000000
24247.000000,12792.000000,15965.000000,53652.000000
24231.000000,12902.000000,15992.000000,53604.000000
24305.000000,12868.000000,16050.000000,53693.000000
24310.000000,12964.000000,16016.000000,53675.000000
24316.000000,12861.000000,16076.000000,53685.000000
24388.000000,12939.000000,15993.000000,53803.000000
24354.000000,12880.000000,16097.000000,53703.000000
24401.000000,12822.000000,16156.000000,53714.000000
24341.000000,12901.000000,16135.000000,53695.000000
24351.000000,12820.000000,16289.000000,53659.000000
24332.000000,12851.000000,16093.000000,53699.000000
24382.000000,12829.000000,16184.000000,53617.000000
24344.000000,12901.000000,16076.000000,53699.000000
24311.000000,12968.000000,16018.000000,53661.000000
24266.000000,12853.000000,16022.000000,53657.000000
24266.000000,12871.000000,16126.000000,53586.000000
24358.000000,12871.000000,16078.000000,53663.000000
24294.000000,12815.000000,16099.000000,53647.000000
24294.000000,12824.000000,16062.000000,53662.000000
24333.000000,12817.000000,16031.000000,53640.000000
24298.000000,12823.000000,16039.000000,53670.000000
24328.000000,12859.000000,16021.000000,53604.000000
24269.000000,12835.000000,16016.000000,53666.000000
24212.000000,12875.000000,16027.000000,53630.000000
24223.000000,12852.000000,16049.000000,53649.000000
24211.000000,12849.000000,16031.000000,53597.000000
24198.000000,12839.000000,15983.000000,53614.000000
24206.000000,12851.000000,15885.000000,53674.000000
24263.000000,12851.000000,15928.000000,53690.000000
24233.000000,12792.000000,15897.000000,53637.000000
24238.000000,12881.000000,15842.000000,53656.000000
24213.000000,12800.000000,15909.000000,53633.000000
24254.000000,12792.000000,15945.000000,53618.000000
24214.000000,12821.000000,15961.000000,53599.000000
24229.000000,12776.000000,15916.000000,53645.000000
24183.000000,12826.000000,15921.000000,53598.000000
24215.000000,12790.000000,15908.000000,53582.000000
24216.000000,12765.000000,15899.000000,53614.000000
24161.000000,12807.000000,15860.000000,53571.000000
24172.000000,12714.000000,15895.000000,53576.000000
24118.000000,12841.000000,15796.000000,53622.000000
24171.000000,12686.000000,15875.000000,53555.000000
24230.000000,12682.000000,15874.000000,53606.000000
24109.000000,12738.000000,15851.000000,53575.000000
24224.000000,12740.000000,15763.000000,53718.000000
24114.000000,12731.000000,15856.000000,53558.000000
24182.000000,12661.000000,15837.000000,53553.000000
24108.000000,12689.000000,15824.000000,53527.000000
24109.000000,12648.000000,15925.000000,53500.000000
24100.000000,12711.000000,15815.000000,53546.000000
24112.000000,12614.000000,15918.000000,53505.000000
24093.000000,12682.000000,15793.000000,53540.000000
24079.000000,12672.000000,15824.000000,53450.000000
24071.000000,12685.000000,15752.000000,53497.000000
24000.000000,12668.000000,15759.000000,53432.000000
24078.000000,12655.000000,15744.000000,53507.000000
24057.000000,12659.000000,15799.000000,53453.000000
24021.000000,12634.000000,15748.000000,53509.000000
24028.000000,12686.000000,15728.000000,53513.000000
24039.000000,12639.000000,15783.000000,53468.000000
24043.000000,12721.000000,15709.000000,53517.000000
24009.000000,12637.000000,15751.000000,53503.000000
23987.000000,12620.000000,15722.000000,53447.000000
23943.000000,12670.000000,15727.000000,53497.000000
24025.000000,12618.000000,15752.000000,53515.000000
24035.000000,12593.000000,15669.000000,53513.000000
24005.000000,12632.000000,15670.000000,53496.000000
24031.000000,12637.000000,15645.000000,53461.000000
23990.000000,12676.000000,15666.000000,53435.000000
23978.000000,12645.000000,15644.000000,53425.000000
23922.000000,12597.000000,15692.000000,53395.000000
23919.000000,12589.000000,15672.000000,53439.000000
23921.000000,12607.000000,15668.000000,53444.000000
23897.000000,12522.000000,15662.000000,53406.000000
23840.000000,12542.000000,15577.000000,53429.000000
23891.000000,12546.000000,15574.000000,53429.000000
23880.000000,12555.000000,15645.000000,53398.000000
23855.000000,12518.000000,15598.000000,53395.000000
23815.000000,12505.000000,15567.000000,53396.000000
23840.000000,12575.000000,15526.000000,53388.000000
23853.000000,12587.000000,15501.000000,53375.000000
23802.000000,12560.000000,15547.000000,53328.000000
23840.000000,12506.000000,15512.000000,53367.000000
23814.000000,12496.000000,15539.000000,53417.000000
23812.000000,12519.000000,15547.000000,53315.000000
23822.000000,12424.000000,15535.000000,53376.000000
23789.000000,12531.000000,15487.000000,53318.000000
23835.000000,12454.000000,15456.000000,53361.000000
23747.000000,12473.000000,15489.000000,53333.000000
23763.000000,12463.000000,15526.000000,53276.000000
23777.000000,12448.000000,15476.000000,53309.000000
23711.000000,12478.000000,15491.000000,53308.000000
23712.000000,12423.000000,15443.000000,53310.000000
23718.000000,12375.000000,15487.000000,53294.000000
23708.000000,12390.000000,15385.000000,53300.000000
23698.000000,12445.000000,15383.000000,53290.000000
23695.000000,12393.000000,15354.000000,53264.000000
23596.000000,12415.000000,15376.000000,53211.000000
23660.000000,12421.000000,15369.000000,53255.000000
23541.000000,12371.000000,15351.000000,53205.000000
23613.000000,12353.000000,15307.000000,53209.000000
23609.000000,12350.000000,15209.000000,53284.000000
23543.000000,12334.000000,15271.000000,53228.000000
23576.000000,12421.000000,15217.000000,53245.000000
23498.000000,12333.000000,15289.000000,53192.000000
23573.000000,12352.000000,15231.000000,53208.000000
23546.000000,12304.000000,15250.000000,53207.000000
23574.000000,12348.000000,15219.000000,53194.000000
23568.000000,12285.000000,15217.000000,53190.000000
23531.000000,12311.000000,15190.000000,53203.000000
23559.000000,12303.000000,15170.000000,53202.000000
23487.000000,12326.000000,15182.000000,53208.000000
23526.000000,12223.000000,15240.000000,53172.000000
23517.000000,12224.000000,15256.000000,53121.000000
23492.000000,12335.000000,15227.000000,53163.000000
23512.000000,12253.000000,15161.000000,53224.000000
23432.000000,12302.000000,15172.000000,53136.000000
23464.000000,12278.000000,15176.000000,53145.000000
23539.000000,12260.000000,15105.000000,53172.000000
23486.000000,12266.000000,15175.000000,53121.000000
23535.000000,12276.000000,15058.000000,53188.000000
23487.000000,12250.000000,15155.000000,53152.000000
23504.000000,12256.000000,15124.000000,53128.000000
23451.000000,12228.000000,15151.000000,53104.000000
23447.000000,12108.000000,15169.000000,53092.000000
23377.000000,12206.000000,15055.000000,53118.000000
23426.000000,12129.000000,15127.000000,53123.000000
23394.000000,12168.000000,15061.000000,53094.000000
23377.000000,12103.000000,15098.000000,53003.000000
23351.000000,12143.000000,14986.000000,53054.000000
23280.000000,12255.000000,15009.000000,52998.000000
23308.000000,12156.000000,15006.000000,53032.000000
23188.000000,12127.000000,15025.000000,52933.000000
23303.000000,12071.000000,14920.000000,52993.000000
23256.000000,12129.000000,14867.000000,53039.000000
23239.000000,12084.000000,14897.000000,53001.000000
23219.000000,12114.000000,14764.000000,53026.000000
23291.000000,12034.000000,14850.000000,53010.000000
23161.000000,12092.000000,14837.000000,52968.000000
23220.000000,12088.000000,14860.000000,52989.000000
23229.000000,12046.000000,14828.000000,53045.000000
23229.000000,12041.000000,14878.000000,52979.000000
23335.000000,12093.000000,14845.000000,53023.000000
23232.000000,12124.000000,14929.000000,53020.000000
23201.000000,12156.000000,14879.000000,53007.000000
23237.000000,12081.000000,14910.000000,53005.000000
23273.000000,12136.000000,14959.000000,53018.000000
23293.000000,12082.000000,14937.000000,53038.000000
23356.000000,12030.000000,15030.000000,53073.000000
23325.000000,12129.000000,15001.000000,53122.000000
23402.000000,12119.000000,15009.000000,53107.000000
23394.000000,12131.000000,15030.000000,53089.000000
23368.000000,12172.000000,15019.000000,53089.000000
23448.000000,12185.000000,15031.000000,53086.000000
23453.000000,12268.000000,15110.000000,53066.000000
23366.000000,12267.000000,15124.000000,53105.000000
23443.000000,12266.000000,15177.000000,53176.000000
23523.000000,12229.000000,15267.000000,53162.000000
23521.000000,12302.000000,15244.000000,53209.000000
23518.000000,12263.000000,15261.000000,53204.000000
23552.000000,12332.000000,15317.000000,53217.000000
23613.000000,12440.000000,15302.000000,53246.000000
23661.000000,12405.000000,15391.000000,53296.000000
23606.000000,12447.000000,15479.000000,53230.000000
23757.000000,12463.000000,15479.000000,53307.000000
23686.000000,12565.000000,15494.000000,53409.000000
23834.000000,12506.000000,15551.000000,53364.000000
23878.000000,12536.000000,15551.000000,53465.000000
23919.000000,12623.000000,15661.000000,53420.000000
23998.000000,12653.000000,15605.000000,53568.000000
23999.000000,12687.000000,15753.000000,53510.000000
24017.000000,12713.000000,15742.000000,53567.000000
24068.000000,12739.000000,15836.000000,53573.000000
24201.000000,12658.000000,15911.000000,53599.000000
24150.000000,12784.000000,15938.000000,53568.000000
24289.000000,12802.000000,15918.000000,53693.000000
24235.000000,12811.000000,15996.000000,53670.000000
24291.000000,12815.000000,16076.000000,53597.000000
24302.000000,12893.000000,16080.000000,53692.000000
24319.000000,12822.000000,16183.000000,53677.000000
24372.000000,12901.000000,16130.000000,53752.000000
24423.000000,12866.000000,16201.000000,53745.000000
24375.000000,12925.000000,16143.000000,53719.000000
24417.000000,12924.000000,16175.000000,53735.000000
24472.000000,12949.000000,16198.000000,53749.000000
24405.000000,12997.000000,16183.000000,53721.000000
24356.000000,12950.000000,16208.000000,53758.000000
24413.000000,12925.000000,16267.000000,53716.000000
24391.000000,12914.000000,16229.000000,53721.000000
24397.000000,12930.000000,16148.000000,53756.000000
24313.000000,12979.000000,16113.000000,53737.000000
24331.000000,12942.000000,16190.000000,53730.000000
24350.000000,12981.000000,16162.000000,53707.000000
24360.000000,12887.000000,16148.000000,53742.000000
24330.000000,12911.000000,16148.000000,53770.000000
24353.000000,12940.000000,16104.000000,53743.000000
24413.000000,12872.000000,16092.000000,53780.000000
24337.000000,12932.000000,16101.000000,53720.000000
24392.000000,12905.000000,16084.000000,53774.000000
24343.000000,12901.000000,16202.000000,53657.000000
24400.000000,12894.000000,16069.000000,53746.000000
24313.000000,12887.000000,16092.000000,53711.000000
24374.000000,12830.000000,16125.000000,53706.000000
24299.000000,12897.000000,16071.000000,53707.000000
24392.000000,12840.000000,16058.000000,53724.000000
24292.000000,12844.000000,16062.000000,53668.000000
24341.000000,12793.000000,16079.000000,53640.000000
24286.000000,12841.000000,16035.000000,53703.000000
24207.000000,12877.000000,16118.000000,53583.000000
24268.000000,12824.000000,16087.000000,53640.000000
24270.000000,12784.000000,16096.000000,53655.000000
24256.000000,12850.000000,16021.000000,53684.000000
24269.000000,12873.000000,16016.000000,53657.000000
24237.000000,12847.000000,16028.000000,53671.000000
24215.000000,12880.000000,16015.000000,53604.000000
24224.000000,12818.000000,16010.000000,53617.000000
24206.000000,12797.000000,16015.000000,53567.000000
24215.000000,12775.000000,15989.000000,53616.000000
24163.000000,12788.000000,15970.000000,53650.000000
24215.000000,12787.000000,15977.000000,53625.000000
24235.000000,12775.000000,15944.000000,53658.000000
24186.000000,12803.000000,15953.000000,53635.000000
24079.000000,12860.000000,15929.000000,53612.000000
24186.000000,12815.000000,15948.000000,53619.000000
24191.000000,12758.000000,15973.000000,53598.000000
24198.000000,12779.000000,15904.000000,53569.000000
24127.000000,12790.000000,15871.000000,53619.000000
24141.000000,12804.000000,15901.000000,53551.000000
24167.000000,12811.000000,15903.000000,53550.000000
24149.000000,12752.000000,15888.000000,53577.000000
24102.000000,12734.000000,15906.000000,53550.000000
24114.000000,12728.000000,15837.000000,53590.000000
24110.000000,12692.000000,15896.000000,53600.000000
24149.000000,12699.000000,15839.000000,53588.000000
24099.000000,12741.000000,15851.000000,53619.000000
24154.000000,12711.000000,15829.000000,53587.000000
24100.000000,12724.000000,15796.000000,53539.000000
24144.000000,12679.000000,15826.000000,53547.000000
24110.000000,12654.000000,15870.000000,53538.000000
24031.000000,12756.000000,15839.000000,53511.000000
24117.000000,12713.000000,15799.000000,53535.000000
24016.000000,12668.000000,15893.000000,53493.000000
24077.000000,12692.000000,15824.000000,53552.000000
24083.000000,12661.000000,15801.000000,53550.000000
24022.000000,12643.000000,15817.000000,53504.000000
24065.000000,12705.000000,15736.000000,53571.000000
24050.000000,12660.000000,15788.000000,53516.000000
23992.000000,12707.000000,15817.000000,53438.000000
24024.000000,12651.000000,15771.000000,53510.000000
23956.000000,12692.000000,15745.000000,53524.000000
24059.000000,12677.000000,15762.000000,53482.000000
24061.000000,12650.000000,15707.000000,53550.000000
23994.000000,12662.000000,15724.000000,53503.000000
24042.000000,12653.000000,15668.000000,53554.000000
23986.000000,12620.000000,15733.000000,53461.000000
24004.000000,12649.000000,15756.000000,53435.000000
23952.000000,12636.000000,15690.000000,53506.000000
23911.000000,12567.000000,15746.000000,53455.000000
23970.000000,12613.000000,15699.000000,53464.000000
24036.000000,12528.000000,15756.000000,53467.000000
23938.000000,12608.000000,15689.000000,53488.000000
23870.000000,12610.000000,15664.000000,53418.000000
23944.000000,12590.000000,15652.000000,53454.000000
23880.000000,12618.000000,15720.000000,53339.000000
23920.000000,12594.000000,15616.000000,53439.000000
23874.000000,12552.000000,15655.000000,53389.000000
23875.000000,12566.000000,15617.000000,53413.000000
23871.000000,12571.000000,15599.000000,53388.000000
23793.000000,12566.000000,15638.000000,53422.000000
23832.000000,12606.000000,15577.000000,53435.000000
23809.000000,12565.000000,15619.000000,53385.000000
23804.000000,12549.000000,15558.000000,53408.000000
23820.000000,12492.000000,15571.000000,53420.000000
23825.000000,12432.000000,15614.000000,53402.000000
23761.000000,12528.000000,15596.000000,53396.000000
23862.000000,12494.000000,15507.000000,53434.000000
23828.000000,12416.000000,15531.000000,53425.000000
23784.000000,12506.000000,15509.000000,53324.000000
23754.000000,12524.000000,15489.000000,53305.000000
23680.000000,12482.000000,15554.000000,53372.000000
23693.000000,12461.000000,15591.000000,53283.000000
23738.000000,12455.000000,15507.000000,53372.000000
23736.000000,12424.000000,15531.000000,53337.000000
23732.000000,12488.000000,15495.000000,53302.000000
23673.000000,12493.000000,15474.000000,53279.000000
23751.000000,12458.000000,15478.000000,53313.000000
23651.000000,12539.000000,15455.000000,53299.000000
23697.000000,12435.000000,15452.000000,53290.000000
23635.000000,12487.000000,15404.000000,53319.000000
23681.000000,12451.000000,15436.000000,53336.000000
23716.000000,12453.000000,15312.000000,53376.000000
23650.000000,12419.000000,15436.000000,53339.000000
23684.000000,12445.000000,15318.000000,53364.000000
23629.000000,12384.000000,15428.000000,53262.000000
23618.000000,12434.000000,15361.000000,53287.000000
23652.000000,12383.000000,15411.000000,53255.000000
23650.000000,12294.000000,15463.000000,53227.000000
23621.000000,12386.000000,15393.000000,53243.000000
23684.000000,12362.000000,15339.000000,53330.000000
23565.000000,12362.000000,15381.000000,53245.000000
23595.000000,12349.000000,15380.000000,53217.000000
23583.000000,12347.000000,15321.000000,53240.000000
23575.000000,12379.000000,15321.000000,53230.000000
23546.000000,12306.000000,15361.000000,53222.000000
23575.000000,12313.000000,15312.000000,53259.000000
23547.000000,12326.000000,15290.000000,53194.000000
23616.000000,12255.000000,15291.000000,53245.000000
23522.000000,12299.000000,15242.000000,53165.000000
23483.000000,12341.000000,15178.000000,53190.000000
23481.000000,12309.000000,15225.000000,53196.000000
23468.000000,12242.000000,15249.000000,53107.000000
23409.000000,12247.000000,15270.000000,53138.000000
23407.000000,12247.000000,15278.000000,53117.000000
23382.000000,12150.000000,15257.000000,53155.000000
23444.000000,12144.000000,15235.000000,53097.000000
23350.000000,12190.000000,15136.000000,53112.000000
23346.000000,12176.000000,15161.000000,53142.000000
23358.000000,12248.000000,15128.000000,53061.000000
23361.000000,12252.000000,15195.000000,53119.000000
23298.000000,12219.000000,15169.000000,53099.000000
23359.000000,12231.000000,15196.000000,53123.000000
23422.000000,12206.000000,15168.000000,53204.000000
23404.000000,12222.000000,15191.000000,53115.000000
23411.000000,12185.000000,15185.000000,53195.000000
23376.000000,12240.000000,15253.000000,53153.000000
23489.000000,12211.000000,15205.000000,53165.000000
23400.000000,12251.000000,15255.000000,53148.000000
23427.000000,12256.000000,15263.000000,53094.000000
23423.000000,12275.000000,15261.000000,53213.000000
23444.000000,12296.000000,15284.000000,53228.000000
23484.000000,12318.000000,15320.000000,53168.000000
23534.000000,12325.000000,15206.000000,53276.000000
23526.000000,12299.000000,15344.000000,53201.000000
23516.000000,12432.000000,15253.000000,53286.000000
23525.000000,12350.000000,15395.000000,53242.000000
23576.000000,12329.000000,15443.000000,53309.000000
23615.000000,12396.000000,15431.000000,53293.000000
23713.000000,12367.000000,15512.000000,53387.000000
23648.000000,12466.000000,15523.000000,53313.000000
23723.000000,12410.000000,15564.000000,53396.000000
23748.000000,12528.000000,15596.000000,53410.000000
23814.000000,12482.000000,15732.000000,53361.000000
23820.000000,12560.000000,15692.000000,53447.000000
23873.000000,12548.000000,15814.000000,53431.000000
23925.000000,12625.000000,15830.000000,53501.000000
24022.000000,12578.000000,15911.000000,53486.000000
24011.000000,12740.000000,15919.000000,53600.000000
24036.000000,12756.000000,15901.000000,53609.000000
24093.000000,12761.000000,16032.000000,53633.000000
24135.000000,12779.000000,16050.000000,53633.000000
24179.000000,12774.000000,16080.000000,53677.000000
24245.000000,12823.000000,16131.000000,53711.000000
24355.000000,12880.000000,16099.000000,53748.000000
24351.000000,12884.000000,16220.000000,53748.000000
24363.000000,12876.000000,16308.000000,53763.000000
24339.000000,12936.000000,16253.000000,53745.000000
24369.000000,12944.000000,16369.000000,53718.000000
24400.000000,13031.000000,16370.000000,53784.000000
24326.000000,13057.000000,16338.000000,53809.000000
24447.000000,12991.000000,16415.000000,53822.000000
24402.000000,13062.000000,16408.000000,53840.000000
24485.000000,13087.000000,16405.000000,53869.000000
24491.000000,13009.000000,16460.000000,53888.000000
24466.000000,13071.000000,16373.000000,53883.000000
24463.000000,13069.000000,16430.000000,53800.000000
24464.000000,13059.000000,16373.000000,53856.000000
24259.000000,13134.000000,16397.000000,53783.000000
24460.000000,13017.000000,16376.000000,53863.000000
24379.000000,13133.000000,16265.000000,53862.000000
24410.000000,13030.000000,16414.000000,53787.000000
24511.000000,13001.000000,16292.000000,53897.000000
24433.000000,13012.000000,16352.000000,53816.000000
24492.000000,13001.000000,16305.000000,53916.000000
24431.000000,13013.000000,16335.000000,53829.000000
24392.000000,13039.000000,16257.000000,53820.000000
24419.000000,12995.000000,16341.000000,53791.000000
24286.000000,13160.000000,16222.000000,53829.000000
24406.000000,13006.000000,16332.000000,53809.000000
24316.000000,13021.000000,16194.000000,53917.000000
24362.000000,12994.000000,16307.000000,53769.000000
24490.000000,12960.000000,16239.000000,53926.000000
24357.000000,12975.000000,16250.000000,53781.000000
24313.000000,13047.000000,16182.000000,53832.000000
24348.000000,12941.000000,16239.000000,53771.000000
24356.000000,12897.000000,16278.000000,53762.000000
24302.000000,12936.000000,16241.000000,53749.000000
24321.000000,12925.000000,16284.000000,53731.000000
24295.000000,12902.000000,16242.000000,53731.000000
24257.000000,12981.000000,16119.000000,53785.000000
24227.000000,12849.000000,16208.000000,53750.000000
24239.000000,12912.000000,16106.000000,53742.000000
24285.000000,12941.000000,16198.000000,53709.000000
24271.000000,12879.000000,16203.000000,53800.000000
24267.000000,12914.000000,16159.000000,53728.000000
24286.000000,12891.000000,16144.000000,53794.000000
24230.000000,12897.000000,16167.000000,53709.000000
24266.000000,12912.000000,16220.000000,53666.000000
24118.000000,12900.000000,16150.000000,53645.000000
24227.000000,12780.000000,16214.000000,53584.000000
24164.000000,12953.000000,16086.000000,53676.000000
24200.000000,12830.000000,16124.000000,53710.000000
24282.000000,12828.000000,16061.000000,53771.000000
24190.000000,12812.000000,16012.000000,53707.000000
24284.000000,12734.000000,16057.000000,53763.000000
24201.000000,12826.000000,16124.000000,53621.000000
23973.000000,12916.000000,16028.000000,53593.000000
24143.000000,12828.000000,16073.000000,53685.000000
24116.000000,12961.000000,15902.000000,53700.000000
24147.000000,12813.000000,16064.000000,53680.000000
24128.000000,12896.000000,15897.000000,53722.000000
24122.000000,12802.000000,16001.000000,53656.000000
24295.000000,12788.000000,15901.000000,53813.000000
24119.000000,12774.000000,15992.000000,53610.000000
23976.000000,12904.000000,15881.000000,53647.000000
24084.000000,12747.000000,16004.000000,53578.000000
24045.000000,12901.000000,15732.000000,53780.000000
24041.000000,12726.000000,15925.000000,53586.000000
24095.000000,12666.000000,15911.000000,53663.000000
24057.000000,12733.000000,15916.000000,53559.000000
24166.000000,12610.000000,15920.000000,53682.000000
24032.000000,12721.000000,15920.000000,53529.000000
24029.000000,12707.000000,15821.000000,53601.000000
24012.000000,12660.000000,15920.000000,53536.000000
23909.000000,12837.000000,15733.000000,53626.000000
23957.000000,12695.000000,15885.000000,53532.000000
23969.000000,12642.000000,15897.000000,53577.000000
24001.000000,12683.000000,15852.000000,53526.000000
24054.000000,12603.000000,15823.000000,53634.000000
23955.000000,12663.000000,15861.000000,53502.000000
23967.000000,12662.000000,15765.000000,53573.000000
23912.000000,12622.000000,15811.000000,53496.000000
23868.000000,12688.000000,15804.000000,53439.000000
23852.000000,12673.000000,15814.000000,53460.000000
23817.000000,12672.000000,15740.000000,53507.000000
23885.000000,12665.000000,15717.000000,53463.000000
23848.000000,12643.000000,15724.000000,53573.000000
23944.000000,12569.000000,15688.000000,53468.000000
23789.000000,12563.000000,15733.000000,53468.000000
23766.000000,12621.000000,15691.000000,53460.000000
23874.000000,12519.000000,15741.000000,53383.000000
23724.000000,12676.000000,15635.000000,53369.000000
23801.000000,12580.000000,15720.000000,53362.000000
23879.000000,12621.000000,15541.000000,53506.000000
23800.000000,12556.000000,15655.000000,53404.000000
23820.000000,12535.000000,15579.000000,53463.000000
23794.000000,12532.000000,15611.000000,53434.000000
23572.000000,12586.000000,15732.000000,53278.000000
23729.000000,12526.000000,15585.000000,53394.000000
23571.000000,12622.000000,15605.000000,53257.000000
23710.000000,12488.000000,15585.000000,53345.000000
23512.000000,12583.000000,15652.000000,53191.000000
23706.000000,12491.000000,15536.000000,53355.000000
23675.000000,12436.000000,15528.000000,53386.000000
23704.000000,12482.000000,15511.000000,53338.000000
23884.000000,12300.000000,15617.000000,53439.000000
23659.000000,12459.000000,15521.000000,53337.000000
23527.000000,12432.000000,15661.000000,53098.000000
23623.000000,12442.000000,15473.000000,53346.000000
23509.000000,12445.000000,15703.000000,53065.000000
23604.000000,12409.000000,15503.000000,53315.000000
23755.000000,12336.000000,15469.000000,53383.000000
23567.000000,12386.000000,15484.000000,53289.000000
23761.000000,12353.000000,15470.000000,53360.000000
23596.000000,12411.000000,15453.000000,53266.000000
23622.000000,12264.000000,15593.000000,53188.000000
23528.000000,12405.000000,15430.000000,53239.000000
23643.000000,12317.000000,15512.000000,53264.000000
23528.000000,12365.000000,15421.000000,53266.000000
23428.000000,12473.000000,15262.000000,53351.000000
23508.000000,12333.000000,15364.000000,53238.000000
23427.000000,12426.000000,15257.000000,53312.000000
23415.000000,12350.000000,15405.000000,53246.000000
23520.000000,12330.000000,15285.000000,53315.000000
23471.000000,12314.000000,15298.000000,53222.000000
23506.000000,12341.000000,15319.000000,53274.000000
23410.000000,12318.000000,15355.000000,53187.000000
23398.000000,12318.000000,15341.000000,53159.000000
23367.000000,12326.000000,15332.000000,53120.000000
23343.000000,12369.000000,15275.000000,53179.000000
23440.000000,12306.000000,15189.000000,53220.000000
23400.000000,12286.000000,15234.000000,53195.000000
23407.000000,12255.000000,15151.000000,53181.000000
23337.000000,12208.000000,15162.000000,53151.000000
23183.000000,12305.000000,15213.000000,53038.000000
23306.000000,12189.000000,15152.000000,53109.000000
23474.000000,12165.000000,15101.000000,53261.000000
23255.000000,12182.000000,15145.000000,53099.000000
23483.000000,12056.000000,15073.000000,53234.000000
23237.000000,12169.000000,15102.000000,53071.000000
23292.000000,12285.000000,14893.000000,53181.000000
23230.000000,12185.000000,15082.000000,53062.000000
23384.000000,12032.000000,15076.000000,53148.000000
23228.000000,12082.000000,15046.000000,53027.000000
23417.000000,11910.000000,15279.000000,52998.000000
23215.000000,12182.000000,15054.000000,53018.000000
23248.000000,11983.000000,15221.000000,52990.000000
23215.000000,12160.000000,15082.000000,53030.000000
23286.000000,12228.000000,14873.000000,53241.000000
23217.000000,12133.000000,15114.000000,53092.000000
23344.000000,12017.000000,15264.000000,52947.000000
23253.000000,12164.000000,15104.000000,53080.000000
23136.000000,12196.000000,15233.000000,52849.000000
23289.000000,12184.000000,15125.000000,53083.000000
23346.000000,12133.000000,15192.000000,53149.000000
23350.000000,12191.000000,15210.000000,53124.000000
23426.000000,12110.000000,15339.000000,53131.000000
23373.000000,12253.000000,15219.000000,53147.000000
23379.000000,12200.000000,15351.000000,53060.000000
23440.000000,12302.000000,15296.000000,53164.000000
23435.000000,12251.000000,15382.000000,53065.000000
23442.000000,12315.000000,15318.000000,53226.000000
23488.000000,12341.000000,15350.000000,53267.000000
23561.000000,12367.000000,15423.000000,53256.000000
23639.000000,12310.000000,15531.000000,53175.000000
23652.000000,12366.000000,15462.000000,53306.000000
23687.000000,12315.000000,15674.000000,53221.000000
23686.000000,12481.000000,15602.000000,53321.000000
23700.000000,12510.000000,15647.000000,53363.000000
23830.000000,12499.000000,15644.000000,53428.000000
23824.000000,12556.000000,15685.000000,53486.000000
23906.000000,12528.000000,15839.000000,53446.000000
23952.000000,12614.000000,15894.000000,53474.000000
23889.000000,12703.000000,15934.000000,53436.000000
24033.000000,12696.000000,15942.000000,53555.000000
23985.000000,12761.000000,16022.000000,53502.000000
24152.000000,12771.000000,16021.000000,53613.000000
24285.000000,12638.000000,16097.000000,53720.000000
24179.000000,12844.000000,16099.000000,53684.000000
24107.000000,12918.000000,16276.000000,53592.000000
24277.000000,12878.000000,16226.000000,53715.000000
24048.000000,13169.000000,16149.000000,53662.000000
24320.000000,12943.000000,16230.000000,53756.000000
24334.000000,12859.000000,16449.000000,53676.000000
24315.000000,12991.000000,16331.000000,53816.000000
24313.000000,12842.000000,16506.000000,53619.000000
24381.000000,12981.000000,16334.000000,53791.000000
24264.000000,13144.000000,16290.000000,53700.000000
24397.000000,12996.000000,16332.000000,53818.000000
24230.000000,13159.000000,16270.000000,53669.000000
24434.000000,12965.000000,16344.000000,53785.000000
24482.000000,12824.000000,16511.000000,53707.000000
24366.000000,12977.000000,16292.000000,53837.000000
24342.000000,12898.000000,16519.000000,53617.000000
24390.000000,12974.000000,16329.000000,53789.000000
24232.000000,13063.000000,16312.000000,53669.000000
24362.000000,12960.000000,16256.000000,53776.000000
24375.000000,12926.000000,16258.000000,53742.000000
24326.000000,12931.000000,16274.000000,53749.000000
24445.000000,12850.000000,16394.000000,53671.000000
24338.000000,12914.000000,16232.000000,53747.000000
24265.000000,12951.000000,16268.000000,53675.000000
24355.000000,12925.000000,16216.000000,53765.000000
24292.000000,12890.000000,16282.000000,53656.000000
24329.000000,12932.000000,16242.000000,53748.000000
24395.000000,12847.000000,16229.000000,53714.000000
24394.000000,12911.000000,16180.000000,53740.000000
24376.000000,12850.000000,16255.000000,53674.000000
24337.000000,12895.000000,16272.000000,53762.000000
24239.000000,12965.000000,16226.000000,53646.000000
24175.000000,12954.000000,16227.000000,53736.000000
24285.000000,12859.000000,16261.000000,53669.000000
24257.000000,12812.000000,16272.000000,53719.000000
24250.000000,12901.000000,16164.000000,53750.000000
24211.000000,12871.000000,16247.000000,53661.000000
24214.000000,12873.000000,16217.000000,53650.000000
24179.000000,13018.000000,16029.000000,53738.000000
24202.000000,12847.000000,16183.000000,53654.000000
24210.000000,12975.000000,16047.000000,53661.000000
24254.000000,12760.000000,16127.000000,53712.000000
24083.000000,12841.000000,16240.000000,53522.000000
24204.000000,12848.000000,16094.000000,53695.000000
24018.000000,12898.000000,16118.000000,53563.000000
24139.000000,12919.000000,16061.000000,53646.000000
23993.000000,13047.000000,15928.000000,53644.000000
24139.000000,12810.000000,16069.000000,53649.000000
24264.000000,12682.000000,16176.000000,53601.000000
24155.000000,12806.000000,16047.000000,53696.000000
23946.000000,12896.000000,16106.000000,53430.000000
24133.000000,12774.000000,16019.000000,53621.000000
23938.000000,12924.000000,16026.000000,53485.000000
24082.000000,12774.000000,16020.000000,53672.000000
24009.000000,12908.000000,15889.000000,53649.000000
24117.000000,12772.000000,16007.000000,53606.000000
24192.000000,12680.000000,16158.000000,53414.000000
24133.000000,12761.000000,15966.000000,53590.000000
24039.000000,12740.000000,16109.000000,53388.000000
24095.000000,12742.000000,15962.000000,53594.000000
23966.000000,12841.000000,15927.000000,53531.000000
24047.000000,12748.000000,15957.000000,53562.000000
24042.000000,12687.000000,15977.000000,53580.000000
24065.000000,12714.000000,15957.000000,53575.000000
24133.000000,12578.000000,16018.000000,53523.000000
24002.000000,12690.000000,15925.000000,53606.000000
23972.000000,12716.000000,15935.000000,53461.000000
24011.000000,12661.000000,15897.000000,53573.000000
23882.000000,12789.000000,15853.000000,53541.000000
24002.000000,12694.000000,15826.000000,53544.000000
23984.000000,12615.000000,15880.000000,53540.000000
24068.000000,12623.000000,15859.000000,53591.000000
24093.000000,12628.000000,15899.000000,53508.000000
23905.000000,12645.000000,15883.000000,53479.000000
24030.000000,12617.000000,15896.000000,53391.000000
23810.000000,12675.000000,15826.000000,53422.000000
24024.000000,12640.000000,15835.000000,53442.000000
23936.000000,12557.000000,15898.000000,53457.000000
23898.000000,12601.000000,15743.000000,53544.000000
23952.000000,12475.000000,15876.000000,53519.000000
23879.000000,12606.000000,15804.000000,53538.000000
23799.000000,12607.000000,15843.000000,53413.000000
23862.000000,12594.000000,15748.000000,53502.000000
23816.000000,12640.000000,15772.000000,53395.000000
23901.000000,12626.000000,15711.000000,53484.000000
24029.000000,12417.000000,15773.000000,53510.000000
23846.000000,12623.000000,15724.000000,53452.000000
23925.000000,12396.000000,15896.000000,53363.000000
23807.000000,12586.000000,15682.000000,53444.000000
23721.000000,12452.000000,15889.000000,53167.000000
23786.000000,12552.000000,15702.000000,53399.000000
23935.000000,12530.000000,15523.000000,53611.000000
23808.000000,12528.000000,15688.000000,53384.000000
23929.000000,12424.000000,15632.000000,53468.000000
23781.000000,12501.000000,15629.000000,53389.000000
23927.000000,12294.000000,15784.000000,53332.000000
23752.000000,12507.000000,15569.000000,53412.000000
23745.000000,12292.000000,15792.000000,53228.000000
23709.000000,12505.000000,15621.000000,53393.000000
23815.000000,12487.000000,15516.000000,53545.000000
23664.000000,12468.000000,15519.000000,53390.000000
23717.000000,12431.000000,15558.000000,53437.000000
23691.000000,12457.000000,15533.000000,53323.000000
23785.000000,12316.000000,15549.000000,53317.000000
23583.000000,12431.000000,15503.000000,53353.000000
23648.000000,12350.000000,15485.000000,53331.000000
23616.000000,12422.000000,15480.000000,53289.000000
23593.000000,12473.000000,15311.000000,53424.000000
23623.000000,12405.000000,15469.000000,53290.000000
23574.000000,12405.000000,15373.000000,53333.000000
23570.000000,12460.000000,15412.000000,53258.000000
23677.000000,12388.000000,15374.000000,53353.000000
23560.000000,12302.000000,15393.000000,53309.000000
23505.000000,12423.000000,15363.000000,53282.000000
23447.000000,12436.000000,15357.000000,53256.000000
23506.000000,12445.000000,15401.000000,53217.000000
23595.000000,12397.000000,15335.000000,53276.000000
23489.000000,12397.000000,15300.000000,53299.000000
23630.000000,12294.000000,15328.000000,53339.000000
23524.000000,12311.000000,15314.000000,53275.000000
23430.000000,12421.000000,15289.000000,53257.000000
23462.000000,12341.000000,15307.000000,53273.000000
23614.000000,12236.000000,15192.000000,53323.000000
23471.000000,12295.000000,15312.000000,53203.000000
23634.000000,12104.000000,15302.000000,53301.000000
23483.000000,12271.000000,15249.000000,53176.000000
23577.000000,12122.000000,15321.000000,53214.000000
23403.000000,12261.000000,15263.000000,53163.000000
23187.000000,12485.000000,15055.000000,53154.000000
23389.000000,12233.000000,15191.000000,53184.000000
23410.000000,12324.000000,15020.000000,53295.000000
23330.000000,12155.000000,15177.000000,53166.000000
23380.000000,12303.000000,14894.000000,53396.000000
23325.000000,12186.000000,15151.000000,53112.000000
23236.000000,12272.000000,15067.000000,52993.000000
23283.000000,12143.000000,15091.000000,53118.000000
23100.000000,12182.000000,15155.000000,52859.000000
23241.000000,12117.000000,15040.000000,53068.000000
23120.000000,12331.000000,14899.000000,53075.000000
23190.000000,12121.000000,15017.000000,53043.000000
23044.000000,12208.000000,14868.000000,53086.000000
23204.000000,12099.000000,14997.000000,53011.000000
23182.000000,12014.000000,15097.000000,52834.000000
23144.000000,12034.000000,14971.000000,52973.000000
23111.000000,12001.000000,15033.000000,52836.000000
23137.000000,12040.000000,14961.000000,53006.000000
23082.000000,12039.000000,15041.000000,52874.000000
23144.000000,12040.000000,14960.000000,53015.000000
23122.000000,12079.000000,14964.000000,53039.000000
23163.000000,12098.000000,14994.000000,53038.000000
23228.000000,12055.000000,15031.000000,53030.000000
23212.000000,12051.000000,15032.000000,53081.000000
23221.000000,12062.000000,15134.000000,52982.000000
23279.000000,12019.000000,15087.000000,53116.000000
23289.000000,12063.000000,15161.000000,53073.000000
23274.000000,12123.000000,15075.000000,53081.000000
23259.000000,12187.000000,15035.000000,53156.000000
23346.000000,12201.000000,15001.000000,53096.000000
23309.000000,12209.000000,15118.000000,53166.000000
23380.000000,12062.000000,15241.000000,53160.000000
23351.000000,12250.000000,15170.000000,53230.000000
23382.000000,12112.000000,15373.000000,53138.000000
23415.000000,12273.000000,15259.000000,53155.000000
23545.000000,12220.000000,15230.000000,53262.000000
23475.000000,12303.000000,15371.000000,53233.000000
23725.000000,12168.000000,15421.000000,53413.000000
23527.000000,12397.000000,15419.000000,53291.000000
23729.000000,12222.000000,15607.000000,53276.000000
23644.000000,12423.000000,15516.000000,53330.000000
23799.000000,12297.000000,15751.000000,53348.000000
23727.000000,12501.000000,15602.000000,53411.000000
23735.000000,12683.000000,15450.000000,53594.000000
23834.000000,12608.000000,15737.000000,53409.000000
24035.000000,12581.000000,15621.000000,53672.000000
23897.000000,12619.000000,15793.000000,53511.000000
24099.000000,12436.000000,15927.000000,53635.000000
23990.000000,12708.000000,15904.000000,53556.000000
23985.000000,12792.000000,15914.000000,53518.000000
24062.000000,12752.000000,15970.000000,53652.000000
23951.000000,12952.000000,15896.000000,53686.000000
24174.000000,12824.000000,16112.000000,53696.000000
24183.000000,12983.000000,15942.000000,53839.000000
24235.000000,12858.000000,16158.000000,53686.000000
24157.000000,12990.000000,16001.000000,53884.000000
24299.000000,12896.000000,16186.000000,53760.000000
24375.000000,12818.000000,16370.000000,53636.000000
24273.000000,12930.000000,16223.000000,53791.000000
24346.000000,12862.000000,16334.000000,53676.000000
24357.000000,12948.000000,16289.000000,53788.000000
24222.000000,12931.000000,16310.000000,53709.000000
24370.000000,12892.000000,16288.000000,53809.000000
24320.000000,12908.000000,16361.000000,53726.000000
24352.000000,12933.000000,16227.000000,53772.000000
24482.000000,12826.000000,16325.000000,53788.000000
24359.000000,12885.000000,16239.000000,53831.000000
24343.000000,12926.000000,16345.000000,53719.000000
24258.000000,12914.000000,16326.000000,53717.000000
24290.000000,12866.000000,16313.000000,53685.000000
24262.000000,12926.000000,16266.000000,53733.000000
24256.000000,12909.000000,16202.000000,53761.000000
24372.000000,12853.000000,16222.000000,53799.000000
24263.000000,12894.000000,16191.000000,53834.000000
24371.000000,12759.000000,16233.000000,53824.000000
24249.000000,12884.000000,16171.000000,53690.000000
24245.000000,12861.000000,16320.000000,53611.000000
24262.000000,12902.000000,16206.000000,53721.000000
24351.000000,12842.000000,16152.000000,53707.000000
24209.000000,12848.000000,16176.000000,53705.000000
24393.000000,12716.000000,16267.000000,53733.000000
24236.000000,12849.000000,16170.000000,53692.000000
24086.000000,12766.000000,16354.000000,53557.000000
24208.000000,12880.000000,16156.000000,53686.000000
24054.000000,12854.000000,16233.000000,53513.000000
24155.000000,12817.000000,16134.000000,53652.000000
24351.000000,12678.000000,16078.000000,53829.000000
24167.000000,12832.000000,16062.000000,53666.000000
24252.000000,12685.000000,16258.000000,53593.000000
24167.000000,12782.000000,16054.000000,53649.000000
24122.000000,12668.000000,16289.000000,53436.000000
24123.000000,12816.000000,16023.000000,53653.000000
24129.000000,12768.000000,16102.000000,53594.000000
24106.000000,12766.000000,16063.000000,53663.000000
24251.000000,12657.000000,16082.000000,53721.000000
24140.000000,12805.000000,16009.000000,53608.000000
24015.000000,12863.000000,15982.000000,53584.000000
24089.000000,12758.000000,15985.000000,53616.000000
23966.000000,12833.000000,15987.000000,53494.000000
24077.000000,12730.000000,15944.000000,53612.000000
24118.000000,12695.000000,16057.000000,53543.000000
24042.000000,12765.000000,15994.000000,53619.000000
24090.000000,12635.000000,16039.000000,53580.000000
24109.000000,12744.000000,15962.000000,53612.000000
24097.000000,12658.000000,16020.000000,53470.000000
24037.000000,12666.000000,15938.000000,53620.000000
24042.000000,12662.000000,15947.000000,53482.000000
24044.000000,12795.000000,15879.000000,53573.000000
23989.000000,12765.000000,15854.000000,53633.000000
24027.000000,12693.000000,15825.000000,53627.000000
23961.000000,12712.000000,15851.000000,53641.000000
24083.000000,12614.000000,15856.000000,53595.000000
23952.000000,12709.000000,15800.000000,53566.000000
24008.000000,12572.000000,15882.000000,53532.000000
23900.000000,12689.000000,15846.000000,53524.000000
23900.000000,12763.000000,15716.000000,53550.000000
23926.000000,12626.000000,15820.000000,53496.000000
23994.000000,12638.000000,15693.000000,53601.000000
23876.000000,12662.000000,15787.000000,53480.000000
24133.000000,12448.000000,15798.000000,53633.000000
23874.000000,12600.000000,15775.000000,53504.000000
23795.000000,12692.000000,15642.000000,53529.000000
23834.000000,12566.000000,15761.000000,53501.000000
23771.000000,12739.000000,15490.000000,53586.000000
23829.000000,12538.000000,15719.000000,53475.000000
23963.000000,12460.000000,15691.000000,53605.000000
23816.000000,12565.000000,15705.000000,53448.000000
24005.000000,12452.000000,15610.000000,53680.000000
23751.000000,12569.000000,15679.000000,53470.000000
23713.000000,12692.000000,15406.000000,53562.000000
23771.000000,12527.000000,15641.000000,53413.000000
23808.000000,12603.000000,15470.000000,53559.000000
23726.000000,12525.000000,15595.000000,53378.000000
23849.000000,12484.000000,15494.000000,53630.000000
23751.000000,12521.000000,15596.000000,53386.000000
23702.000000,12481.000000,15579.000000,53415.000000
23661.000000,12455.000000,15562.000000,53338.000000
23573.000000,12543.000000,15473.000000,53457.000000
23654.000000,12475.000000,15561.000000,53387.000000
23669.000000,12527.000000,15473.000000,53464.000000
23646.000000,12450.000000,15546.000000,53366.000000
23654.000000,12407.000000,15479.000000,53438.000000
23624.000000,12427.000000,15479.000000,53348.000000
23559.000000,12507.000000,15423.000000,53361.000000
23567.000000,12451.000000,15495.000000,53331.000000
23571.000000,12421.000000,15388.000000,53403.000000
23603.000000,12498.000000,15444.000000,53264.000000
23661.000000,12472.000000,15366.000000,53383.000000
23610.000000,12426.000000,15398.000000,53315.000000
23522.000000,12426.000000,15416.000000,53282.000000
23473.000000,12426.000000,15430.000000,53248.000000
23526.000000,12380.000000,15479.000000,53223.000000
23455.000000,12433.000000,15344.000000,53277.000000
23496.000000,12385.000000,15360.000000,53273.000000
23575.000000,12373.000000,15255.000000,53375.000000
23506.000000,12388.000000,15317.000000,53251.000000
23544.000000,12354.000000,15258.000000,53276.000000
23455.000000,12254.000000,15336.000000,53243.000000
23349.000000,12456.000000,15335.000000,53118.000000
23472.000000,12338.000000,15337.000000,53206.000000
23498.000000,12373.000000,15155.000000,53284.000000
23444.000000,12304.000000,15268.000000,53231.000000
23661.000000,12094.000000,15352.000000,53302.000000
23410.000000,12281.000000,15290.000000,53197.000000
23297.000000,12360.000000,15207.000000,53273.000000
23392.000000,12278.000000,15256.000000,53212.000000
23401.000000,12405.000000,14997.000000,53432.000000
23365.000000,12261.000000,15225.000000,53201.000000
23508.000000,12181.000000,15152.000000,53262.000000
23325.000000,12239.000000,15211.000000,53162.000000
23510.000000,12032.000000,15258.000000,53233.000000
23338.000000,12208.000000,15188.000000,53154.000000
23228.000000,12398.000000,14960.000000,53205.000000
23301.000000,12170.000000,15133.000000,53158.000000
23386.000000,12219.000000,15023.000000,53317.000000
23286.000000,12151.000000,15144.000000,53145.000000
23394.000000,12026.000000,15228.000000,53179.000000
23268.000000,12194.000000,15127.000000,53109.000000
23275.000000,12138.000000,15092.000000,53071.000000
23252.000000,12139.000000,15116.000000,53063.000000
23081.000000,12286.000000,14919.000000,53155.000000
23197.000000,12133.000000,15058.000000,53053.000000
23269.000000,12036.000000,15037.000000,53149.000000
23159.000000,12103.000000,14991.000000,53068.000000
23160.000000,12072.000000,14938.000000,53132.000000
23140.000000,12122.000000,15005.000000,53021.000000
23080.000000,12129.000000,14981.000000,52973.000000
23045.000000,12014.000000,14954.000000,53038.000000
22993.000000,12062.000000,14924.000000,52976.000000
23087.000000,12089.000000,14876.000000,52980.000000
23105.000000,12086.000000,14815.000000,53108.000000
23139.000000,12007.000000,14860.000000,53043.000000
23016.000000,12102.000000,14816.000000,53004.000000
22976.000000,12084.000000,14914.000000,52911.000000
23001.000000,12019.000000,14932.000000,52895.000000
22974.000000,12099.000000,14829.000000,52909.000000
23013.000000,11966.000000,14964.000000,52903.000000
23033.000000,12124.000000,14775.000000,53044.000000
23034.000000,12030.000000,14918.000000,52933.000000
23085.000000,11987.000000,14855.000000,53036.000000
23044.000000,12022.000000,14922.000000,53021.000000
22891.000000,12117.000000,14952.000000,52922.000000
23110.000000,12081.000000,14909.000000,52978.000000
22906.000000,12217.000000,14824.000000,52975.000000
23147.000000,12015.000000,14942.000000,53062.000000
23043.000000,12263.000000,14772.000000,53155.000000
23158.000000,12058.000000,15013.000000,53039.000000
23097.000000,12046.000000,15153.000000,52993.000000
23146.000000,12104.000000,15061.000000,53072.000000
23074.000000,12196.000000,15216.000000,52930.000000
23256.000000,12156.000000,15141.000000,53092.000000
23152.000000,12382.000000,15000.000000,53154.000000
23324.000000,12235.000000,15214.000000,53147.000000
23209.000000,12460.000000,15112.000000,53184.000000
23399.000000,12255.000000,15273.000000,53198.000000
23430.000000,12202.000000,15519.000000,53053.000000
23432.000000,12321.000000,15383.000000,53244.000000
23463.000000,12328.000000,15502.000000,53093.000000
23514.000000,12394.000000,15491.000000,53286.000000
23449.000000,12541.000000,15493.000000,53244.000000
23654.000000,12452.000000,15586.000000,53383.000000
23615.000000,12548.000000,15616.000000,53372.000000
23737.000000,12538.000000,15702.000000,53447.000000
23885.000000,12464.000000,15770.000000,53469.000000
23779.000000,12624.000000,15794.000000,53519.000000
23957.000000,12551.000000,15904.000000,53452.000000
23941.000000,12644.000000,15851.000000,53533.000000
23970.000000,12625.000000,16012.000000,53489.000000
24030.000000,12701.000000,15971.000000,53634.000000
24047.000000,12843.000000,15999.000000,53698.000000
24135.000000,12817.000000,15990.000000,53658.000000
24142.000000,12792.000000,16052.000000,53705.000000
24174.000000,12723.000000,16139.000000,53740.000000
24203.000000,12842.000000,16134.000000,53760.000000
24263.000000,12727.000000,16240.000000,53721.000000
24163.000000,12838.000000,16187.000000,53751.000000
24292.000000,12890.000000,16144.000000,53765.000000
24198.000000,12893.000000,16204.000000,53802.000000
24290.000000,12781.000000,16272.000000,53792.000000
24229.000000,12908.000000,16220.000000,53817.000000
24140.000000,12861.000000,16345.000000,53672.000000
24272.000000,12920.000000,16222.000000,53789.000000
24204.000000,12805.000000,16372.000000,53712.000000
24236.000000,12905.000000,16199.000000,53764.000000
24441.000000,12832.000000,16152.000000,53886.000000
24246.000000,12933.000000,16211.000000,53744.000000
24388.000000,12736.000000,16275.000000,53835.000000
24212.000000,12857.000000,16227.000000,53756.000000
24410.000000,12619.000000,16433.000000,53657.000000
24229.000000,12862.000000,16210.000000,53769.000000
24248.000000,12873.000000,16161.000000,53751.000000
24213.000000,12874.000000,16151.000000,53726.000000
24328.000000,12974.000000,15967.000000,53945.000000
24187.000000,12915.000000,16137.000000,53725.000000
24294.000000,12797.000000,16131.000000,53775.000000
24193.000000,12831.000000,16107.000000,53700.000000
24305.000000,12692.000000,16259.000000,53743.000000
24138.000000,12811.000000,16120.000000,53674.000000
24082.000000,12886.000000,15963.000000,53808.000000
24092.000000,12815.000000,16117.000000,53704.000000
24131.000000,12895.000000,15939.000000,53824.000000
24072.000000,12776.000000,16056.000000,53665.000000
24164.000000,12688.000000,16106.000000,53663.000000
24082.000000,12727.000000,16071.000000,53640.000000
24139.000000,12736.000000,16027.000000,53684.000000
24030.000000,12756.000000,16038.000000,53622.000000
24020.000000,12827.000000,15929.000000,53666.000000
24017.000000,12789.000000,16010.000000,53612.000000
24129.000000,12729.000000,15990.000000,53691.000000
24105.000000,12762.000000,15980.000000,53623.000000
24070.000000,12714.000000,15983.000000,53695.000000
24109.000000,12713.000000,15986.000000,53636.000000
24043.000000,12802.000000,16053.000000,53590.000000
23994.000000,12842.000000,15918.000000,53612.000000
23961.000000,12816.000000,15947.000000,53630.000000
24078.000000,12728.000000,15905.000000,53657.000000
23953.000000,12762.000000,15967.000000,53703.000000
24115.000000,12604.000000,15992.000000,53691.000000
23992.000000,12718.000000,15920.000000,53645.000000
24027.000000,12745.000000,15934.000000,53557.000000
23965.000000,12726.000000,15956.000000,53552.000000
24125.000000,12598.000000,15850.000000,53684.000000
23920.000000,12675.000000,15961.000000,53565.000000
23893.000000,12646.000000,16000.000000,53462.000000
23915.000000,12682.000000,15952.000000,53541.000000
23790.000000,12652.000000,16072.000000,53378.000000
23932.000000,12693.000000,15876.000000,53519.000000
24082.000000,12518.000000,15896.000000,53633.000000
23881.000000,12668.000000,15862.000000,53539.000000
23978.000000,12467.000000,15992.000000,53463.000000
23848.000000,12641.000000,15828.000000,53514.000000
23673.000000,12690.000000,15958.000000,53289.000000
23817.000000,12669.000000,15852.000000,53500.000000
23734.000000,12709.000000,15782.000000,53432.000000
23832.000000,12617.000000,15807.000000,53505.000000
23843.000000,12456.000000,16045.000000,53308.000000
23763.000000,12614.000000,15746.000000,53499.000000
23688.000000,12623.000000,15793.000000,53378.000000
23802.000000,12565.000000,15772.000000,53464.000000
23631.000000,12749.000000,15645.000000,53416.000000
23763.000000,12545.000000,15709.000000,53456.000000
23789.000000,12494.000000,15816.000000,53391.000000
23759.000000,12563.000000,15715.000000,53416.000000
23801.000000,12477.000000,15838.000000,53295.000000
23726.000000,12544.000000,15696.000000,53457.000000
23717.000000,12486.000000,15828.000000,53277.000000
23766.000000,12547.000000,15692.000000,53426.000000
23715.000000,12513.000000,15744.000000,53369.000000
23681.000000,12517.000000,15630.000000,53432.000000
23700.000000,12483.000000,15669.000000,53443.000000
23759.000000,12503.000000,15594.000000,53425.000000
23688.000000,12433.000000,15744.000000,53331.000000
23612.000000,12445.000000,15715.000000,53380.000000
23595.000000,12491.000000,15669.000000,53370.000000
23546.000000,12522.000000,15661.000000,53328.000000
23635.000000,12449.000000,15597.000000,53438.000000
23696.000000,12341.000000,15649.000000,53443.000000
23645.000000,12439.000000,15613.000000,53372.000000
23557.000000,12521.000000,15573.000000,53282.000000
23584.000000,12464.000000,15575.000000,53285.000000
23424.000000,12569.000000,15482.000000,53254.000000
23557.000000,12493.000000,15509.000000,53288.000000
23558.000000,12435.000000,15555.000000,53283.000000
23529.000000,12417.000000,15512.000000,53363.000000
23352.000000,12602.000000,15428.000000,53258.000000
23548.000000,12417.000000,15487.000000,53326.000000
23489.000000,12510.000000,15336.000000,53444.000000
23463.000000,12407.000000,15440.000000,53302.000000
23640.000000,12324.000000,15318.000000,53453.000000
23459.000000,12371.000000,15426.000000,53302.000000
23296.000000,12562.000000,15284.000000,53283.000000
23436.000000,12354.000000,15454.000000,53278.000000
23375.000000,12540.000000,15140.000000,53346.000000
23401.000000,12339.000000,15360.000000,53305.000000
23545.000000,12347.000000,15257.000000,53478.000000
23382.000000,12360.000000,15386.000000,53233.000000
23438.000000,12272.000000,15400.000000,53343.000000
23413.000000,12323.000000,15374.000000,53268.000000
23290.000000,12504.000000,15264.000000,53238.000000
23414.000000,12292.000000,15377.000000,53241.000000
23425.000000,12310.000000,15225.000000,53352.000000
23384.000000,12303.000000,15357.000000,53243.000000
23349.000000,12390.000000,15146.000000,53407.000000
23353.000000,12247.000000,15284.000000,53220.000000
23247.000000,12241.000000,15349.000000,53068.000000
23337.000000,12244.000000,15289.000000,53180.000000
23276.000000,12288.000000,15333.000000,53105.000000
23283.000000,12203.000000,15250.000000,53167.000000
23208.000000,12315.000000,15185.000000,53150.000000
23281.000000,12213.000000,15251.000000,53142.000000
23198.000000,12254.000000,15219.000000,53088.000000
23219.000000,12221.000000,15230.000000,53175.000000
23273.000000,12106.000000,15288.000000,53034.000000
23254.000000,12081.000000,15218.000000,53143.000000
23198.000000,12162.000000,15221.000000,53090.000000
23132.000000,12201.000000,15147.000000,53024.000000
23183.000000,12191.000000,15163.000000,52955.000000
23117.000000,12187.000000,15155.000000,52976.000000
23188.000000,12126.000000,15103.000000,53050.000000
23109.000000,12063.000000,15188.000000,53001.000000
23090.000000,12133.000000,15034.000000,53092.000000
22999.000000,12118.000000,15134.000000,52984.000000
23058.000000,12075.000000,14995.000000,53043.000000
22859.000000,12216.000000,15004.000000,52890.000000
23014.000000,12043.000000,14978.000000,52960.000000
23000.000000,11972.000000,15045.000000,52970.000000
23025.000000,11999.000000,14883.000000,52991.000000
22826.000000,12098.000000,14996.000000,52859.000000
22960.000000,12072.000000,14939.000000,52950.000000
22876.000000,12220.000000,14809.000000,52978.000000
22977.000000,11993.000000,14888.000000,52967.000000
22798.000000,12224.000000,14737.000000,53043.000000
22976.000000,11961.000000,14911.000000,52924.000000
22968.000000,11925.000000,15123.000000,52757.000000
22977.000000,12023.000000,14927.000000,52941.000000
22827.000000,12174.000000,14823.000000,52984.000000
23002.000000,12024.000000,14932.000000,53001.000000
22970.000000,12256.000000,14732.000000,53097.000000
23026.000000,12017.000000,15022.000000,53021.000000
23049.000000,12065.000000,14966.000000,53110.000000
23100.000000,12053.000000,15047.000000,53047.000000
22974.000000,12228.000000,15017.000000,52937.000000
23135.000000,12093.000000,15072.000000,53075.000000
23089.000000,12188.000000,15012.000000,53134.000000
23192.000000,12158.000000,15132.000000,53066.000000
23196.000000,12255.000000,15011.000000,53301.000000
23218.000000,12122.000000,15146.000000,53144.000000
23174.000000,12228.000000,15291.000000,53045.000000
23271.000000,12188.000000,15272.000000,53186.000000
23184.000000,12374.000000,15250.000000,53198.000000
23252.000000,12235.000000,15328.000000,53201.000000
23289.000000,12330.000000,15293.000000,53342.000000
23453.000000,12389.000000,15361.000000,53244.000000
23435.000000,12379.000000,15351.000000,53379.000000
23440.000000,12415.000000,15460.000000,53292.000000
23471.000000,12417.000000,15588.000000,53222.000000
23474.000000,12545.000000,15531.000000,53273.000000
23512.000000,12523.000000,15584.000000,53395.000000
23660.000000,12541.000000,15636.000000,53460.000000
23669.000000,12541.000000,15675.000000,53504.000000
23780.000000,12530.000000,15745.000000,53564.000000
23879.000000,12612.000000,15856.000000,53494.000000
23732.000000,12757.000000,15750.000000,53578.000000
23849.000000,12674.000000,15880.000000,53505.000000
24010.000000,12747.000000,15848.000000,53650.000000
23910.000000,12744.000000,16009.000000,53607.000000
24162.000000,12578.000000,15997.000000,53743.000000
23977.000000,12795.000000,16075.000000,53620.000000
24027.000000,12855.000000,16024.000000,53658.000000
24079.000000,12841.000000,16094.000000,53696.000000
24103.000000,12925.000000,15922.000000,53862.000000
24044.000000,12827.000000,16134.000000,53748.000000
24261.000000,12663.000000,16281.000000,53690.000000
24094.000000,12829.000000,16167.000000,53712.000000
24257.000000,12603.000000,16365.000000,53687.000000
24139.000000,12832.000000,16178.000000,53698.000000
24226.000000,12917.000000,15977.000000,53900.000000
24129.000000,12848.000000,16172.000000,53670.000000
24242.000000,12719.000000,16215.000000,53798.000000
24144.000000,12837.000000,16126.000000,53712.000000
24253.000000,12629.000000,16348.000000,53582.000000
24086.000000,12842.000000,16138.000000,53664.000000
23985.000000,12756.000000,16257.000000,53571.000000
24120.000000,12850.000000,16145.000000,53697.000000
24247.000000,12744.000000,16153.000000,53785.000000
24057.000000,12808.000000,16091.000000,53697.000000
24072.000000,12697.000000,16210.000000,53627.000000
24077.000000,12772.000000,16127.000000,53689.000000
23995.000000,12805.000000,16193.000000,53520.000000
24029.000000,12786.000000,16057.000000,53650.000000
23993.000000,12719.000000,16152.000000,53620.000000
24074.000000,12771.000000,16073.000000,53669.000000
24104.000000,12674.000000,16199.000000,53608.000000
24092.000000,12689.000000,16034.000000,53656.000000
23951.000000,12714.000000,16105.000000,53561.000000
23935.000000,12746.000000,16055.000000,53617.000000
23981.000000,12755.000000,16040.000000,53597.000000
23978.000000,12784.000000,16013.000000,53592.000000
23996.000000,12673.000000,15985.000000,53591.000000
23927.000000,12729.000000,16062.000000,53541.000000
23990.000000,12704.000000,16049.000000,53553.000000
23867.000000,12800.000000,15956.000000,53604.000000
23933.000000,12711.000000,16027.000000,53542.000000
24028.000000,12724.000000,15869.000000,53718.000000
23895.000000,12723.000000,15939.000000,53590.000000
23748.000000,12746.000000,16010.000000,53515.000000
23882.000000,12755.000000,15927.000000,53568.000000
23706.000000,12876.000000,15880.000000,53497.000000
23925.000000,12699.000000,15924.000000,53572.000000
23896.000000,12828.000000,15692.000000,53646.000000
23860.000000,12671.000000,15915.000000,53581.000000
23949.000000,12668.000000,15831.000000,53646.000000
23871.000000,12664.000000,15920.000000,53561.000000
23597.000000,12786.000000,15934.000000,53369.000000
23830.000000,12633.000000,15901.000000,53550.000000
23946.000000,12636.000000,15744.000000,53720.000000
23840.000000,12637.000000,15847.000000,53503.000000
24003.000000,12476.000000,15829.000000,53690.000000
23780.000000,12635.000000,15825.000000,53514.000000
23759.000000,12702.000000,15753.000000,53524.000000
23805.000000,12592.000000,15831.000000,53500.000000
23811.000000,12734.000000,15594.000000,53681.000000
23762.000000,12588.000000,15783.000000,53499.000000
23877.000000,12556.000000,15740.000000,53620.000000
23746.000000,12566.000000,15767.000000,53486.000000
23815.000000,12472.000000,15728.000000,53622.000000
23742.000000,12597.000000,15778.000000,53493.000000
23683.000000,12612.000000,15710.000000,53391.000000
23752.000000,12555.000000,15719.000000,53492.000000
23569.000000,12641.000000,15664.000000,53397.000000
23697.000000,12577.000000,15688.000000,53462.000000
23574.000000,12617.000000,15575.000000,53523.000000
23674.000000,12559.000000,15658.000000,53403.000000
23657.000000,12532.000000,15656.000000,53415.000000
23727.000000,12537.000000,15686.000000,53403.000000
23719.000000,12460.000000,15777.000000,53312.000000
23583.000000,12487.000000,15714.000000,53408.000000
23522.000000,12525.000000,15692.000000,53408.000000
23558.000000,12573.000000,15631.000000,53397.000000
23594.000000,12510.000000,15588.000000,53405.000000
23558.000000,12533.000000,15569.000000,53431.000000
23603.000000,12441.000000,15565.000000,53447.000000
23583.000000,12391.000000,15726.000000,53335.000000
23557.000000,12451.000000,15625.000000,53342.000000
23524.000000,12550.000000,15511.000000,53345.000000
23592.000000,12448.000000,15579.000000,53284.000000
23511.000000,12610.000000,15441.000000,53335.000000
23535.000000,12421.000000,15545.000000,53337.000000
23417.000000,12392.000000,15624.000000,53292.000000
23526.000000,12404.000000,15527.000000,53361.000000
23397.000000,12428.000000,15651.000000,53163.000000
23520.000000,12369.000000,15493.000000,53291.000000
23328.000000,12595.000000,15340.000000,53394.000000
23467.000000,12414.000000,15496.000000,53338.000000
23434.000000,12620.000000,15248.000000,53414.000000
23491.000000,12362.000000,15451.000000,53343.000000
23397.000000,12271.000000,15656.000000,53085.000000
23483.000000,12325.000000,15439.000000,53295.000000
23430.000000,12283.000000,15650.000000,53110.000000
23471.000000,12376.000000,15432.000000,53298.000000
23298.000000,12499.000000,15388.000000,53175.000000
23456.000000,12358.000000,15427.000000,53247.000000
23314.000000,12468.000000,15401.000000,53105.000000
23414.000000,12357.000000,15391.000000,53266.000000
23473.000000,12146.000000,15478.000000,53253.000000
23382.000000,12298.000000,15388.000000,53233.000000
23570.000000,12163.000000,15457.000000,53279.000000
23379.000000,12315.000000,15369.000000,53245.000000
23390.000000,12207.000000,15516.000000,53077.000000
23344.000000,12270.000000,15369.000000,53245.000000
23352.000000,12198.000000,15399.000000,53183.000000
23331.000000,12283.000000,15331.000000,53192.000000
23291.000000,12288.000000,15272.000000,53292.000000
23288.000000,12250.000000,15283.000000,53227.000000
23296.000000,12357.000000,15194.000000,53298.000000
23283.000000,12336.000000,15300.000000,53167.000000
23339.000000,12235.000000,15240.000000,53213.000000
23312.000000,12257.000000,15221.000000,53179.000000
23304.000000,12242.000000,15201.000000,53182.000000
23289.000000,12193.000000,15277.000000,53204.000000
23235.000000,12194.000000,15271.000000,53193.000000
23252.000000,12216.000000,15205.000000,53161.000000
23224.000000,12198.000000,15251.000000,53058.000000
23215.000000,12273.000000,15084.000000,53173.000000
23212.000000,12110.000000,15251.000000,53103.000000
23255.000000,12237.000000,15110.000000,53257.000000
23230.000000,12135.000000,15105.000000,53133.000000
23334.000000,12068.000000,15121.000000,53252.000000
23203.000000,12093.000000,15135.000000,53103.000000
23227.000000,12112.000000,15105.000000,53168.000000
23159.000000,12139.000000,15177.000000,53091.000000
23025.000000,12206.000000,15091.000000,53050.000000
23141.000000,12132.000000,15133.000000,53081.000000
22968.000000,12293.000000,14918.000000,53136.000000
23076.000000,12115.000000,15040.000000,53061.000000
23073.000000,12153.000000,14863.000000,53221.000000
23081.000000,12067.000000,14986.000000,53103.000000
23184.000000,12070.000000,14868.000000,53276.000000
23050.000000,12047.000000,15022.000000,53019.000000
23001.000000,12136.000000,14848.000000,53129.000000
23039.000000,12000.000000,14995.000000,53043.000000
23002.000000,12066.000000,15058.000000,52999.000000
23031.000000,12061.000000,15004.000000,53028.000000
22920.000000,12080.000000,15064.000000,52986.000000
23075.000000,12062.000000,15032.000000,53009.000000
22991.000000,12199.000000,14907.000000,53114.000000
23044.000000,12091.000000,15055.000000,53075.000000
23096.000000,12147.000000,14955.000000,53197.000000
23109.000000,12083.000000,15087.000000,53081.000000
23169.000000,12120.000000,15089.000000,53233.000000
23141.000000,12131.000000,15155.000000,53128.000000
23227.000000,12133.000000,15184.000000,53225.000000
23196.000000,12191.000000,15219.000000,53122.000000
23255.000000,12221.000000,15123.000000,53277.000000
23235.000000,12189.000000,15243.000000,53179.000000
23270.000000,12178.000000,15320.000000,53128.000000
23258.000000,12223.000000,15351.000000,53209.000000
23280.000000,12322.000000,15327.000000,53287.000000
23344.000000,12268.000000,15400.000000,53263.000000
23339.000000,12391.000000,15352.000000,53299.000000
23474.000000,12377.000000,15384.000000,53288.000000
23402.000000,12412.000000,15394.000000,53376.000000
23509.000000,12394.000000,15495.000000,53361.000000
23462.000000,12429.000000,15589.000000,53362.000000
23634.000000,12379.000000,15665.000000,53418.000000
23620.000000,12419.000000,15661.000000,53451.000000
23635.000000,12437.000000,15752.000000,53477.000000
23685.000000,12563.000000,15706.000000,53510.000000
23748.000000,12473.000000,15883.000000,53510.000000
23795.000000,12651.000000,15845.000000,53534.000000
23823.000000,12672.000000,15858.000000,53550.000000
23919.000000,12691.000000,15974.000000,53612.000000
23913.000000,12721.000000,16022.000000,53552.000000
24011.000000,12748.000000,16088.000000,53661.000000
23996.000000,12760.000000,16157.000000,53656.000000
24092.000000,12821.000000,16113.000000,53716.000000
24082.000000,12744.000000,16273.000000,53673.000000
24116.000000,12879.000000,16221.000000,53787.000000
24066.000000,12928.000000,16142.000000,53783.000000
24190.000000,12924.000000,16304.000000,53761.000000
24224.000000,13007.000000,16197.000000,53819.000000
24248.000000,12937.000000,16294.000000,53836.000000
24173.000000,13044.000000,16222.000000,53898.000000
24298.000000,12950.000000,16339.000000,53855.000000
24367.000000,12923.000000,16322.000000,53935.000000
24253.000000,12948.000000,16362.000000,53839.000000
24313.000000,12968.000000,16271.000000,53946.000000
24251.000000,12958.000000,16354.000000,53837.000000
24266.000000,12985.000000,16329.000000,53935.000000
24251.000000,12945.000000,16376.000000,53820.000000
24275.000000,12923.000000,16420.000000,53819.000000
24278.000000,12955.000000,16313.000000,53795.000000
24359.000000,12921.000000,16279.000000,53907.000000
24224.000000,12939.000000,16315.000000,53841.000000
24240.000000,12988.000000,16278.000000,53763.000000
24238.000000,12903.000000,16288.000000,53814.000000
24173.000000,12931.000000,16288.000000,53812.000000
24194.000000,12907.000000,16271.000000,53765.000000
24183.000000,12918.000000,16251.000000,53821.000000
24224.000000,12941.000000,16247.000000,53753.000000
24195.000000,12939.000000,16254.000000,53795.000000
24182.000000,12896.000000,16233.000000,53759.000000
24149.000000,12905.000000,16182.000000,53786.000000
24180.000000,12909.000000,16182.000000,53786.000000
24183.000000,12855.000000,16214.000000,53790.000000
24203.000000,12832.000000,16254.000000,53741.000000
24138.000000,12895.000000,16130.000000,53834.000000
24225.000000,12845.000000,16153.000000,53826.000000
24155.000000,12861.000000,16143.000000,53733.000000
24127.000000,12851.000000,16150.000000,53740.000000
24130.000000,12791.000000,16259.000000,53698.000000
24085.000000,12841.000000,16236.000000,53695.000000
24124.000000,12783.000000,16165.000000,53767.000000
24018.000000,12817.000000,16207.000000,53714.000000
24071.000000,12805.000000,16141.000000,53731.000000
24028.000000,12886.000000,16056.000000,53787.000000
24116.000000,12779.000000,16105.000000,53728.000000
24139.000000,12717.000000,16066.000000,53770.000000
24120.000000,12788.000000,16084.000000,53693.000000
24105.000000,12810.000000,16010.000000,53775.000000
24045.000000,12785.000000,16065.000000,53688.000000
24007.000000,12729.000000,16148.000000,53630.000000
24049.000000,12799.000000,16051.000000,53703.000000
24067.000000,12710.000000,16106.000000,53684.000000
24020.000000,12740.000000,16064.000000,53667.000000
24051.000000,12707.000000,16033.000000,53628.000000
24033.000000,12735.000000,16001.000000,53647.000000
23972.000000,12819.000000,15989.000000,53643.000000
23997.000000,12729.000000,16026.000000,53680.000000
23959.000000,12723.000000,16045.000000,53589.000000
24023.000000,12683.000000,15976.000000,53657.000000
23998.000000,12787.000000,16009.000000,53662.000000
23978.000000,12738.000000,15993.000000,53643.000000
23991.000000,12739.000000,15925.000000,53693.000000
23947.000000,12736.000000,15972.000000,53634.000000
23895.000000,12740.000000,15924.000000,53634.000000
23886.000000,12683.000000,15971.000000,53601.000000
23900.000000,12656.000000,15906.000000,53622.000000
23942.000000,12678.000000,15905.000000,53599.000000
23976.000000,12624.000000,15950.000000,53610.000000
23918.000000,12644.000000,15924.000000,53606.000000
23894.000000,12647.000000,15887.000000,53647.000000
23933.000000,12627.000000,15888.000000,53592.000000
23867.000000,12672.000000,15850.000000,53554.000000
23848.000000,12708.000000,15882.000000,53540.000000
23845.000000,12659.000000,15887.000000,53489.000000
23842.000000,12665.000000,15883.000000,53533.000000
23904.000000,12617.000000,15864.000000,53610.000000
23845.000000,12621.000000,15882.000000,53596.000000
23828.000000,12632.000000,15807.000000,53630.000000
23890.000000,12622.000000,15751.000000,53574.000000
23817.000000,12604.000000,15803.000000,53543.000000
23831.000000,12609.000000,15764.000000,53550.000000
23769.000000,12590.000000,15773.000000,53539.000000
23798.000000,12593.000000,15736.000000,53580.000000
23823.000000,12585.000000,15796.000000,53504.000000
23831.000000,12535.000000,15820.000000,53496.000000
23794.000000,12569.000000,15803.000000,53490.000000
23854.000000,12518.000000,15768.000000,53548.000000
23776.000000,12553.000000,15739.000000,53514.000000
23759.000000,12505.000000,15766.000000,53445.000000
23703.000000,12535.000000,15727.000000,53519.000000
23661.000000,12602.000000,15724.000000,53436.000000
23733.000000,12536.000000,15689.000000,53462.000000
23628.000000,12502.000000,15763.000000,53427.000000
23694.000000,12537.000000,15656.000000,53462.000000
23699.000000,12563.000000,15586.000000,53492.000000
23685.000000,12494.000000,15645.000000,53440.000000
23572.000000,12550.000000,15552.000000,53448.000000
23631.000000,12489.000000,15621.000000,53412.000000
23599.000000,12502.000000,15537.000000,53457.000000
23591.000000,12439.000000,15570.000000,53426.000000
23610.000000,12429.000000,15527.000000,53431.000000
23628.000000,12503.000000,15560.000000,53362.000000
23720.000000,12411.000000,15531.000000,53454.000000
23580.000000,12416.000000,15555.000000,53409.000000
23602.000000,12454.000000,15498.000000,53403.000000
23535.000000,12432.000000,15509.000000,53395.000000
23605.000000,12360.000000,15563.000000,53315.000000
23608.000000,12357.000000,15466.000000,53373.000000
23524.000000,12405.000000,15465.000000,53429.000000
23593.000000,12385.000000,15451.000000,53351.000000
23553.000000,12382.000000,15477.000000,53363.000000
23548.000000,12343.000000,15477.000000,53362.000000
23523.000000,12297.000000,15542.000000,53325.000000
23449.000000,12332.000000,15513.000000,53354.000000
23564.000000,12336.000000,15533.000000,53308.000000
23465.000000,12321.000000,15460.000000,53345.000000
23482.000000,12342.000000,15374.000000,53339.000000
23447.000000,12352.000000,15451.000000,53297.000000
23423.000000,12402.000000,15479.000000,53261.000000
23464.000000,12416.000000,15379.000000,53291.000000
23433.000000,12354.000000,15428.000000,53304.000000
23410.000000,12454.000000,15357.000000,53238.000000
23448.000000,12275.000000,15427.000000,53244.000000
23369.000000,12321.000000,15281.000000,53373.000000
23451.000000,12300.000000,15381.000000,53282.000000
23438.000000,12334.000000,15212.000000,53367.000000
23375.000000,12328.000000,15362.000000,53269.000000
23343.000000,12415.000000,15235.000000,53343.000000
23386.000000,12288.000000,15327.000000,53235.000000
23467.000000,12197.000000,15301.000000,53324.000000
23341.000000,12258.000000,15331.000000,53294.000000
23370.000000,12141.000000,15293.000000,53335.000000
23316.000000,12232.000000,15267.000000,53194.000000
23377.000000,12207.000000,15262.000000,53262.000000
23262.000000,12218.000000,15224.000000,53260.000000
23299.000000,12135.000000,15315.000000,53154.000000
23268.000000,12219.000000,15167.000000,53178.000000
23163.000000,12137.000000,15303.000000,53116.000000
23215.000000,12176.000000,15162.000000,53163.000000
23148.000000,12085.000000,15205.000000,53095.000000
23132.000000,12124.000000,15156.000000,53143.000000
23107.000000,12201.000000,15047.000000,53126.000000
23137.000000,12089.000000,15131.000000,53101.000000
23062.000000,12111.000000,15151.000000,53043.000000
23165.000000,12097.000000,15080.000000,53125.000000
23137.000000,12135.000000,15065.000000,53104.000000
23087.000000,12078.000000,15087.000000,53084.000000
23088.000000,12162.000000,14980.000000,53116.000000
23080.000000,12116.000000,15047.000000,53114.000000
23117.000000,12172.000000,15049.000000,53147.000000
23113.000000,12103.000000,15093.000000,53128.000000
23102.000000,12169.000000,15112.000000,53145.000000
23211.000000,12078.000000,15121.000000,53190.000000
23272.000000,12080.000000,15184.000000,53114.000000
23133.000000,12138.000000,15215.000000,53183.000000
23251.000000,12098.000000,15208.000000,53226.000000
23280.000000,12085.000000,15287.000000,53187.000000
23248.000000,12159.000000,15267.000000,53180.000000
23210.000000,12269.000000,15208.000000,53190.000000
23273.000000,12154.000000,15335.000000,53180.000000
23254.000000,12352.000000,15281.000000,53200.000000
23346.000000,12269.000000,15365.000000,53228.000000
23387.000000,12251.000000,15348.000000,53335.000000
23377.000000,12353.000000,15390.000000,53315.000000
23572.000000,12238.000000,15460.000000,53394.000000
23466.000000,12369.000000,15498.000000,53368.000000
23584.000000,12274.000000,15522.000000,53385.000000
23531.000000,12397.000000,15542.000000,53369.000000
23618.000000,12333.000000,15700.000000,53356.000000
23578.000000,12477.000000,15648.000000,53476.000000
23535.000000,12460.000000,15775.000000,53362.000000
23666.000000,12544.000000,15731.000000,53462.000000
23658.000000,12612.000000,15834.000000,53409.000000
23752.000000,12593.000000,15811.000000,53548.000000
23746.000000,12684.000000,15794.000000,53618.000000
23870.000000,12653.000000,15913.000000,53615.000000
23923.000000,12752.000000,15845.000000,53716.000000
23961.000000,12698.000000,16000.000000,53682.000000
23880.000000,12793.000000,16001.000000,53743.000000
24026.000000,12789.000000,16118.000000,53685.000000
24170.000000,12749.000000,16234.000000,53762.000000
24085.000000,12818.000000,16201.000000,53767.000000
24188.000000,12815.000000,16220.000000,53844.000000
24201.000000,12899.000000,16293.000000,53852.000000
24260.000000,12856.000000,16362.000000,53802.000000
24269.000000,12971.000000,16372.000000,53901.000000
24265.000000,12929.000000,16432.000000,53821.000000
24364.000000,12993.000000,16390.000000,53886.000000
24339.000000,13034.000000,16437.000000,53840.000000
24282.000000,12989.000000,16394.000000,53913.000000
24355.000000,13020.000000,16456.000000,53907.000000
24333.000000,13025.000000,16460.000000,53941.000000
24337.000000,13114.000000,16447.000000,53909.000000
24346.000000,13090.000000,16417.000000,53906.000000
24331.000000,13029.000000,16434.000000,53885.000000
24332.000000,13106.000000,16460.000000,53896.000000
24323.000000,13013.000000,16463.000000,53952.000000
24386.000000,12944.000000,16450.000000,53981.000000
24310.000000,13012.000000,16370.000000,53974.000000
24443.000000,12969.000000,16388.000000,53972.000000
24347.000000,13069.000000,16388.000000,53927.000000
24375.000000,12981.000000,16423.000000,53945.000000
24312.000000,12959.000000,16406.000000,53904.000000
24297.000000,12958.000000,16516.000000,53818.000000
24320.000000,12993.000000,16417.000000,53928.000000
24253.000000,12975.000000,16438.000000,53844.000000
24273.000000,12972.000000,16384.000000,53885.000000
24191.000000,13032.000000,16367.000000,53843.000000
24278.000000,12944.000000,16353.000000,53860.000000
24220.000000,13038.000000,16263.000000,53863.000000
24241.000000,12938.000000,16351.000000,53861.000000
24278.000000,13002.000000,16222.000000,53941.000000
24204.000000,12927.000000,16339.000000,53863.000000
24291.000000,12910.000000,16316.000000,53896.000000
24251.000000,12903.000000,16292.000000,53868.000000
24271.000000,12822.000000,16380.000000,53829.000000
24226.000000,12906.000000,16295.000000,53840.000000
24270.000000,12845.000000,16285.000000,53859.000000
24205.000000,12893.000000,16321.000000,53816.000000
24220.000000,12874.000000,16393.000000,53760.000000
24162.000000,12881.000000,16286.000000,53833.000000
24150.000000,12833.000000,16384.000000,53735.000000
24186.000000,12890.000000,16266.000000,53809.000000
24159.000000,12811.000000,16321.000000,53751.000000
24162.000000,12896.000000,16202.000000,53786.000000
24144.000000,12885.000000,16254.000000,53764.000000
24135.000000,12825.000000,16226.000000,53782.000000
24068.000000,12957.000000,16148.000000,53765.000000
24073.000000,12827.000000,16225.000000,53755.000000
24076.000000,12892.000000,16181.000000,53764.000000
24056.000000,12846.000000,16206.000000,53783.000000
24123.000000,12842.000000,16183.000000,53834.000000
24136.000000,12789.000000,16137.000000,53804.000000
24077.000000,12871.000000,16151.000000,53843.000000
24125.000000,12833.000000,16115.000000,53783.000000
24076.000000,12848.000000,16114.000000,53817.000000
24095.000000,12770.000000,16171.000000,53758.000000
24052.000000,12808.000000,16155.000000,53758.000000
24084.000000,12755.000000,16194.000000,53745.000000
24141.000000,12761.000000,16134.000000,53733.000000
24010.000000,12759.000000,16169.000000,53711.000000
23982.000000,12820.000000,16053.000000,53738.000000
24000.000000,12774.000000,16140.000000,53657.000000
23986.000000,12848.000000,16124.000000,53680.000000
23941.000000,12823.000000,16074.000000,53658.000000
23994.000000,12732.000000,16084.000000,53689.000000
23873.000000,12838.000000,16062.000000,53618.000000
23992.000000,12698.000000,16054.000000,53669.000000
23955.000000,12748.000000,15990.000000,53791.000000
23987.000000,12697.000000,16022.000000,53628.000000
24009.000000,12776.000000,15893.000000,53773.000000
23937.000000,12696.000000,16008.000000,53689.000000
24035.000000,12676.000000,16009.000000,53737.000000
23947.000000,12709.000000,16046.000000,53613.000000
24031.000000,12610.000000,16101.000000,53624.000000
23915.000000,12687.000000,16010.000000,53661.000000
23913.000000,12588.000000,16073.000000,53583.000000
23921.000000,12704.000000,15965.000000,53618.000000
23922.000000,12586.000000,16049.000000,53571.000000
23884.000000,12676.000000,15925.000000,53614.000000
23788.000000,12704.000000,15906.000000,53542.000000
23850.000000,12688.000000,15905.000000,53607.000000
23763.000000,12737.000000,15903.000000,53547.000000
23840.000000,12665.000000,15940.000000,53583.000000
23771.000000,12725.000000,15868.000000,53612.000000
23802.000000,12617.000000,15908.000000,53588.000000
23787.000000,12679.000000,15778.000000,53632.000000
23780.000000,12619.000000,15880.000000,53556.000000
23706.000000,12650.000000,15811.000000,53556.000000
23740.000000,12590.000000,15827.000000,53573.000000
23744.000000,12590.000000,15821.000000,53565.000000
23728.000000,12566.000000,15815.000000,53540.000000
23740.000000,12525.000000,15812.000000,53606.000000
23798.000000,12563.000000,15751.000000,53541.000000
23762.000000,12525.000000,15830.000000,53506.000000
23676.000000,12516.000000,15800.000000,53537.000000
23732.000000,12539.000000,15786.000000,53474.000000
23636.000000,12547.000000,15812.000000,53455.000000
23633.000000,12523.000000,15790.000000,53417.000000
23605.000000,12542.000000,15734.000000,53455.000000
23636.000000,12464.000000,15766.000000,53406.000000
23552.000000,12535.000000,15686.000000,53456.000000
23616.000000,12496.000000,15745.000000,53470.000000
23655.000000,12457.000000,15608.000000,53558.000000
23534.000000,12455.000000,15675.000000,53452.000000
23621.000000,12493.000000,15576.000000,53491.000000
23594.000000,12468.000000,15658.000000,53510.000000
23641.000000,12430.000000,15716.000000,53440.000000
23550.000000,12455.000000,15641.000000,53475.000000
23666.000000,12371.000000,15732.000000,53472.000000
23543.000000,12459.000000,15604.000000,53433.000000
23562.000000,12338.000000,15690.000000,53419.000000
23516.000000,12432.000000,15619.000000,53419.000000
23507.000000,12422.000000,15602.000000,53330.000000
23496.000000,12424.000000,15567.000000,53431.000000
23428.000000,12480.000000,15587.000000,53280.000000
23533.000000,12432.000000,15561.000000,53381.000000
23395.000000,12486.000000,15570.000000,53319.000000
23484.000000,12365.000000,15528.000000,53353.000000
23404.000000,12438.000000,15454.000000,53404.000000
23436.000000,12365.000000,15523.000000,53429.000000
23522.000000,12348.000000,15420.000000,53520.000000
23402.000000,12332.000000,15498.000000,53332.000000
23397.000000,12384.000000,15399.000000,53438.000000
23427.000000,12341.000000,15469.000000,53343.000000
23491.000000,12300.000000,15563.000000,53318.000000
23384.000000,12318.000000,15446.000000,53322.000000
23390.000000,12278.000000,15459.000000,53359.000000
23385.000000,12333.000000,15411.000000,53314.000000
23408.000000,12256.000000,15471.000000,53269.000000
23339.000000,12282.000000,15366.000000,53294.000000
23360.000000,12219.000000,15448.000000,53206.000000
23379.000000,12227.000000,15344.000000,53273.000000
23330.000000,12229.000000,15393.000000,53245.000000
23249.000000,12198.000000,15353.000000,53225.000000
23219.000000,12202.000000,15295.000000,53205.000000
23194.000000,12218.000000,15314.000000,53196.000000
23223.000000,12263.000000,15253.000000,53166.000000
23186.000000,12243.000000,15250.000000,53206.000000
23182.000000,12135.000000,15234.000000,53174.000000
23108.000000,12222.000000,15189.000000,53211.000000
23122.000000,12195.000000,15178.000000,53249.000000
23220.000000,12114.000000,15254.000000,53221.000000
23109.000000,12129.000000,15160.000000,53250.000000
23282.000000,12141.000000,15164.000000,53279.000000
23155.000000,12156.000000,15144.000000,53230.000000
23208.000000,12087.000000,15240.000000,53190.000000
23224.000000,12187.000000,15147.000000,53223.000000
23116.000000,12196.000000,15289.000000,53121.000000
23187.000000,12225.000000,15255.000000,53201.000000
23118.000000,12233.000000,15305.000000,53123.000000
23249.000000,12198.000000,15255.000000,53209.000000
23172.000000,12289.000000,15265.000000,53184.000000
23269.000000,12212.000000,15336.000000,53247.000000
23263.000000,12317.000000,15232.000000,53332.000000
23303.000000,12229.000000,15354.000000,53305.000000
23364.000000,12346.000000,15271.000000,53374.000000
23345.000000,12306.000000,15373.000000,53364.000000
23398.000000,12342.000000,15374.000000,53430.000000
23413.000000,12361.000000,15458.000000,53380.000000
23532.000000,12275.000000,15551.000000,53389.000000
23495.000000,12375.000000,15505.000000,53350.000000
23576.000000,12330.000000,15573.000000,53481.000000
23549.000000,12436.000000,15631.000000,53419.000000
23561.000000,12445.000000,15736.000000,53367.000000
23568.000000,12471.000000,15641.000000,53490.000000
23617.000000,12447.000000,15799.000000,53392.000000
23691.000000,12541.000000,15777.000000,53511.000000
23677.000000,12584.000000,15797.000000,53511.000000
23768.000000,12600.000000,15851.000000,53623.000000
23724.000000,12656.000000,15877.000000,53668.000000
23820.000000,12662.000000,15959.000000,53660.000000
23962.000000,12679.000000,15942.000000,53735.000000
23906.000000,12719.000000,16025.000000,53685.000000
23962.000000,12758.000000,16011.000000,53761.000000
24064.000000,12837.000000,16097.000000,53700.000000
24099.000000,12799.000000,16232.000000,53705.000000
24111.000000,12774.000000,16277.000000,53796.000000
24175.000000,12817.000000,16330.000000,53836.000000
24176.000000,12822.000000,16371.000000,53840.000000
24233.000000,12906.000000,16435.000000,53840.000000
24195.000000,12998.000000,16360.000000,53869.000000
24246.000000,13008.000000,16444.000000,53885.000000
24278.000000,13086.000000,16414.000000,53905.000000
24351.000000,13019.000000,16503.000000,53878.000000
24302.000000,13039.000000,16440.000000,53952.000000
24343.000000,13011.000000,16506.000000,53959.000000
24454.000000,13001.000000,16525.000000,54046.000000
24387.000000,13027.000000,16525.000000,54058.000000
24392.000000,12968.000000,16583.000000,54001.000000
24361.000000,13083.000000,16569.000000,53975.000000
24476.000000,12945.000000,16621.000000,53937.000000
24369.000000,13089.000000,16523.000000,53961.000000
24281.000000,13076.000000,16530.000000,53889.000000
24356.000000,13004.000000,16515.000000,53968.000000
24238.000000,13063.000000,16603.000000,53867.000000
24297.000000,13035.000000,16491.000000,53977.000000
24260.000000,13099.000000,16488.000000,53953.000000
24309.000000,13027.000000,16494.000000,53960.000000
24346.000000,13131.000000,16358.000000,54077.000000
24305.000000,13017.000000,16457.000000,53933.000000
24325.000000,13069.000000,16317.000000,54009.000000
24345.000000,13012.000000,16469.000000,53936.000000
24368.000000,12972.000000,16435.000000,53972.000000
24287.000000,13027.000000,16449.000000,53919.000000
24334.000000,12938.000000,16503.000000,53912.000000
24259.000000,13046.000000,16422.000000,53933.000000
24327.000000,12908.000000,16512.000000,53894.000000
24257.000000,12939.000000,16432.000000,53926.000000
24305.000000,12900.000000,16470.000000,53829.000000
24242.000000,12989.000000,16396.000000,53886.000000
24175.000000,13015.000000,16457.000000,53840.000000
24249.000000,12945.000000,16399.000000,53906.000000
24225.000000,12949.000000,16464.000000,53863.000000
24285.000000,12950.000000,16352.000000,53908.000000
24272.000000,12983.000000,16313.000000,53975.000000
24246.000000,12972.000000,16324.000000,53870.000000
24210.000000,12980.000000,16278.000000,53914.000000
24232.000000,13000.000000,16327.000000,53864.000000
24249.000000,12941.000000,16335.000000,53880.000000
24222.000000,12922.000000,16361.000000,53843.000000
24183.000000,12899.000000,16408.000000,53853.000000
24187.000000,12872.000000,16414.000000,53830.000000
24216.000000,12878.000000,16375.000000,53854.000000
24143.000000,12869.000000,16393.000000,53885.000000
24184.000000,12879.000000,16345.000000,53883.000000
24107.000000,12914.000000,16330.000000,53787.000000
24198.000000,12925.000000,16355.000000,53779.000000
24151.000000,12929.000000,16229.000000,53857.000000
24116.000000,12849.000000,16304.000000,53801.000000
24094.000000,12937.000000,16206.000000,53802.000000
24133.000000,12873.000000,16209.000000,53809.000000
24152.000000,12813.000000,16277.000000,53841.000000
24116.000000,12861.000000,16247.000000,53774.000000
24245.000000,12793.000000,16214.000000,53896.000000
24089.000000,12814.000000,16229.000000,53800.000000
24109.000000,12721.000000,16352.000000,53724.000000
24062.000000,12846.000000,16211.000000,53808.000000
24016.000000,12909.000000,16187.000000,53692.000000
24020.000000,12825.000000,16232.000000,53783.000000
23905.000000,12877.000000,16263.000000,53700.000000
24049.000000,12804.000000,16227.000000,53792.000000
23962.000000,12905.000000,16169.000000,53714.000000
24042.000000,12818.000000,16141.000000,53753.000000
23982.000000,12860.000000,16083.000000,53787.000000
24032.000000,12797.000000,16188.000000,53742.000000
23956.000000,12920.000000,16113.000000,53705.000000
24024.000000,12795.000000,16147.000000,53765.000000
23923.000000,12836.000000,16095.000000,53761.000000
23988.000000,12777.000000,16135.000000,53728.000000
23945.000000,12867.000000,15992.000000,53764.000000
23961.000000,12788.000000,16091.000000,53724.000000
23895.000000,12773.000000,16109.000000,53645.000000
23973.000000,12764.000000,16105.000000,53717.000000
23891.000000,12829.000000,16022.000000,53730.000000
23899.000000,12732.000000,16083.000000,53693.000000
23867.000000,12757.000000,16009.000000,53739.000000
23883.000000,12746.000000,16070.000000,53667.000000
23849.000000,12788.000000,16031.000000,53671.000000
23848.000000,12689.000000,16003.000000,53669.000000
23830.000000,12691.000000,15986.000000,53676.000000
23833.000000,12699.000000,15949.000000,53650.000000
23839.000000,12700.000000,15886.000000,53704.000000
23878.000000,12641.000000,15916.000000,53674.000000
23792.000000,12704.000000,15924.000000,53680.000000
23930.000000,12632.000000,15885.000000,53683.000000
23823.000000,12677.000000,15962.000000,53670.000000
23823.000000,12596.000000,15984.000000,53615.000000
23782.000000,12593.000000,15911.000000,53660.000000
23806.000000,12567.000000,16003.000000,53604.000000
23764.000000,12629.000000,15878.000000,53680.000000
23785.000000,12549.000000,15965.000000,53601.000000
23791.000000,12645.000000,15829.000000,53589.000000
23628.000000,12649.000000,15913.000000,53512.000000
23679.000000,12601.000000,15882.000000,53588.000000
23589.000000,12609.000000,15899.000000,53503.000000
23702.000000,12577.000000,15835.000000,53542.000000
23602.000000,12614.000000,15844.000000,53520.000000
23701.000000,12559.000000,15830.000000,53598.000000
23588.000000,12692.000000,15759.000000,53552.000000
23666.000000,12570.000000,15806.000000,53538.000000
23601.000000,12696.000000,15662.000000,53540.000000
23665.000000,12559.000000,15826.000000,53537.000000
23541.000000,12637.000000,15735.000000,53583.000000
23649.000000,12546.000000,15722.000000,53521.000000
23733.000000,12553.000000,15667.000000,53672.000000
23619.000000,12542.000000,15724.000000,53514.000000
23595.000000,12620.000000,15668.000000,53608.000000
23597.000000,12508.000000,15729.000000,53547.000000
23659.000000,12463.000000,15761.000000,53491.000000
23583.000000,12517.000000,15724.000000,53518.000000
23626.000000,12436.000000,15768.000000,53536.000000
23566.000000,12515.000000,15727.000000,53489.000000
23632.000000,12436.000000,15741.000000,53490.000000
23586.000000,12508.000000,15691.000000,53492.000000
23543.000000,12432.000000,15705.000000,53431.000000
23573.000000,12454.000000,15690.000000,53465.000000
23526.000000,12458.000000,15743.000000,53413.000000
23497.000000,12413.000000,15681.000000,53469.000000
23488.000000,12359.000000,15749.000000,53432.000000
23497.000000,12387.000000,15695.000000,53461.000000
23522.000000,12474.000000,15619.000000,53439.000000
23481.000000,12516.000000,15562.000000,53430.000000
23457.000000,12444.000000,15532.000000,53436.000000
23446.000000,12498.000000,15543.000000,53362.000000
23410.000000,12416.000000,15515.000000,53419.000000
23436.000000,12388.000000,15559.000000,53453.000000
23466.000000,12388.000000,15525.000000,53419.000000
23513.000000,12369.000000,15522.000000,53459.000000
23399.000000,12314.000000,15468.000000,53433.000000
23368.000000,12272.000000,15551.000000,53400.000000
23344.000000,12377.000000,15485.000000,53418.000000
23302.000000,12280.000000,15556.000000,53335.000000
23351.000000,12325.000000,15510.000000,53365.000000
23267.000000,12454.000000,15437.000000,53318.000000
23328.000000,12321.000000,15481.000000,53341.000000
23231.000000,12442.000000,15460.000000,53319.000000
23370.000000,12326.000000,15470.000000,53367.000000
23278.000000,12396.000000,15394.000000,53443.000000
23351.000000,12375.000000,15489.000000,53373.000000
23438.000000,12355.000000,15384.000000,53538.000000
23345.000000,12367.000000,15497.000000,53361.000000
23402.000000,12410.000000,15396.000000,53500.000000
23408.000000,12356.000000,15576.000000,53399.000000
23505.000000,12297.000000,15681.000000,53361.000000
23442.000000,12380.000000,15605.000000,53410.000000
23510.000000,12304.000000,15658.000000,53492.000000
23503.000000,12426.000000,15627.000000,53441.000000
23512.000000,12432.000000,15742.000000,53389.000000
23543.000000,12472.000000,15725.000000,53503.000000
23542.000000,12527.000000,15748.000000,53423.000000
23641.000000,12519.000000,15774.000000,53525.000000
23569.000000,12633.000000,15785.000000,53491.000000
23682.000000,12569.000000,15844.000000,53564.000000
23659.000000,12600.000000,15907.000000,53553.000000
23748.000000,12599.000000,15914.000000,53593.000000
23751.000000,12703.000000,15842.000000,53651.000000
23735.000000,12686.000000,15953.000000,53647.000000
23785.000000,12724.000000,15990.000000,53645.000000
23818.000000,12706.000000,16086.000000,53664.000000
23875.000000,12798.000000,16094.000000,53780.000000
23999.000000,12767.000000,16119.000000,53764.000000
24016.000000,12739.000000,16132.000000,53826.000000
24113.000000,12778.000000,16191.000000,53847.000000
24113.000000,12817.000000,16236.000000,53871.000000
24141.000000,12820.000000,16350.000000,53844.000000
24146.000000,12915.000000,16370.000000,53897.000000
24150.000000,12928.000000,16498.000000,53858.000000
24235.000000,12954.000000,16503.000000,53888.000000
24179.000000,13013.000000,16504.000000,53915.000000
24262.000000,13020.000000,16553.000000,53939.000000
24253.000000,13130.000000,16521.000000,53979.000000
24336.000000,13053.000000,16542.000000,53965.000000
24379.000000,13035.000000,16517.000000,54081.000000
24370.000000,13108.000000,16619.000000,53974.000000
24522.000000,13130.000000,16509.000000,54083.000000
24417.000000,13070.000000,16617.000000,54059.000000
24469.000000,13105.000000,16656.000000,54037.000000
24475.000000,13094.000000,16621.000000,54024.000000
24380.000000,13057.000000,16829.000000,53944.000000
24417.000000,13137.000000,16653.000000,54032.000000
24371.000000,13089.000000,16745.000000,53926.000000
24398.000000,13154.000000,16609.000000,54018.000000
24320.000000,13205.000000,16597.000000,53988.000000
24418.000000,13087.000000,16627.000000,54057.000000
24348.000000,13198.000000,16507.000000,54048.000000
24406.000000,13121.000000,16591.000000,54004.000000
24379.000000,13215.000000,16553.000000,54055.000000
24358.000000,13080.000000,16593.000000,54006.000000
24428.000000,13032.000000,16594.000000,54054.000000
24382.000000,13078.000000,16563.000000,54022.000000
24434.000000,12964.000000,16669.000000,54016.000000
24353.000000,13063.000000,16589.000000,53985.000000
24359.000000,12976.000000,16583.000000,53990.000000
24351.000000,13043.000000,16533.000000,54003.000000
24310.000000,13035.000000,16574.000000,53858.000000
24366.000000,13064.000000,16512.000000,53966.000000
24227.000000,13089.000000,16563.000000,53886.000000
24308.000000,12992.000000,16510.000000,53965.000000
24249.000000,13070.000000,16447.000000,54004.000000
24243.000000,13026.000000,16500.000000,53952.000000
24269.000000,13002.000000,16443.000000,53979.000000
24310.000000,13038.000000,16450.000000,53932.000000
24271.000000,13013.000000,16447.000000,54005.000000
24296.000000,13025.000000,16473.000000,53998.000000
24209.000000,12974.000000,16415.000000,53919.000000
24338.000000,12904.000000,16474.000000,53950.000000
24278.000000,12912.000000,16467.000000,53910.000000
24159.000000,12913.000000,16470.000000,53895.000000
24209.000000,12934.000000,16430.000000,53920.000000
24174.000000,12930.000000,16461.000000,53853.000000
24247.000000,12974.000000,16430.000000,53850.000000
24147.000000,12983.000000,16306.000000,53906.000000
24147.000000,12923.000000,16419.000000,53845.000000
24142.000000,13018.000000,16309.000000,53855.000000
24159.000000,12884.000000,16374.000000,53840.000000
24180.000000,12903.000000,16348.000000,53914.000000
24125.000000,12861.000000,16375.000000,53839.000000
24222.000000,12839.000000,16423.000000,53877.000000
24107.000000,12905.000000,16333.000000,53839.000000
24215.000000,12763.000000,16394.000000,53876.000000
24106.000000,12863.000000,16314.000000,53880.000000
24076.000000,12866.000000,16348.000000,53714.000000
24071.000000,12840.000000,16285.000000,53861.000000
23940.000000,12883.000000,16322.000000,53708.000000
24078.000000,12852.000000,16264.000000,53846.000000
23986.000000,12891.000000,16345.000000,53693.000000
24054.000000,12880.000000,16259.000000,53840.000000
24016.000000,12941.000000,16233.000000,53788.000000
24071.000000,12859.000000,16238.000000,53819.000000
24045.000000,12911.000000,16155.000000,53862.000000
24007.000000,12818.000000,16224.000000,53807.000000
23934.000000,12880.000000,16141.000000,53871.000000
24015.000000,12840.000000,16223.000000,53829.000000
24089.000000,12749.000000,16269.000000,53765.000000
24002.000000,12817.000000,16173.000000,53766.000000
24123.000000,12701.000000,16185.000000,53833.000000
23982.000000,12768.000000,16152.000000,53745.000000
24061.000000,12756.000000,16193.000000,53716.000000
23969.000000,12803.000000,16133.000000,53752.000000
23928.000000,12746.000000,16199.000000,53673.000000
23995.000000,12741.000000,16169.000000,53753.000000
23927.000000,12719.000000,16209.000000,53686.000000
23940.000000,12712.000000,16179.000000,53755.000000
23941.000000,12701.000000,16169.000000,53688.000000
23899.000000,12804.000000,16110.000000,53709.000000
23926.000000,12783.000000,16048.000000,53774.000000
23925.000000,12734.000000,16057.000000,53727.000000
23884.000000,12756.000000,16082.000000,53722.000000
23962.000000,12833.000000,16036.000000,53768.000000
23952.000000,12765.000000,16068.000000,53727.000000
23968.000000,12682.000000,16049.000000,53708.000000
23951.000000,12730.000000,16038.000000,53738.000000
23984.000000,12676.000000,16073.000000,53752.000000
23897.000000,12728.000000,16010.000000,53738.000000
23940.000000,12624.000000,16051.000000,53682.000000
23878.000000,12717.000000,16061.000000,53704.000000
23759.000000,12728.000000,16061.000000,53576.000000
23826.000000,12678.000000,16041.000000,53693.000000
23715.000000,12712.000000,16031.000000,53603.000000
23824.000000,12639.000000,15984.000000,53644.000000
23656.000000,12772.000000,15925.000000,53697.000000
23844.000000,12672.000000,16022.000000,53709.000000
23873.000000,12630.000000,15920.000000,53794.000000
23804.000000,12682.000000,15989.000000,53642.000000
23916.000000,12673.000000,15867.000000,53804.000000
23811.000000,12634.000000,15973.000000,53653.000000
23848.000000,12525.000000,16034.000000,53592.000000
23789.000000,12642.000000,15935.000000,53635.000000
23716.000000,12576.000000,16108.000000,53506.000000
23769.000000,12651.000000,15929.000000,53641.000000
23732.000000,12579.000000,16007.000000,53537.000000
23790.000000,12625.000000,15974.000000,53669.000000
23715.000000,12703.000000,15886.000000,53631.000000
23727.000000,12604.000000,15947.000000,53639.000000
23731.000000,12717.000000,15858.000000,53649.000000
23769.000000,12589.000000,15910.000000,53608.000000
23761.000000,12673.000000,15891.000000,53626.000000
23703.000000,12609.000000,15917.000000,53601.000000
23793.000000,12579.000000,15865.000000,53622.000000
23693.000000,12615.000000,15900.000000,53585.000000
23810.000000,12586.000000,15912.000000,53626.000000
23748.000000,12611.000000,15885.000000,53581.000000
23748.000000,12512.000000,15919.000000,53557.000000
23747.000000,12528.000000,15852.000000,53627.000000
23663.000000,12618.000000,15926.000000,53501.000000
23651.000000,12530.000000,15916.000000,53568.000000
23648.000000,12572.000000,15940.000000,53544.000000
23613.000000,12552.000000,15902.000000,53551.000000
23666.000000,12562.000000,15859.000000,53615.000000
23694.000000,12543.000000,15784.000000,53611.000000
23652.000000,12526.000000,15771.000000,53578.000000
23748.000000,12512.000000,15737.000000,53597.000000
23654.000000,12549.000000,15748.000000,53598.000000
23676.000000,12484.000000,15829.000000,53545.000000
23637.000000,12521.000000,15769.000000,53554.000000
23544.000000,12477.000000,15826.000000,53465.000000
23610.000000,12486.000000,15734.000000,53539.000000
23464.000000,12508.000000,15806.000000,53470.000000
23563.000000,12472.000000,15792.000000,53509.000000
23466.000000,12594.000000,15724.000000,53476.000000
23563.000000,12559.000000,15728.000000,53538.000000
23556.000000,12553.000000,15610.000000,53572.000000
23577.000000,12522.000000,15763.000000,53542.000000
23714.000000,12504.000000,15623.000000,53661.000000
23587.000000,12513.000000,15775.000000,53540.000000
23729.000000,12442.000000,15857.000000,53561.000000
23666.000000,12505.000000,15769.000000,53552.000000
23650.000000,12435.000000,15968.000000,53501.000000
23628.000000,12539.000000,15834.000000,53601.000000
23644.000000,12463.000000,15976.000000,53505.000000
23682.000000,12553.000000,15895.000000,53602.000000
23666.000000,12648.000000,15886.000000,53547.000000
23717.000000,12615.000000,15891.000000,53616.000000
23647.000000,12712.000000,15863.000000,53600.000000
23786.000000,12620.000000,15962.000000,53643.000000
23728.000000,12707.000000,15949.000000,53680.000000
23822.000000,12639.000000,15987.000000,53685.000000
23851.000000,12685.000000,16029.000000,53773.000000
23924.000000,12716.000000,16099.000000,53681.000000
24022.000000,12648.000000,16162.000000,53788.000000
23970.000000,12786.000000,16211.000000,53795.000000
24086.000000,12760.000000,16312.000000,53813.000000
24059.000000,12837.000000,16244.000000,53833.000000
24098.000000,12862.000000,16391.000000,53772.000000
24075.000000,12842.000000,16386.000000,53881.000000
24100.000000,12887.000000,16444.000000,53876.000000
24184.000000,12902.000000,16504.000000,53949.000000
24288.000000,13018.000000,16483.000000,53878.000000
24249.000000,13017.000000,16484.000000,53972.000000
