660nm,730nm,850nm,940nm
30448.000000,17543.000000,25196.000000,60055.000000
30420.000000,17544.000000,25165.000000,60026.000000
30451.000000,17558.000000,25220.000000,60034.000000
30389.000000,17546.000000,25184.000000,60046.000000
30412.000000,17542.000000,25175.000000,59996.000000
30422.000000,17552.000000,25176.000000,60018.000000
30413.000000,17545.000000,25168.000000,60040.000000
30380.000000,17543.000000,25162.000000,60028.000000
30401.000000,17521.000000,25136.000000,60025.000000
30423.000000,17539.000000,25132.000000,59973.000000
30389.000000,17513.000000,25114.000000,59987.000000
30362.000000,17499.000000,25126.000000,59971.000000
30393.000000,17545.000000,25098.000000,59993.000000
30380.000000,17490.000000,25093.000000,59978.000000
30373.000000,17525.000000,25114.000000,59943.000000
30365.000000,17496.000000,25130.000000,59983.000000
30352.000000,17471.000000,25109.000000,60007.000000
30321.000000,17491.000000,25035.000000,60000.000000
30321.000000,17510.000000,25094.000000,59954.000000
30363.000000,17477.000000,25082.000000,59942.000000
30318.000000,17517.000000,25028.000000,59964.000000
30315.000000,17486.000000,25050.000000,59925.000000
30348.000000,17445.000000,25037.000000,59956.000000
30324.000000,17428.000000,25032.000000,59947.000000
30330.000000,17472.000000,25019.000000,59957.000000
30335.000000,17466.000000,25029.000000,59917.000000
30289.000000,17451.000000,25027.000000,59931.000000
30301.000000,17454.000000,24995.000000,59932.000000
30321.000000,17423.000000,25007.000000,59896.000000
30300.000000,17411.000000,24980.000000,59896.000000
30269.000000,17439.000000,25001.000000,59880.000000
30298.000000,17439.000000,24982.000000,59899.000000
30305.000000,17473.000000,24973.000000,59949.000000
30267.000000,17434.000000,24949.000000,59915.000000
30292.000000,17491.000000,24989.000000,59923.000000
30282.000000,17431.000000,24951.000000,59891.000000
30260.000000,17411.000000,24990.000000,59888.000000
30263.000000,17417.000000,24985.000000,59903.000000
30248.000000,17386.000000,24959.000000,59892.000000
30268.000000,17409.000000,24911.000000,59897.000000
30240.000000,17407.000000,24937.000000,59886.000000
30262.000000,17408.000000,24914.000000,59861.000000
30260.000000,17413.000000,24933.000000,59914.000000
30242.000000,17382.000000,24912.000000,59865.000000
30260.000000,17414.000000,24933.000000,59885.000000
30244.000000,17398.000000,24929.000000,59878.000000
30265.000000,17391.000000,24912.000000,59915.000000
30252.000000,17386.000000,24900.000000,59884.000000
30217.000000,17401.000000,24927.000000,59886.000000
30219.000000,17405.000000,24875.000000,59861.000000
30246.000000,17380.000000,24879.000000,59862.000000
30256.000000,17391.000000,24887.000000,59835.000000
30204.000000,17401.000000,24861.000000,59848.000000
30199.000000,17373.000000,24873.000000,59853.000000
30194.000000,17384.000000,24874.000000,59853.000000
30195.000000,17363.000000,24852.000000,59821.000000
30184.000000,17374.000000,24857.000000,59839.000000
30194.000000,17387.000000,24877.000000,59833.000000
30174.000000,17363.000000,24829.000000,59860.000000
30171.000000,17324.000000,24857.000000,59854.000000
30157.000000,17334.000000,24848.000000,59821.000000
30189.000000,17344.000000,24875.000000,59860.000000
30194.000000,17389.000000,24852.000000,59825.000000
30203.000000,17354.000000,24878.000000,59846.000000
30171.000000,17401.000000,24877.000000,59861.000000
30226.000000,17396.000000,24886.000000,59824.000000
30206.000000,17384.000000,24866.000000,59903.000000
30208.000000,17377.000000,24859.000000,59886.000000
30196.000000,17368.000000,24919.000000,59861.000000
30189.000000,17384.000000,24903.000000,59869.000000
30208.000000,17386.000000,24874.000000,59893.000000
30261.000000,17375.000000,24914.000000,59866.000000
30255.000000,17385.000000,24908.000000,59897.000000
30279.000000,17410.000000,24939.000000,59885.000000
30224.000000,17379.000000,24951.000000,59911.000000
30285.000000,17413.000000,24956.000000,59887.000000
30293.000000,17433.000000,24971.000000,59908.000000
30294.000000,17451.000000,25009.000000,59889.000000
30266.000000,17405.000000,24980.000000,59933.000000
30273.000000,17445.000000,25033.000000,59938.000000
30299.000000,17481.000000,25053.000000,59965.000000
30328.000000,17455.000000,25082.000000,59957.000000
30320.000000,17493.000000,25096.000000,60019.000000
30332.000000,17526.000000,25081.000000,60017.000000
30350.000000,17493.000000,25121.000000,60024.000000
30378.000000,17501.000000,25159.000000,60009.000000
30393.000000,17561.000000,25169.000000,60029.000000
30424.000000,17515.000000,25195.000000,60051.000000
30422.000000,17562.000000,25231.000000,60051.000000
30418.000000,17574.000000,25254.000000,60065.000000
30438.000000,17598.000000,25253.000000,60078.000000
30489.000000,17634.000000,25278.000000,60099.000000
30485.000000,17627.000000,25343.000000,60108.000000
30559.000000,17633.000000,25293.000000,60115.000000
30545.000000,17678.000000,25338.000000,60147.000000
30554.000000,17708.000000,25377.000000,60157.000000
30609.000000,17693.000000,25406.000000,60155.000000
30594.000000,17667.000000,25410.000000,60164.000000
30625.000000,17669.000000,25474.000000,60146.000000
30593.000000,17718.000000,25432.000000,60180.000000
30581.000000,17703.000000,25425.000000,60197.000000
30592.000000,17716.000000,25463.000000,60179.000000
30608.000000,17677.000000,25439.000000,60178.000000
30601.000000,17689.000000,25429.000000,60176.000000
30581.000000,17683.000000,25435.000000,60166.000000
30575.000000,17679.000000,25397.000000,60180.000000
30615.000000,17690.000000,25409.000000,60156.000000
30586.000000,17719.000000,25387.000000,60132.000000
30577.000000,17682.000000,25388.000000,60171.000000
30562.000000,17697.000000,25398.000000,60194.000000
30581.000000,17663.000000,25388.000000,60136.000000
30593.000000,17691.000000,25370.000000,60147.000000
30580.000000,17658.000000,25379.000000,60151.000000
30562.000000,17655.000000,25352.000000,60123.000000
30566.000000,17670.000000,25343.000000,60151.000000
30575.000000,17641.000000,25346.000000,60119.000000
30586.000000,17631.000000,25319.000000,60135.000000
30554.000000,17637.000000,25351.000000,60139.000000
30576.000000,17630.000000,25360.000000,60098.000000
30543.000000,17649.000000,25275.000000,60125.000000
30530.000000,17687.000000,25312.000000,60098.000000
30531.000000,17621.000000,25315.000000,60112.000000
30540.000000,17645.000000,25274.000000,60100.000000
30523.000000,17651.000000,25258.000000,60110.000000
30524.000000,17635.000000,25290.000000,60127.000000
30535.000000,17641.000000,25296.000000,60085.000000
30484.000000,17604.000000,25285.000000,60071.000000
30542.000000,17629.000000,25258.000000,60098.000000
30515.000000,17608.000000,25277.000000,60086.000000
30500.000000,17602.000000,25257.000000,60093.000000
30487.000000,17612.000000,25256.000000,60080.000000
30501.000000,17579.000000,25272.000000,60066.000000
30456.000000,17601.000000,25230.000000,60088.000000
30457.000000,17590.000000,25248.000000,60106.000000
30462.000000,17589.000000,25207.000000,60058.000000
30475.000000,17580.000000,25233.000000,60055.000000
30432.000000,17543.000000,25197.000000,60074.000000
30465.000000,17587.000000,25207.000000,60023.000000
30437.000000,17576.000000,25216.000000,60018.000000
30432.000000,17578.000000,25192.000000,60049.000000
30433.000000,17588.000000,25171.000000,60021.000000
30405.000000,17574.000000,25148.000000,60039.000000
30428.000000,17562.000000,25190.000000,60056.000000
30386.000000,17533.000000,25156.000000,60031.000000
30388.000000,17549.000000,25181.000000,60027.000000
30395.000000,17547.000000,25137.000000,60025.000000
30376.000000,17530.000000,25115.000000,60010.000000
30378.000000,17501.000000,25088.000000,60011.000000
30372.000000,17521.000000,25106.000000,59996.000000
30371.000000,17505.000000,25085.000000,59975.000000
30376.000000,17503.000000,25069.000000,60009.000000
30367.000000,17501.000000,25072.000000,60009.000000
30338.000000,17501.000000,25094.000000,60010.000000
30375.000000,17458.000000,25090.000000,59991.000000
30348.000000,17509.000000,25044.000000,59963.000000
30352.000000,17493.000000,25057.000000,59936.000000
30379.000000,17447.000000,25040.000000,59974.000000
30329.000000,17498.000000,25033.000000,59959.000000
30324.000000,17452.000000,25041.000000,59969.000000
30302.000000,17454.000000,25018.000000,59948.000000
30312.000000,17447.000000,25016.000000,59967.000000
30321.000000,17447.000000,25048.000000,59965.000000
30315.000000,17435.000000,24997.000000,59935.000000
30338.000000,17437.000000,25022.000000,59913.000000
30333.000000,17433.000000,25027.000000,59909.000000
30356.000000,17443.000000,25008.000000,59883.000000
30304.000000,17460.000000,25016.000000,59928.000000
30272.000000,17447.000000,24998.000000,59897.000000
30295.000000,17434.000000,24973.000000,59966.000000
30277.000000,17430.000000,24986.000000,59917.000000
30288.000000,17440.000000,24981.000000,59930.000000
30286.000000,17394.000000,24965.000000,59912.000000
30303.000000,17404.000000,24969.000000,59942.000000
30277.000000,17425.000000,24942.000000,59904.000000
30282.000000,17407.000000,24911.000000,59911.000000
30277.000000,17413.000000,24965.000000,59906.000000
30316.000000,17422.000000,24962.000000,59925.000000
30294.000000,17395.000000,24932.000000,59894.000000
30298.000000,17379.000000,24909.000000,59884.000000
30293.000000,17419.000000,24941.000000,59887.000000
30262.000000,17392.000000,24913.000000,59889.000000
30267.000000,17409.000000,24912.000000,59872.000000
30286.000000,17405.000000,24900.000000,59869.000000
30268.000000,17403.000000,24939.000000,59870.000000
30253.000000,17428.000000,24894.000000,59879.000000
30235.000000,17383.000000,24870.000000,59898.000000
30227.000000,17385.000000,24864.000000,59869.000000
30258.000000,17381.000000,24897.000000,59870.000000
30251.000000,17332.000000,24907.000000,59813.000000
30249.000000,17361.000000,24874.000000,59867.000000
30221.000000,17376.000000,24833.000000,59805.000000
30239.000000,17362.000000,24884.000000,59845.000000
30242.000000,17363.000000,24816.000000,59856.000000
30227.000000,17361.000000,24835.000000,59846.000000
30243.000000,17378.000000,24828.000000,59864.000000
30206.000000,17350.000000,24801.000000,59870.000000
30179.000000,17377.000000,24815.000000,59852.000000
30186.000000,17352.000000,24822.000000,59846.000000
30236.000000,17352.000000,24836.000000,59832.000000
30215.000000,17342.000000,24849.000000,59856.000000
30175.000000,17377.000000,24815.000000,59843.000000
30219.000000,17356.000000,24793.000000,59808.000000
30182.000000,17333.000000,24822.000000,59851.000000
30219.000000,17322.000000,24824.000000,59858.000000
30197.000000,17348.000000,24845.000000,59834.000000
30196.000000,17365.000000,24802.000000,59869.000000
30233.000000,17345.000000,24850.000000,59820.000000
30199.000000,17387.000000,24813.000000,59853.000000
30234.000000,17349.000000,24848.000000,59852.000000
30241.000000,17362.000000,24874.000000,59870.000000
30226.000000,17383.000000,24840.000000,59841.000000
30227.000000,17400.000000,24874.000000,59875.000000
30235.000000,17397.000000,24899.000000,59873.000000
30245.000000,17345.000000,24917.000000,59908.000000
30234.000000,17372.000000,24919.000000,59900.000000
30252.000000,17411.000000,24970.000000,59907.000000
30261.000000,17402.000000,24945.000000,59907.000000
30313.000000,17447.000000,24961.000000,59924.000000
30287.000000,17380.000000,24986.000000,59943.000000
30319.000000,17406.000000,25013.000000,59907.000000
30320.000000,17440.000000,25019.000000,59940.000000
30344.000000,17481.000000,25017.000000,59960.000000
30332.000000,17474.000000,25045.000000,59950.000000
30327.000000,17473.000000,25079.000000,60015.000000
30357.000000,17448.000000,25108.000000,60005.000000
30379.000000,17507.000000,25106.000000,60012.000000
30393.000000,17497.000000,25135.000000,59986.000000
30410.000000,17579.000000,25138.000000,60033.000000
30450.000000,17565.000000,25177.000000,60073.000000
30470.000000,17579.000000,25199.000000,60068.000000
30486.000000,17567.000000,25249.000000,60040.000000
30490.000000,17600.000000,25273.000000,60091.000000
30493.000000,17635.000000,25271.000000,60091.000000
30525.000000,17644.000000,25307.000000,60129.000000
30545.000000,17632.000000,25338.000000,60148.000000
30557.000000,17641.000000,25317.000000,60147.000000
30530.000000,17653.000000,25321.000000,60201.000000
30590.000000,17655.000000,25362.000000,60143.000000
30583.000000,17667.000000,25366.000000,60132.000000
30588.000000,17659.000000,25370.000000,60161.000000
30590.000000,17704.000000,25393.000000,60169.000000
30627.000000,17711.000000,25419.000000,60148.000000
30625.000000,17705.000000,25397.000000,60156.000000
30597.000000,17711.000000,25389.000000,60132.000000
30593.000000,17709.000000,25367.000000,60150.000000
30590.000000,17721.000000,25375.000000,60169.000000
30602.000000,17694.000000,25371.000000,60145.000000
30556.000000,17690.000000,25365.000000,60187.000000
30595.000000,17643.000000,25343.000000,60155.000000
30544.000000,17669.000000,25340.000000,60104.000000
30536.000000,17703.000000,25336.000000,60131.000000
30553.000000,17641.000000,25343.000000,60169.000000
30538.000000,17639.000000,25323.000000,60150.000000
30589.000000,17640.000000,25322.000000,60105.000000
30549.000000,17641.000000,25346.000000,60108.000000
30549.000000,17631.000000,25294.000000,60094.000000
30558.000000,17644.000000,25323.000000,60132.000000
30506.000000,17626.000000,25299.000000,60118.000000
30538.000000,17624.000000,25293.000000,60089.000000
30537.000000,17591.000000,25284.000000,60076.000000
30518.000000,17575.000000,25282.000000,60083.000000
30525.000000,17599.000000,25280.000000,60066.000000
30524.000000,17624.000000,25220.000000,60108.000000
30502.000000,17574.000000,25235.000000,60091.000000
30513.000000,17624.000000,25219.000000,60091.000000
30533.000000,17593.000000,25223.000000,60079.000000
30501.000000,17597.000000,25245.000000,60089.000000
30481.000000,17604.000000,25237.000000,60100.000000
30424.000000,17604.000000,25190.000000,60065.000000
30497.000000,17576.000000,25236.000000,60073.000000
30444.000000,17604.000000,25204.000000,60062.000000
30456.000000,17586.000000,25218.000000,60095.000000
30450.000000,17563.000000,25178.000000,60061.000000
30480.000000,17568.000000,25148.000000,60045.000000
30427.000000,17556.000000,25175.000000,60023.000000
30433.000000,17569.000000,25174.000000,60038.000000
30461.000000,17538.000000,25143.000000,59999.000000
30449.000000,17542.000000,25126.000000,60015.000000
30498.000000,17547.000000,25150.000000,59990.000000
30440.000000,17515.000000,25124.000000,60023.000000
30421.000000,17503.000000,25092.000000,59987.000000
30405.000000,17496.000000,25097.000000,60034.000000
30388.000000,17523.000000,25123.000000,59992.000000
30397.000000,17541.000000,25091.000000,59974.000000
30399.000000,17485.000000,25108.000000,59980.000000
30413.000000,17501.000000,25065.000000,60011.000000
30380.000000,17462.000000,25072.000000,59972.000000
30409.000000,17475.000000,25073.000000,59952.000000
30395.000000,17488.000000,25069.000000,59983.000000
30388.000000,17509.000000,25040.000000,59943.000000
30368.000000,17485.000000,25055.000000,59993.000000
30347.000000,17479.000000,25045.000000,59947.000000
30353.000000,17491.000000,25042.000000,59958.000000
30367.000000,17453.000000,25037.000000,59911.000000
30348.000000,17474.000000,25047.000000,59950.000000
30343.000000,17462.000000,25009.000000,59954.000000
30324.000000,17461.000000,24969.000000,59930.000000
30354.000000,17447.000000,24959.000000,59958.000000
30307.000000,17470.000000,24991.000000,59925.000000
30312.000000,17453.000000,24952.000000,59928.000000
30324.000000,17410.000000,24950.000000,59914.000000
30342.000000,17404.000000,24966.000000,59884.000000
30349.000000,17453.000000,24961.000000,59913.000000
30347.000000,17392.000000,24941.000000,59929.000000
30295.000000,17412.000000,24960.000000,59905.000000
30292.000000,17401.000000,24910.000000,59904.000000
30334.000000,17396.000000,24904.000000,59915.000000
30297.000000,17411.000000,24915.000000,59940.000000
30258.000000,17407.000000,24911.000000,59879.000000
30263.000000,17377.000000,24948.000000,59878.000000
30290.000000,17391.000000,24902.000000,59883.000000
30267.000000,17394.000000,24894.000000,59902.000000
30265.000000,17395.000000,24914.000000,59851.000000
30267.000000,17376.000000,24919.000000,59872.000000
30222.000000,17402.000000,24894.000000,59904.000000
30249.000000,17344.000000,24852.000000,59890.000000
30290.000000,17417.000000,24858.000000,59868.000000
30250.000000,17359.000000,24904.000000,59887.000000
30273.000000,17405.000000,24844.000000,59854.000000
30198.000000,17385.000000,24877.000000,59862.000000
30241.000000,17339.000000,24863.000000,59879.000000
30258.000000,17390.000000,24828.000000,59877.000000
30270.000000,17368.000000,24846.000000,59877.000000
30213.000000,17348.000000,24865.000000,59875.000000
30227.000000,17338.000000,24819.000000,59798.000000
30238.000000,17345.000000,24826.000000,59858.000000
30272.000000,17339.000000,24804.000000,59804.000000
30241.000000,17366.000000,24786.000000,59822.000000
30218.000000,17355.000000,24791.000000,59831.000000
30213.000000,17312.000000,24805.000000,59798.000000
30232.000000,17334.000000,24772.000000,59824.000000
30220.000000,17321.000000,24752.000000,59858.000000
30173.000000,17340.000000,24796.000000,59797.000000
30197.000000,17292.000000,24785.000000,59812.000000
30158.000000,17336.000000,24765.000000,59832.000000
30188.000000,17324.000000,24758.000000,59840.000000
30193.000000,17294.000000,24772.000000,59782.000000
30197.000000,17280.000000,24755.000000,59804.000000
30169.000000,17322.000000,24755.000000,59833.000000
30164.000000,17293.000000,24776.000000,59844.000000
30183.000000,17280.000000,24742.000000,59802.000000
30184.000000,17297.000000,24742.000000,59785.000000
30217.000000,17327.000000,24742.000000,59786.000000
30150.000000,17347.000000,24764.000000,59804.000000
30186.000000,17328.000000,24800.000000,59803.000000
30163.000000,17309.000000,24800.000000,59831.000000
30190.000000,17341.000000,24816.000000,59806.000000
30184.000000,17317.000000,24792.000000,59848.000000
30196.000000,17347.000000,24794.000000,59805.000000
30201.000000,17340.000000,24843.000000,59840.000000
30202.000000,17341.000000,24786.000000,59846.000000
30175.000000,17357.000000,24831.000000,59822.000000
30215.000000,17351.000000,24812.000000,59879.000000
30204.000000,17362.000000,24850.000000,59852.000000
30206.000000,17345.000000,24883.000000,59862.000000
30232.000000,17375.000000,24873.000000,59885.000000
30272.000000,17386.000000,24888.000000,59854.000000
30210.000000,17410.000000,24889.000000,59914.000000
30283.000000,17368.000000,24918.000000,59892.000000
30281.000000,17376.000000,24914.000000,59910.000000
30289.000000,17394.000000,24949.000000,59916.000000
30328.000000,17426.000000,24961.000000,59904.000000
30315.000000,17417.000000,24995.000000,59914.000000
30312.000000,17434.000000,24982.000000,59956.000000
30352.000000,17476.000000,25039.000000,59976.000000
30337.000000,17458.000000,25090.000000,59981.000000
30329.000000,17500.000000,25049.000000,60019.000000
30380.000000,17479.000000,25087.000000,60014.000000
30413.000000,17531.000000,25120.000000,60042.000000
30389.000000,17522.000000,25154.000000,60028.000000
30447.000000,17563.000000,25177.000000,60053.000000
30442.000000,17560.000000,25215.000000,60065.000000
30467.000000,17593.000000,25218.000000,60077.000000
30499.000000,17563.000000,25262.000000,60087.000000
30492.000000,17598.000000,25284.000000,60104.000000
30491.000000,17578.000000,25289.000000,60130.000000
30503.000000,17627.000000,25300.000000,60125.000000
30547.000000,17624.000000,25341.000000,60119.000000
30504.000000,17629.000000,25344.000000,60135.000000
30564.000000,17657.000000,25344.000000,60195.000000
30561.000000,17656.000000,25341.000000,60141.000000
30593.000000,17663.000000,25353.000000,60135.000000
30587.000000,17680.000000,25378.000000,60151.000000
30582.000000,17646.000000,25398.000000,60139.000000
30563.000000,17718.000000,25363.000000,60143.000000
30593.000000,17695.000000,25345.000000,60122.000000
30587.000000,17641.000000,25362.000000,60138.000000
30577.000000,17647.000000,25351.000000,60135.000000
30551.000000,17661.000000,25344.000000,60170.000000
30533.000000,17661.000000,25348.000000,60127.000000
30557.000000,17648.000000,25332.000000,60158.000000
30535.000000,17676.000000,25313.000000,60137.000000
30544.000000,17668.000000,25298.000000,60126.000000
30565.000000,17614.000000,25284.000000,60102.000000
30533.000000,17639.000000,25300.000000,60099.000000
30533.000000,17624.000000,25282.000000,60103.000000
30557.000000,17603.000000,25271.000000,60110.000000
30533.000000,17621.000000,25288.000000,60114.000000
30506.000000,17666.000000,25250.000000,60095.000000
30525.000000,17597.000000,25236.000000,60082.000000
30534.000000,17628.000000,25289.000000,60058.000000
30513.000000,17616.000000,25247.000000,60092.000000
30500.000000,17595.000000,25234.000000,60087.000000
30466.000000,17589.000000,25221.000000,60069.000000
30465.000000,17576.000000,25207.000000,60056.000000
30471.000000,17614.000000,25229.000000,60071.000000
30452.000000,17568.000000,25214.000000,60055.000000
30464.000000,17542.000000,25194.000000,60059.000000
30456.000000,17537.000000,25179.000000,60029.000000
30484.000000,17539.000000,25190.000000,60019.000000
30425.000000,17542.000000,25175.000000,60034.000000
30455.000000,17559.000000,25173.000000,60016.000000
30465.000000,17544.000000,25158.000000,60040.000000
30439.000000,17516.000000,25144.000000,60001.000000
30436.000000,17528.000000,25168.000000,60001.000000
30398.000000,17519.000000,25129.000000,60039.000000
30417.000000,17548.000000,25162.000000,60017.000000
30422.000000,17563.000000,25132.000000,60026.000000
30403.000000,17522.000000,25117.000000,59991.000000
30369.000000,17518.000000,25113.000000,60019.000000
30405.000000,17528.000000,25062.000000,59999.000000
30384.000000,17479.000000,25082.000000,60020.000000
30361.000000,17509.000000,25065.000000,59975.000000
30374.000000,17486.000000,25095.000000,59981.000000
30390.000000,17499.000000,25040.000000,59993.000000
30364.000000,17484.000000,25028.000000,59991.000000
30364.000000,17494.000000,25045.000000,59964.000000
30377.000000,17454.000000,25023.000000,59963.000000
30385.000000,17484.000000,25036.000000,59930.000000
30352.000000,17462.000000,25042.000000,59957.000000
30343.000000,17443.000000,25034.000000,59953.000000
30332.000000,17465.000000,25026.000000,59929.000000
30339.000000,17433.000000,24999.000000,59939.000000
30340.000000,17466.000000,24957.000000,59980.000000
30308.000000,17427.000000,24981.000000,59927.000000
30335.000000,17435.000000,24994.000000,59928.000000
30343.000000,17441.000000,24988.000000,59894.000000
30317.000000,17436.000000,24981.000000,59938.000000
30334.000000,17422.000000,24959.000000,59917.000000
30338.000000,17444.000000,24935.000000,59907.000000
30310.000000,17437.000000,24944.000000,59906.000000
30326.000000,17416.000000,24946.000000,59903.000000
30312.000000,17405.000000,24915.000000,59901.000000
30307.000000,17417.000000,24901.000000,59892.000000
30294.000000,17399.000000,24912.000000,59881.000000
30278.000000,17382.000000,24885.000000,59906.000000
30250.000000,17408.000000,24899.000000,59905.000000
30268.000000,17366.000000,24876.000000,59864.000000
30232.000000,17374.000000,24870.000000,59878.000000
30241.000000,17373.000000,24872.000000,59916.000000
30247.000000,17386.000000,24842.000000,59877.000000
30264.000000,17355.000000,24872.000000,59844.000000
30225.000000,17379.000000,24812.000000,59879.000000
30251.000000,17373.000000,24814.000000,59888.000000
30251.000000,17353.000000,24830.000000,59843.000000
30262.000000,17340.000000,24850.000000,59891.000000
30283.000000,17355.000000,24815.000000,59856.000000
30255.000000,17379.000000,24807.000000,59842.000000
30243.000000,17360.000000,24812.000000,59833.000000
30251.000000,17361.000000,24859.000000,59835.000000
30248.000000,17355.000000,24837.000000,59802.000000
30219.000000,17378.000000,24788.000000,59848.000000
30231.000000,17349.000000,24809.000000,59827.000000
30208.000000,17336.000000,24806.000000,59840.000000
30223.000000,17326.000000,24774.000000,59830.000000
30170.000000,17312.000000,24773.000000,59812.000000
30216.000000,17324.000000,24795.000000,59851.000000
30180.000000,17337.000000,24765.000000,59826.000000
30219.000000,17331.000000,24750.000000,59836.000000
30225.000000,17324.000000,24767.000000,59788.000000
30215.000000,17332.000000,24744.000000,59798.000000
30206.000000,17312.000000,24777.000000,59792.000000
30191.000000,17332.000000,24723.000000,59801.000000
30146.000000,17285.000000,24757.000000,59763.000000
30164.000000,17327.000000,24746.000000,59815.000000
30175.000000,17315.000000,24709.000000,59825.000000
30148.000000,17285.000000,24699.000000,59799.000000
30159.000000,17290.000000,24732.000000,59792.000000
30191.000000,17265.000000,24704.000000,59779.000000
30163.000000,17309.000000,24718.000000,59812.000000
30150.000000,17311.000000,24699.000000,59764.000000
30132.000000,17281.000000,24686.000000,59786.000000
30158.000000,17302.000000,24703.000000,59786.000000
30167.000000,17295.000000,24730.000000,59802.000000
30122.000000,17274.000000,24740.000000,59812.000000
30195.000000,17293.000000,24712.000000,59788.000000
30170.000000,17314.000000,24771.000000,59827.000000
30164.000000,17291.000000,24771.000000,59819.000000
30126.000000,17305.000000,24758.000000,59805.000000
30161.000000,17292.000000,24717.000000,59814.000000
30186.000000,17286.000000,24779.000000,59808.000000
30172.000000,17306.000000,24799.000000,59795.000000
30167.000000,17312.000000,24749.000000,59847.000000
30181.000000,17343.000000,24785.000000,59825.000000
30208.000000,17339.000000,24788.000000,59839.000000
30218.000000,17360.000000,24804.000000,59821.000000
30194.000000,17383.000000,24831.000000,59857.000000
30221.000000,17375.000000,24838.000000,59825.000000
30260.000000,17394.000000,24843.000000,59917.000000
30245.000000,17355.000000,24897.000000,59880.000000
30225.000000,17357.000000,24903.000000,59909.000000
30284.000000,17375.000000,24930.000000,59902.000000
30266.000000,17422.000000,24943.000000,59947.000000
30277.000000,17387.000000,24953.000000,59938.000000
30284.000000,17434.000000,24948.000000,59944.000000
30310.000000,17412.000000,24986.000000,59930.000000
30334.000000,17415.000000,25052.000000,59954.000000
30308.000000,17458.000000,25031.000000,59951.000000
30336.000000,17462.000000,25024.000000,59981.000000
30349.000000,17496.000000,25061.000000,60000.000000
30386.000000,17477.000000,25067.000000,60010.000000
30430.000000,17525.000000,25109.000000,60037.000000
30420.000000,17513.000000,25148.000000,60039.000000
30471.000000,17534.000000,25176.000000,60059.000000
30482.000000,17543.000000,25214.000000,60068.000000
30495.000000,17589.000000,25219.000000,60086.000000
30511.000000,17600.000000,25285.000000,60078.000000
30520.000000,17604.000000,25309.000000,60112.000000
30547.000000,17619.000000,25305.000000,60123.000000
30558.000000,17601.000000,25321.000000,60148.000000
30531.000000,17619.000000,25330.000000,60140.000000
30566.000000,17665.000000,25308.000000,60124.000000
30602.000000,17648.000000,25346.000000,60140.000000
30601.000000,17633.000000,25343.000000,60103.000000
30591.000000,17651.000000,25328.000000,60129.000000
30587.000000,17621.000000,25347.000000,60146.000000
30565.000000,17683.000000,25334.000000,60135.000000
30575.000000,17644.000000,25325.000000,60149.000000
30594.000000,17646.000000,25316.000000,60170.000000
30565.000000,17612.000000,25309.000000,60132.000000
30582.000000,17664.000000,25320.000000,60163.000000
30581.000000,17651.000000,25306.000000,60123.000000
30577.000000,17628.000000,25268.000000,60163.000000
30588.000000,17608.000000,25280.000000,60129.000000
30557.000000,17635.000000,25282.000000,60113.000000
30564.000000,17647.000000,25267.000000,60113.000000
30523.000000,17594.000000,25245.000000,60128.000000
30568.000000,17655.000000,25272.000000,60125.000000
30547.000000,17580.000000,25253.000000,60073.000000
30539.000000,17574.000000,25227.000000,60069.000000
30528.000000,17592.000000,25269.000000,60079.000000
30535.000000,17609.000000,25255.000000,60090.000000
30505.000000,17619.000000,25241.000000,60089.000000
30528.000000,17591.000000,25210.000000,60091.000000
30505.000000,17589.000000,25226.000000,60085.000000
30496.000000,17551.000000,25192.000000,60064.000000
30466.000000,17573.000000,25170.000000,60071.000000
30493.000000,17538.000000,25205.000000,60058.000000
30477.000000,17565.000000,25137.000000,60048.000000
30497.000000,17503.000000,25199.000000,60040.000000
30459.000000,17545.000000,25146.000000,60041.000000
30505.000000,17564.000000,25143.000000,60040.000000
30443.000000,17567.000000,25108.000000,60027.000000
30438.000000,17547.000000,25154.000000,60033.000000
30471.000000,17546.000000,25114.000000,60009.000000
30428.000000,17547.000000,25110.000000,60031.000000
30415.000000,17522.000000,25106.000000,60029.000000
30437.000000,17515.000000,25096.000000,60042.000000
30446.000000,17531.000000,25121.000000,59992.000000
30436.000000,17514.000000,25086.000000,60010.000000
30411.000000,17522.000000,25079.000000,60008.000000
30395.000000,17467.000000,25080.000000,59993.000000
30430.000000,17516.000000,25054.000000,60010.000000
30392.000000,17516.000000,25096.000000,60014.000000
30394.000000,17492.000000,25058.000000,60002.000000
30369.000000,17503.000000,25045.000000,60017.000000
30408.000000,17506.000000,25048.000000,60036.000000
30361.000000,17500.000000,25051.000000,59967.000000
30357.000000,17463.000000,25024.000000,59952.000000
30374.000000,17481.000000,24996.000000,59946.000000
30417.000000,17506.000000,25026.000000,59976.000000
30372.000000,17478.000000,24985.000000,59953.000000
30385.000000,17421.000000,25029.000000,59944.000000
30378.000000,17458.000000,24984.000000,59950.000000
30387.000000,17424.000000,24964.000000,59921.000000
30358.000000,17440.000000,24922.000000,59940.000000
30341.000000,17465.000000,24961.000000,59935.000000
30349.000000,17466.000000,24941.000000,59943.000000
30298.000000,17420.000000,24933.000000,59907.000000
30320.000000,17415.000000,24948.000000,59924.000000
30330.000000,17407.000000,24924.000000,59912.000000
30297.000000,17406.000000,24918.000000,59903.000000
30304.000000,17402.000000,24916.000000,59912.000000
30317.000000,17377.000000,24891.000000,59897.000000
30337.000000,17407.000000,24906.000000,59877.000000
30291.000000,17424.000000,24886.000000,59910.000000
30286.000000,17382.000000,24884.000000,59893.000000
30305.000000,17402.000000,24863.000000,59868.000000
30252.000000,17383.000000,24842.000000,59905.000000
30294.000000,17378.000000,24869.000000,59863.000000
30298.000000,17369.000000,24873.000000,59874.000000
30265.000000,17382.000000,24857.000000,59853.000000
30243.000000,17393.000000,24839.000000,59859.000000
30255.000000,17367.000000,24790.000000,59863.000000
30264.000000,17359.000000,24821.000000,59846.000000
30242.000000,17353.000000,24815.000000,59843.000000
30239.000000,17376.000000,24806.000000,59839.000000
30198.000000,17355.000000,24801.000000,59890.000000
30224.000000,17347.000000,24811.000000,59864.000000
30258.000000,17340.000000,24813.000000,59854.000000
30249.000000,17321.000000,24786.000000,59856.000000
30222.000000,17331.000000,24745.000000,59850.000000
30243.000000,17334.000000,24765.000000,59810.000000
30245.000000,17366.000000,24763.000000,59840.000000
30231.000000,17325.000000,24758.000000,59835.000000
30244.000000,17322.000000,24771.000000,59804.000000
30257.000000,17343.000000,24731.000000,59811.000000
30237.000000,17350.000000,24744.000000,59806.000000
30254.000000,17330.000000,24740.000000,59800.000000
30215.000000,17315.000000,24769.000000,59816.000000
30242.000000,17299.000000,24756.000000,59829.000000
30224.000000,17305.000000,24723.000000,59806.000000
30207.000000,17301.000000,24698.000000,59810.000000
30252.000000,17325.000000,24732.000000,59832.000000
30200.000000,17291.000000,24714.000000,59810.000000
30201.000000,17295.000000,24688.000000,59793.000000
30189.000000,17279.000000,24696.000000,59759.000000
30170.000000,17267.000000,24723.000000,59793.000000
30175.000000,17296.000000,24702.000000,59803.000000
30180.000000,17277.000000,24705.000000,59788.000000
30141.000000,17289.000000,24689.000000,59807.000000
30205.000000,17338.000000,24680.000000,59799.000000
30168.000000,17295.000000,24736.000000,59790.000000
30176.000000,17279.000000,24716.000000,59788.000000
30174.000000,17284.000000,24695.000000,59813.000000
30162.000000,17312.000000,24722.000000,59783.000000
30172.000000,17265.000000,24702.000000,59810.000000
30171.000000,17293.000000,24735.000000,59815.000000
30174.000000,17281.000000,24724.000000,59786.000000
30202.000000,17296.000000,24758.000000,59794.000000
30210.000000,17312.000000,24729.000000,59839.000000
30222.000000,17338.000000,24747.000000,59800.000000
30210.000000,17312.000000,24787.000000,59826.000000
30220.000000,17319.000000,24784.000000,59845.000000
30175.000000,17320.000000,24791.000000,59868.000000
30214.000000,17348.000000,24792.000000,59868.000000
30220.000000,17322.000000,24768.000000,59847.000000
30237.000000,17321.000000,24829.000000,59847.000000
30234.000000,17329.000000,24836.000000,59867.000000
30226.000000,17334.000000,24874.000000,59855.000000
30231.000000,17376.000000,24850.000000,59909.000000
30268.000000,17329.000000,24872.000000,59903.000000
30259.000000,17395.000000,24873.000000,59891.000000
30276.000000,17367.000000,24892.000000,59898.000000
30292.000000,17426.000000,24924.000000,59901.000000
30300.000000,17410.000000,24949.000000,59916.000000
30320.000000,17409.000000,24963.000000,59939.000000
30317.000000,17456.000000,24980.000000,59977.000000
30363.000000,17456.000000,24998.000000,59974.000000
30384.000000,17448.000000,25040.000000,59967.000000
30413.000000,17461.000000,25070.000000,59960.000000
30406.000000,17488.000000,25062.000000,60006.000000
30438.000000,17492.000000,25096.000000,60025.000000
30468.000000,17540.000000,25147.000000,60003.000000
30484.000000,17568.000000,25179.000000,60030.000000
30484.000000,17550.000000,25199.000000,60087.000000
30537.000000,17585.000000,25191.000000,60065.000000
30556.000000,17596.000000,25240.000000,60068.000000
30558.000000,17620.000000,25290.000000,60095.000000
30578.000000,17641.000000,25312.000000,60139.000000
30578.000000,17653.000000,25299.000000,60124.000000
30597.000000,17626.000000,25349.000000,60142.000000
30536.000000,17662.000000,25334.000000,60130.000000
30624.000000,17673.000000,25374.000000,60154.000000
30593.000000,17675.000000,25323.000000,60163.000000
30626.000000,17718.000000,25356.000000,60163.000000
30605.000000,17639.000000,25312.000000,60148.000000
30598.000000,17668.000000,25320.000000,60144.000000
30572.000000,17669.000000,25328.000000,60144.000000
30615.000000,17673.000000,25339.000000,60120.000000
30587.000000,17676.000000,25302.000000,60122.000000
30620.000000,17668.000000,25311.000000,60147.000000
30581.000000,17670.000000,25336.000000,60145.000000
30629.000000,17634.000000,25307.000000,60103.000000
30592.000000,17653.000000,25316.000000,60125.000000
30572.000000,17667.000000,25318.000000,60111.000000
30591.000000,17634.000000,25313.000000,60120.000000
30571.000000,17626.000000,25303.000000,60147.000000
30603.000000,17634.000000,25311.000000,60077.000000
30547.000000,17613.000000,25280.000000,60111.000000
30561.000000,17657.000000,25258.000000,60140.000000
30550.000000,17626.000000,25253.000000,60108.000000
30543.000000,17600.000000,25248.000000,60123.000000
30563.000000,17599.000000,25233.000000,60089.000000
30537.000000,17622.000000,25229.000000,60111.000000
30522.000000,17582.000000,25222.000000,60075.000000
30546.000000,17565.000000,25232.000000,60066.000000
30521.000000,17577.000000,25211.000000,60083.000000
30540.000000,17580.000000,25196.000000,60100.000000
30533.000000,17587.000000,25193.000000,60058.000000
30515.000000,17602.000000,25219.000000,60079.000000
30506.000000,17560.000000,25204.000000,60056.000000
30512.000000,17595.000000,25168.000000,60073.000000
30476.000000,17605.000000,25170.000000,60072.000000
30505.000000,17539.000000,25143.000000,60034.000000
30489.000000,17553.000000,25174.000000,60070.000000
30472.000000,17535.000000,25132.000000,60075.000000
30499.000000,17526.000000,25157.000000,60031.000000
30491.000000,17524.000000,25148.000000,60023.000000
30464.000000,17542.000000,25139.000000,60054.000000
30472.000000,17556.000000,25103.000000,60037.000000
30470.000000,17501.000000,25117.000000,60022.000000
30471.000000,17540.000000,25073.000000,59993.000000
30448.000000,17489.000000,25097.000000,59994.000000
30448.000000,17490.000000,25097.000000,60012.000000
30470.000000,17526.000000,25081.000000,59996.000000
30433.000000,17489.000000,25039.000000,59982.000000
30418.000000,17534.000000,25044.000000,60001.000000
30419.000000,17513.000000,25046.000000,59999.000000
30412.000000,17511.000000,25038.000000,60000.000000
30450.000000,17516.000000,25074.000000,59976.000000
30397.000000,17482.000000,25047.000000,59953.000000
30408.000000,17500.000000,25006.000000,59996.000000
30386.000000,17504.000000,25050.000000,59978.000000
30377.000000,17497.000000,25009.000000,59979.000000
30401.000000,17463.000000,25009.000000,59965.000000
30411.000000,17460.000000,24972.000000,59935.000000
30394.000000,17449.000000,24991.000000,59961.000000
30362.000000,17451.000000,24949.000000,59957.000000
30385.000000,17426.000000,25013.000000,59952.000000
30387.000000,17429.000000,24927.000000,59934.000000
30342.000000,17435.000000,24937.000000,59935.000000
30347.000000,17434.000000,24961.000000,59920.000000
30362.000000,17416.000000,24922.000000,59934.000000
30371.000000,17402.000000,24906.000000,59942.000000
30338.000000,17410.000000,24922.000000,59900.000000
30344.000000,17423.000000,24937.000000,59910.000000
30309.000000,17403.000000,24900.000000,59903.000000
30319.000000,17392.000000,24900.000000,59955.000000
30302.000000,17380.000000,24914.000000,59898.000000
30300.000000,17410.000000,24891.000000,59907.000000
30291.000000,17395.000000,24864.000000,59872.000000
30297.000000,17398.000000,24865.000000,59882.000000
30282.000000,17384.000000,24845.000000,59888.000000
30319.000000,17389.000000,24873.000000,59884.000000
30285.000000,17381.000000,24842.000000,59895.000000
30321.000000,17382.000000,24816.000000,59878.000000
30285.000000,17377.000000,24863.000000,59871.000000
30257.000000,17374.000000,24859.000000,59882.000000
30295.000000,17382.000000,24837.000000,59882.000000
30248.000000,17350.000000,24829.000000,59856.000000
30265.000000,17356.000000,24781.000000,59901.000000
30258.000000,17378.000000,24825.000000,59856.000000
30261.000000,17359.000000,24792.000000,59876.000000
30271.000000,17336.000000,24809.000000,59887.000000
30239.000000,17360.000000,24830.000000,59824.000000
30279.000000,17367.000000,24817.000000,59851.000000
30229.000000,17336.000000,24807.000000,59860.000000
30264.000000,17372.000000,24781.000000,59811.000000
30278.000000,17321.000000,24771.000000,59816.000000
30231.000000,17349.000000,24792.000000,59820.000000
30240.000000,17355.000000,24772.000000,59836.000000
30238.000000,17297.000000,24760.000000,59833.000000
30225.000000,17328.000000,24773.000000,59810.000000
30203.000000,17316.000000,24750.000000,59802.000000
30209.000000,17359.000000,24733.000000,59851.000000
30204.000000,17330.000000,24722.000000,59804.000000
30206.000000,17334.000000,24703.000000,59814.000000
30216.000000,17291.000000,24741.000000,59804.000000
30215.000000,17347.000000,24717.000000,59807.000000
30169.000000,17314.000000,24745.000000,59798.000000
30231.000000,17327.000000,24761.000000,59805.000000
30196.000000,17327.000000,24740.000000,59812.000000
30182.000000,17288.000000,24760.000000,59834.000000
30191.000000,17293.000000,24712.000000,59833.000000
30217.000000,17320.000000,24765.000000,59817.000000
30196.000000,17306.000000,24778.000000,59828.000000
30226.000000,17320.000000,24770.000000,59827.000000
30205.000000,17348.000000,24769.000000,59844.000000
30199.000000,17315.000000,24795.000000,59844.000000
30231.000000,17333.000000,24779.000000,59810.000000
30230.000000,17327.000000,24789.000000,59821.000000
30259.000000,17350.000000,24790.000000,59859.000000
30216.000000,17336.000000,24810.000000,59879.000000
30218.000000,17344.000000,24779.000000,59870.000000
30244.000000,17349.000000,24802.000000,59853.000000
30238.000000,17376.000000,24820.000000,59884.000000
30267.000000,17384.000000,24822.000000,59880.000000
30279.000000,17373.000000,24879.000000,59916.000000
30249.000000,17365.000000,24869.000000,59861.000000
30267.000000,17401.000000,24878.000000,59905.000000
30275.000000,17401.000000,24905.000000,59891.000000
30284.000000,17427.000000,24936.000000,59909.000000
30318.000000,17413.000000,24950.000000,59942.000000
30301.000000,17434.000000,24970.000000,59919.000000
30354.000000,17472.000000,25011.000000,59936.000000
30354.000000,17460.000000,24998.000000,59942.000000
30383.000000,17481.000000,25032.000000,59984.000000
30377.000000,17464.000000,25025.000000,59939.000000
30390.000000,17486.000000,25061.000000,60017.000000
30437.000000,17495.000000,25088.000000,59993.000000
30457.000000,17496.000000,25112.000000,60030.000000
30423.000000,17528.000000,25135.000000,60030.000000
30459.000000,17539.000000,25149.000000,60055.000000
30490.000000,17577.000000,25160.000000,60067.000000
30512.000000,17601.000000,25224.000000,60060.000000
30541.000000,17570.000000,25236.000000,60072.000000
30531.000000,17632.000000,25276.000000,60095.000000
30539.000000,17624.000000,25290.000000,60116.000000
30588.000000,17630.000000,25314.000000,60121.000000
30571.000000,17626.000000,25357.000000,60139.000000
30600.000000,17667.000000,25361.000000,60162.000000
30637.000000,17675.000000,25350.000000,60175.000000
30633.000000,17690.000000,25384.000000,60136.000000
30599.000000,17728.000000,25389.000000,60162.000000
30661.000000,17704.000000,25393.000000,60173.000000
30625.000000,17669.000000,25387.000000,60172.000000
30633.000000,17673.000000,25401.000000,60150.000000
30643.000000,17676.000000,25395.000000,60155.000000
30631.000000,17676.000000,25375.000000,60143.000000
30643.000000,17707.000000,25397.000000,60185.000000
30630.000000,17678.000000,25361.000000,60131.000000
30604.000000,17696.000000,25334.000000,60159.000000
30609.000000,17667.000000,25345.000000,60169.000000
30630.000000,17654.000000,25381.000000,60143.000000
30590.000000,17665.000000,25314.000000,60166.000000
30602.000000,17666.000000,25327.000000,60142.000000
30570.000000,17644.000000,25293.000000,60151.000000
30572.000000,17654.000000,25314.000000,60131.000000
30594.000000,17619.000000,25280.000000,60119.000000
30553.000000,17650.000000,25287.000000,60122.000000
30548.000000,17607.000000,25254.000000,60105.000000
30539.000000,17668.000000,25291.000000,60089.000000
30530.000000,17600.000000,25242.000000,60109.000000
30542.000000,17585.000000,25265.000000,60087.000000
30528.000000,17619.000000,25265.000000,60088.000000
30533.000000,17634.000000,25250.000000,60095.000000
30533.000000,17605.000000,25268.000000,60096.000000
30529.000000,17580.000000,25239.000000,60091.000000
30525.000000,17601.000000,25260.000000,60078.000000
30521.000000,17594.000000,25231.000000,60064.000000
30528.000000,17585.000000,25210.000000,60074.000000
30529.000000,17599.000000,25206.000000,60054.000000
30527.000000,17597.000000,25183.000000,60066.000000
30553.000000,17594.000000,25189.000000,60060.000000
30467.000000,17585.000000,25155.000000,60053.000000
30505.000000,17586.000000,25190.000000,60034.000000
30478.000000,17558.000000,25178.000000,60062.000000
30481.000000,17558.000000,25173.000000,60038.000000
30476.000000,17554.000000,25192.000000,60037.000000
30458.000000,17557.000000,25141.000000,60028.000000
30406.000000,17576.000000,25127.000000,60022.000000
30465.000000,17529.000000,25121.000000,60036.000000
30459.000000,17536.000000,25097.000000,60014.000000
30447.000000,17551.000000,25117.000000,60024.000000
30458.000000,17550.000000,25112.000000,59971.000000
30423.000000,17519.000000,25097.000000,60032.000000
30440.000000,17533.000000,25122.000000,60006.000000
30441.000000,17505.000000,25113.000000,59965.000000
30448.000000,17504.000000,25081.000000,59973.000000
30417.000000,17551.000000,25077.000000,59996.000000
30470.000000,17501.000000,25056.000000,59982.000000
30487.000000,17514.000000,25062.000000,59999.000000
30411.000000,17520.000000,25055.000000,59964.000000
30445.000000,17504.000000,25063.000000,59982.000000
30410.000000,17475.000000,25038.000000,59947.000000
30414.000000,17496.000000,25046.000000,59951.000000
30404.000000,17472.000000,25015.000000,59980.000000
30396.000000,17520.000000,24988.000000,59964.000000
30372.000000,17478.000000,25013.000000,59990.000000
30361.000000,17462.000000,24975.000000,59976.000000
30394.000000,17446.000000,25002.000000,59955.000000
30365.000000,17447.000000,24979.000000,59964.000000
30366.000000,17478.000000,24992.000000,59957.000000
30387.000000,17449.000000,24948.000000,59977.000000
30349.000000,17463.000000,24928.000000,59951.000000
30389.000000,17475.000000,24960.000000,59933.000000
30366.000000,17479.000000,24920.000000,59939.000000
30338.000000,17417.000000,24937.000000,59938.000000
30365.000000,17451.000000,24937.000000,59904.000000
30324.000000,17417.000000,24956.000000,59921.000000
30317.000000,17425.000000,24906.000000,59927.000000
30360.000000,17401.000000,24933.000000,59920.000000
30318.000000,17412.000000,24923.000000,59911.000000
30311.000000,17425.000000,24897.000000,59907.000000
30343.000000,17400.000000,24905.000000,59882.000000
30332.000000,17419.000000,24897.000000,59912.000000
30321.000000,17414.000000,24886.000000,59904.000000
30318.000000,17415.000000,24874.000000,59884.000000
30301.000000,17398.000000,24848.000000,59893.000000
30284.000000,17393.000000,24860.000000,59888.000000
30314.000000,17384.000000,24884.000000,59881.000000
30300.000000,17381.000000,24850.000000,59893.000000
30295.000000,17363.000000,24886.000000,59878.000000
30324.000000,17395.000000,24848.000000,59873.000000
30287.000000,17375.000000,24844.000000,59872.000000
30277.000000,17374.000000,24828.000000,59864.000000
30284.000000,17374.000000,24840.000000,59871.000000
30294.000000,17382.000000,24866.000000,59840.000000
30289.000000,17363.000000,24807.000000,59838.000000
30272.000000,17400.000000,24794.000000,59863.000000
30271.000000,17351.000000,24796.000000,59854.000000
30246.000000,17369.000000,24807.000000,59867.000000
30244.000000,17353.000000,24782.000000,59854.000000
30230.000000,17354.000000,24781.000000,59839.000000
30231.000000,17324.000000,24764.000000,59866.000000
30228.000000,17322.000000,24767.000000,59840.000000
30236.000000,17340.000000,24795.000000,59847.000000
30268.000000,17325.000000,24780.000000,59833.000000
30250.000000,17347.000000,24794.000000,59823.000000
30249.000000,17309.000000,24789.000000,59807.000000
30261.000000,17351.000000,24766.000000,59838.000000
30225.000000,17331.000000,24743.000000,59843.000000
30235.000000,17341.000000,24778.000000,59806.000000
30210.000000,17349.000000,24788.000000,59855.000000
30241.000000,17372.000000,24748.000000,59874.000000
30241.000000,17356.000000,24768.000000,59858.000000
30233.000000,17354.000000,24824.000000,59808.000000
30251.000000,17332.000000,24791.000000,59852.000000
30243.000000,17359.000000,24797.000000,59855.000000
30264.000000,17357.000000,24826.000000,59875.000000
30271.000000,17345.000000,24800.000000,59891.000000
30282.000000,17342.000000,24845.000000,59887.000000
30238.000000,17404.000000,24843.000000,59838.000000
30272.000000,17356.000000,24864.000000,59833.000000
30302.000000,17388.000000,24881.000000,59855.000000
30332.000000,17406.000000,24855.000000,59896.000000
30317.000000,17437.000000,24869.000000,59927.000000
30333.000000,17395.000000,24916.000000,59861.000000
30328.000000,17370.000000,24901.000000,59908.000000
30331.000000,17415.000000,24941.000000,59913.000000
30315.000000,17428.000000,24938.000000,59899.000000
30337.000000,17401.000000,24961.000000,59954.000000
30332.000000,17465.000000,24928.000000,59917.000000
30355.000000,17474.000000,24992.000000,59963.000000
30373.000000,17435.000000,24981.000000,59944.000000
30401.000000,17492.000000,25030.000000,59973.000000
30405.000000,17469.000000,25052.000000,59985.000000
30433.000000,17466.000000,25062.000000,59980.000000
30401.000000,17521.000000,25058.000000,60007.000000
30412.000000,17516.000000,25101.000000,60019.000000
30486.000000,17549.000000,25161.000000,60041.000000
30483.000000,17546.000000,25148.000000,60041.000000
30502.000000,17599.000000,25193.000000,60063.000000
30500.000000,17553.000000,25204.000000,60076.000000
30545.000000,17596.000000,25238.000000,60092.000000
30552.000000,17572.000000,25272.000000,60114.000000
30612.000000,17620.000000,25282.000000,60089.000000
30597.000000,17650.000000,25292.000000,60146.000000
30615.000000,17686.000000,25332.000000,60188.000000
30599.000000,17667.000000,25340.000000,60150.000000
30640.000000,17697.000000,25351.000000,60125.000000
30647.000000,17714.000000,25367.000000,60182.000000
30670.000000,17690.000000,25369.000000,60169.000000
30667.000000,17712.000000,25336.000000,60180.000000
30669.000000,17687.000000,25405.000000,60156.000000
30691.000000,17741.000000,25397.000000,60181.000000
30659.000000,17702.000000,25403.000000,60183.000000
30671.000000,17710.000000,25389.000000,60164.000000
30682.000000,17702.000000,25372.000000,60146.000000
30692.000000,17736.000000,25391.000000,60168.000000
30661.000000,17719.000000,25343.000000,60113.000000
30652.000000,17701.000000,25399.000000,60190.000000
30623.000000,17691.000000,25352.000000,60213.000000
30654.000000,17672.000000,25382.000000,60180.000000
30627.000000,17675.000000,25374.000000,60162.000000
30633.000000,17677.000000,25364.000000,60157.000000
30675.000000,17698.000000,25359.000000,60172.000000
30619.000000,17683.000000,25341.000000,60158.000000
30614.000000,17689.000000,25314.000000,60130.000000
30638.000000,17658.000000,25333.000000,60150.000000
30597.000000,17697.000000,25295.000000,60126.000000
30640.000000,17666.000000,25281.000000,60143.000000
30591.000000,17657.000000,25283.000000,60135.000000
30532.000000,17694.000000,25272.000000,60118.000000
30603.000000,17679.000000,25308.000000,60110.000000
30570.000000,17632.000000,25323.000000,60108.000000
30571.000000,17627.000000,25290.000000,60119.000000
30574.000000,17641.000000,25274.000000,60097.000000
30588.000000,17659.000000,25261.000000,60112.000000
30560.000000,17617.000000,25221.000000,60117.000000
30598.000000,17647.000000,25236.000000,60039.000000
30573.000000,17591.000000,25240.000000,60069.000000
30563.000000,17624.000000,25233.000000,60101.000000
30550.000000,17636.000000,25235.000000,60075.000000
30542.000000,17635.000000,25218.000000,60069.000000
30566.000000,17582.000000,25215.000000,60077.000000
30524.000000,17601.000000,25204.000000,60074.000000
30534.000000,17602.000000,25215.000000,60078.000000
30539.000000,17602.000000,25172.000000,60077.000000
30521.000000,17585.000000,25180.000000,60072.000000
30507.000000,17577.000000,25179.000000,60058.000000
30522.000000,17608.000000,25195.000000,60084.000000
30496.000000,17572.000000,25157.000000,60047.000000
30490.000000,17578.000000,25150.000000,60053.000000
30499.000000,17565.000000,25153.000000,60037.000000
30508.000000,17536.000000,25121.000000,60001.000000
30497.000000,17520.000000,25102.000000,60026.000000
30475.000000,17542.000000,25116.000000,60029.000000
30490.000000,17541.000000,25089.000000,60022.000000
30518.000000,17519.000000,25139.000000,60004.000000
30457.000000,17509.000000,25081.000000,60029.000000
30500.000000,17551.000000,25080.000000,60007.000000
30458.000000,17534.000000,25119.000000,60001.000000
30498.000000,17522.000000,25080.000000,59972.000000
30507.000000,17491.000000,25087.000000,60015.000000
30433.000000,17531.000000,25054.000000,60011.000000
30463.000000,17528.000000,25045.000000,59987.000000
30434.000000,17476.000000,25041.000000,59965.000000
30440.000000,17482.000000,25074.000000,59987.000000
30448.000000,17481.000000,25011.000000,59976.000000
30446.000000,17497.000000,25036.000000,59963.000000
30444.000000,17484.000000,25020.000000,59990.000000
30418.000000,17478.000000,24991.000000,59964.000000
30460.000000,17499.000000,25016.000000,59944.000000
30418.000000,17488.000000,25002.000000,59961.000000
30448.000000,17500.000000,25016.000000,59962.000000
30410.000000,17483.000000,25015.000000,59969.000000
30379.000000,17494.000000,25003.000000,59932.000000
30432.000000,17494.000000,25015.000000,59975.000000
30387.000000,17468.000000,25003.000000,59925.000000
30391.000000,17481.000000,24974.000000,59944.000000
30391.000000,17458.000000,25000.000000,59955.000000
30414.000000,17427.000000,24967.000000,59920.000000
30376.000000,17449.000000,24953.000000,59929.000000
30380.000000,17430.000000,24966.000000,59916.000000
30386.000000,17470.000000,24959.000000,59953.000000
30369.000000,17438.000000,24916.000000,59936.000000
30404.000000,17419.000000,24969.000000,59933.000000
30347.000000,17428.000000,24957.000000,59918.000000
30378.000000,17445.000000,24904.000000,59910.000000
30383.000000,17434.000000,24926.000000,59937.000000
30349.000000,17426.000000,24914.000000,59934.000000
30355.000000,17441.000000,24945.000000,59934.000000
30350.000000,17427.000000,24913.000000,59911.000000
30353.000000,17391.000000,24904.000000,59897.000000
30358.000000,17418.000000,24886.000000,59917.000000
30354.000000,17414.000000,24920.000000,59912.000000
30331.000000,17402.000000,24885.000000,59925.000000
30326.000000,17399.000000,24893.000000,59931.000000
30317.000000,17396.000000,24895.000000,59883.000000
30322.000000,17388.000000,24891.000000,59868.000000
30305.000000,17434.000000,24874.000000,59910.000000
30309.000000,17366.000000,24845.000000,59880.000000
30324.000000,17411.000000,24876.000000,59907.000000
30303.000000,17390.000000,24888.000000,59864.000000
30292.000000,17396.000000,24880.000000,59861.000000
30294.000000,17399.000000,24858.000000,59914.000000
30296.000000,17405.000000,24843.000000,59898.000000
30303.000000,17425.000000,24876.000000,59927.000000
30302.000000,17386.000000,24865.000000,59907.000000
30337.000000,17398.000000,24901.000000,59888.000000
30304.000000,17419.000000,24847.000000,59905.000000
30331.000000,17387.000000,24849.000000,59864.000000
30349.000000,17400.000000,24865.000000,59880.000000
30328.000000,17371.000000,24887.000000,59870.000000
30339.000000,17368.000000,24841.000000,59920.000000
30340.000000,17405.000000,24858.000000,59884.000000
30318.000000,17377.000000,24876.000000,59862.000000
30350.000000,17380.000000,24886.000000,59902.000000
30356.000000,17402.000000,24894.000000,59916.000000
30352.000000,17396.000000,24894.000000,59915.000000
30351.000000,17387.000000,24910.000000,59947.000000
30331.000000,17429.000000,24904.000000,59926.000000
30359.000000,17438.000000,24943.000000,59940.000000
30368.000000,17425.000000,24914.000000,59934.000000
30376.000000,17441.000000,24960.000000,59943.000000
30392.000000,17453.000000,24952.000000,59925.000000
30370.000000,17478.000000,24951.000000,59949.000000
30397.000000,17458.000000,25002.000000,59949.000000
30399.000000,17457.000000,24982.000000,59967.000000
30435.000000,17494.000000,24987.000000,59984.000000
30446.000000,17487.000000,25003.000000,59961.000000
30428.000000,17496.000000,25033.000000,60014.000000
30465.000000,17494.000000,25064.000000,59975.000000
30463.000000,17502.000000,25050.000000,60021.000000
30443.000000,17461.000000,25105.000000,60003.000000
30468.000000,17568.000000,25113.000000,60046.000000
30497.000000,17531.000000,25150.000000,60069.000000
30524.000000,17573.000000,25119.000000,60071.000000
30526.000000,17541.000000,25150.000000,60065.000000
30547.000000,17599.000000,25214.000000,60057.000000
30575.000000,17594.000000,25216.000000,60109.000000
30628.000000,17640.000000,25280.000000,60158.000000
30628.000000,17643.000000,25302.000000,60133.000000
30651.000000,17629.000000,25295.000000,60162.000000
30648.000000,17662.000000,25315.000000,60173.000000
30698.000000,17684.000000,25344.000000,60170.000000
30698.000000,17677.000000,25373.000000,60167.000000
30723.000000,17720.000000,25393.000000,60189.000000
30756.000000,17738.000000,25456.000000,60210.000000
30750.000000,17753.000000,25380.000000,60210.000000
30762.000000,17747.000000,25451.000000,60226.000000
30808.000000,17738.000000,25428.000000,60226.000000
30809.000000,17720.000000,25417.000000,60227.000000
30763.000000,17776.000000,25438.000000,60228.000000
30796.000000,17765.000000,25424.000000,60230.000000
30775.000000,17763.000000,25434.000000,60225.000000
30771.000000,17772.000000,25437.000000,60207.000000
30826.000000,17746.000000,25406.000000,60204.000000
30739.000000,17754.000000,25414.000000,60221.000000
30788.000000,17765.000000,25405.000000,60190.000000
30767.000000,17762.000000,25402.000000,60220.000000
30773.000000,17702.000000,25399.000000,60195.000000
30760.000000,17725.000000,25380.000000,60240.000000
30735.000000,17715.000000,25406.000000,60183.000000
30732.000000,17732.000000,25407.000000,60205.000000
30753.000000,17706.000000,25369.000000,60167.000000
30738.000000,17735.000000,25393.000000,60197.000000
30760.000000,17698.000000,25368.000000,60169.000000
30758.000000,17728.000000,25376.000000,60186.000000
30726.000000,17702.000000,25349.000000,60167.000000
30710.000000,17702.000000,25362.000000,60148.000000
30726.000000,17724.000000,25352.000000,60183.000000
30733.000000,17681.000000,25327.000000,60134.000000
30688.000000,17662.000000,25327.000000,60153.000000
30680.000000,17662.000000,25338.000000,60143.000000
30728.000000,17684.000000,25309.000000,60159.000000
30687.000000,17665.000000,25307.000000,60133.000000
30706.000000,17697.000000,25328.000000,60146.000000
30735.000000,17676.000000,25288.000000,60129.000000
30699.000000,17647.000000,25305.000000,60124.000000
30709.000000,17676.000000,25283.000000,60134.000000
30689.000000,17668.000000,25270.000000,60120.000000
30686.000000,17654.000000,25256.000000,60109.000000
30657.000000,17652.000000,25251.000000,60107.000000
30725.000000,17672.000000,25258.000000,60068.000000
30666.000000,17638.000000,25252.000000,60081.000000
30667.000000,17676.000000,25247.000000,60106.000000
30665.000000,17675.000000,25263.000000,60120.000000
30670.000000,17608.000000,25245.000000,60088.000000
30659.000000,17629.000000,25228.000000,60137.000000
30658.000000,17627.000000,25207.000000,60121.000000
30714.000000,17629.000000,25212.000000,60072.000000
30699.000000,17623.000000,25209.000000,60115.000000
30677.000000,17631.000000,25220.000000,60081.000000
30662.000000,17642.000000,25195.000000,60098.000000
30703.000000,17644.000000,25181.000000,60096.000000
30653.000000,17596.000000,25167.000000,60084.000000
30660.000000,17611.000000,25169.000000,60062.000000
30676.000000,17616.000000,25137.000000,60049.000000
30676.000000,17604.000000,25168.000000,60076.000000
30682.000000,17626.000000,25140.000000,60082.000000
30616.000000,17599.000000,25158.000000,60062.000000
30655.000000,17560.000000,25128.000000,60078.000000
30634.000000,17567.000000,25133.000000,60057.000000
30623.000000,17534.000000,25114.000000,60046.000000
30644.000000,17547.000000,25123.000000,60040.000000
30626.000000,17578.000000,25111.000000,60023.000000
30583.000000,17595.000000,25110.000000,60064.000000
30613.000000,17581.000000,25068.000000,60039.000000
30606.000000,17574.000000,25071.000000,60047.000000
30593.000000,17542.000000,25087.000000,59993.000000
30635.000000,17565.000000,25078.000000,60054.000000
30588.000000,17531.000000,25054.000000,60037.000000
30568.000000,17564.000000,25054.000000,60026.000000
30590.000000,17512.000000,25069.000000,60027.000000
30580.000000,17527.000000,25025.000000,60006.000000
30589.000000,17551.000000,25059.000000,60034.000000
30564.000000,17500.000000,25047.000000,60013.000000
30555.000000,17557.000000,25045.000000,60012.000000
30561.000000,17542.000000,25028.000000,60021.000000
30546.000000,17527.000000,25054.000000,60015.000000
30518.000000,17503.000000,25044.000000,59988.000000
30547.000000,17508.000000,25033.000000,59985.000000
30574.000000,17479.000000,25013.000000,59980.000000
30560.000000,17504.000000,24999.000000,59985.000000
30533.000000,17490.000000,25024.000000,59976.000000
30506.000000,17513.000000,25016.000000,60004.000000
30526.000000,17496.000000,25006.000000,59976.000000
30535.000000,17520.000000,25004.000000,59983.000000
30541.000000,17483.000000,24979.000000,59956.000000
30532.000000,17493.000000,24943.000000,59972.000000
30471.000000,17469.000000,24964.000000,59959.000000
30525.000000,17495.000000,24983.000000,59956.000000
30504.000000,17497.000000,24964.000000,59979.000000
30482.000000,17478.000000,24994.000000,59936.000000
30455.000000,17510.000000,24932.000000,59989.000000
30476.000000,17473.000000,24961.000000,59947.000000
30482.000000,17498.000000,24983.000000,59981.000000
30456.000000,17465.000000,24957.000000,59977.000000
30457.000000,17491.000000,24949.000000,59958.000000
30440.000000,17460.000000,24943.000000,59977.000000
30468.000000,17462.000000,24932.000000,59942.000000
30463.000000,17463.000000,24943.000000,59947.000000
30440.000000,17471.000000,24947.000000,59966.000000
30472.000000,17473.000000,24937.000000,59956.000000
30505.000000,17457.000000,24937.000000,59925.000000
30464.000000,17493.000000,24913.000000,59929.000000
30448.000000,17467.000000,24916.000000,59949.000000
30465.000000,17465.000000,24962.000000,59929.000000
30474.000000,17467.000000,24911.000000,59925.000000
30485.000000,17471.000000,24932.000000,59923.000000
30484.000000,17473.000000,24944.000000,59921.000000
30463.000000,17497.000000,24921.000000,59928.000000
30483.000000,17434.000000,24944.000000,59918.000000
30485.000000,17482.000000,24933.000000,59957.000000
30449.000000,17483.000000,24949.000000,59926.000000
30476.000000,17488.000000,24958.000000,59940.000000
30464.000000,17451.000000,24957.000000,59928.000000
30476.000000,17478.000000,24961.000000,59970.000000
30466.000000,17489.000000,24964.000000,59966.000000
30505.000000,17487.000000,24947.000000,59953.000000
30465.000000,17481.000000,24986.000000,59947.000000
30520.000000,17467.000000,24933.000000,60002.000000
30544.000000,17460.000000,24993.000000,59999.000000
30493.000000,17471.000000,24996.000000,60004.000000
30513.000000,17527.000000,25002.000000,59977.000000
30536.000000,17497.000000,25051.000000,59977.000000
30508.000000,17527.000000,25038.000000,60001.000000
30568.000000,17550.000000,25050.000000,59991.000000
30579.000000,17541.000000,25074.000000,60022.000000
30584.000000,17549.000000,25102.000000,60039.000000
30609.000000,17564.000000,25122.000000,60041.000000
30588.000000,17578.000000,25111.000000,60046.000000
30584.000000,17584.000000,25146.000000,60059.000000
30598.000000,17575.000000,25180.000000,60066.000000
30631.000000,17616.000000,25189.000000,60097.000000
30625.000000,17607.000000,25225.000000,60128.000000
30669.000000,17664.000000,25222.000000,60144.000000
30658.000000,17672.000000,25253.000000,60143.000000
30682.000000,17670.000000,25264.000000,60126.000000
30709.000000,17708.000000,25315.000000,60160.000000
30719.000000,17717.000000,25333.000000,60163.000000
30720.000000,17708.000000,25359.000000,60163.000000
30754.000000,17717.000000,25382.000000,60190.000000
30808.000000,17722.000000,25390.000000,60239.000000
30789.000000,17749.000000,25438.000000,60243.000000
30817.000000,17722.000000,25448.000000,60222.000000
30837.000000,17807.000000,25463.000000,60274.000000
30828.000000,17791.000000,25478.000000,60236.000000
30878.000000,17779.000000,25520.000000,60259.000000
30841.000000,17817.000000,25467.000000,60244.000000
30872.000000,17786.000000,25481.000000,60272.000000
30852.000000,17807.000000,25523.000000,60240.000000
30871.000000,17810.000000,25520.000000,60265.000000
30861.000000,17811.000000,25495.000000,60265.000000
30849.000000,17797.000000,25485.000000,60260.000000
30859.000000,17811.000000,25510.000000,60256.000000
30864.000000,17807.000000,25515.000000,60251.000000
30851.000000,17772.000000,25495.000000,60282.000000
30853.000000,17807.000000,25467.000000,60244.000000
30827.000000,17769.000000,25464.000000,60250.000000
30832.000000,17774.000000,25478.000000,60253.000000
30847.000000,17778.000000,25434.000000,60235.000000
30825.000000,17745.000000,25439.000000,60218.000000
30840.000000,17766.000000,25459.000000,60233.000000
30809.000000,17761.000000,25406.000000,60244.000000
30837.000000,17792.000000,25406.000000,60208.000000
30796.000000,17744.000000,25430.000000,60221.000000
30818.000000,17753.000000,25415.000000,60209.000000
30791.000000,17802.000000,25398.000000,60223.000000
30812.000000,17726.000000,25421.000000,60227.000000
30809.000000,17760.000000,25387.000000,60223.000000
30803.000000,17741.000000,25399.000000,60216.000000
30820.000000,17751.000000,25374.000000,60236.000000
30790.000000,17733.000000,25395.000000,60205.000000
30776.000000,17709.000000,25406.000000,60205.000000
30788.000000,17757.000000,25388.000000,60221.000000
30764.000000,17718.000000,25360.000000,60169.000000
30738.000000,17720.000000,25349.000000,60188.000000
30774.000000,17738.000000,25328.000000,60180.000000
30754.000000,17702.000000,25365.000000,60148.000000
30764.000000,17671.000000,25307.000000,60189.000000
30739.000000,17724.000000,25343.000000,60147.000000
30735.000000,17663.000000,25316.000000,60167.000000
30743.000000,17724.000000,25334.000000,60149.000000
30755.000000,17680.000000,25329.000000,60139.000000
30753.000000,17705.000000,25287.000000,60134.000000
30760.000000,17679.000000,25296.000000,60152.000000
30735.000000,17704.000000,25305.000000,60157.000000
30719.000000,17681.000000,25269.000000,60135.000000
30678.000000,17699.000000,25254.000000,60120.000000
30712.000000,17673.000000,25273.000000,60116.000000
30686.000000,17671.000000,25279.000000,60116.000000
30697.000000,17653.000000,25259.000000,60120.000000
30690.000000,17678.000000,25212.000000,60109.000000
30670.000000,17667.000000,25246.000000,60104.000000
30669.000000,17632.000000,25266.000000,60083.000000
30647.000000,17673.000000,25224.000000,60089.000000
30668.000000,17631.000000,25223.000000,60096.000000
30629.000000,17646.000000,25253.000000,60108.000000
30638.000000,17618.000000,25180.000000,60076.000000
30645.000000,17622.000000,25204.000000,60097.000000
30645.000000,17602.000000,25187.000000,60065.000000
30605.000000,17582.000000,25145.000000,60087.000000
30594.000000,17624.000000,25155.000000,60105.000000
30627.000000,17594.000000,25132.000000,60048.000000
30613.000000,17576.000000,25162.000000,60046.000000
30612.000000,17598.000000,25122.000000,60061.000000
30601.000000,17551.000000,25143.000000,60043.000000
30586.000000,17602.000000,25124.000000,60064.000000
30569.000000,17552.000000,25086.000000,60047.000000
30603.000000,17536.000000,25110.000000,60019.000000
30573.000000,17581.000000,25086.000000,60052.000000
30597.000000,17561.000000,25116.000000,60074.000000
30584.000000,17545.000000,25098.000000,60001.000000
30552.000000,17595.000000,25099.000000,60048.000000
30581.000000,17545.000000,25055.000000,60029.000000
30590.000000,17564.000000,25084.000000,60037.000000
30530.000000,17546.000000,25084.000000,60031.000000
30537.000000,17529.000000,25079.000000,59981.000000
30583.000000,17549.000000,25093.000000,60040.000000
30565.000000,17559.000000,25076.000000,59993.000000
30541.000000,17542.000000,25082.000000,60044.000000
30601.000000,17511.000000,25053.000000,60001.000000
30553.000000,17592.000000,25046.000000,59993.000000
30563.000000,17514.000000,25037.000000,60034.000000
30550.000000,17560.000000,25029.000000,59993.000000
30579.000000,17512.000000,25047.000000,60006.000000
30563.000000,17520.000000,25035.000000,59995.000000
30572.000000,17533.000000,25035.000000,60000.000000
30540.000000,17534.000000,25008.000000,60017.000000
30568.000000,17503.000000,25027.000000,59983.000000
30558.000000,17530.000000,25054.000000,59967.000000
30527.000000,17518.000000,24989.000000,59988.000000
30536.000000,17540.000000,25015.000000,59964.000000
30538.000000,17481.000000,25026.000000,59956.000000
30528.000000,17539.000000,25017.000000,59991.000000
30530.000000,17504.000000,25033.000000,59989.000000
30486.000000,17525.000000,25012.000000,59956.000000
30504.000000,17493.000000,25003.000000,59990.000000
30541.000000,17487.000000,24987.000000,59935.000000
30527.000000,17467.000000,24966.000000,59966.000000
30535.000000,17510.000000,24998.000000,59965.000000
30523.000000,17473.000000,25008.000000,59933.000000
30484.000000,17467.000000,24986.000000,59948.000000
30495.000000,17496.000000,24981.000000,59981.000000
30484.000000,17467.000000,24985.000000,59944.000000
30483.000000,17511.000000,25004.000000,59958.000000
30513.000000,17495.000000,24977.000000,59931.000000
30485.000000,17507.000000,24966.000000,59947.000000
30511.000000,17536.000000,24980.000000,59966.000000
30491.000000,17504.000000,24959.000000,59968.000000
30516.000000,17487.000000,24961.000000,59961.000000
30473.000000,17515.000000,24924.000000,59949.000000
30491.000000,17471.000000,24976.000000,59933.000000
30519.000000,17468.000000,24969.000000,59948.000000
30507.000000,17491.000000,24973.000000,59947.000000
30495.000000,17518.000000,24978.000000,59941.000000
30511.000000,17491.000000,24995.000000,59940.000000
30513.000000,17493.000000,25023.000000,59947.000000
30516.000000,17500.000000,25005.000000,59969.000000
30508.000000,17565.000000,25016.000000,59995.000000
30523.000000,17489.000000,25041.000000,60007.000000
30526.000000,17537.000000,25026.000000,60007.000000
30474.000000,17501.000000,25016.000000,60005.000000
30523.000000,17512.000000,25090.000000,59996.000000
30530.000000,17505.000000,25017.000000,60016.000000
30555.000000,17555.000000,25038.000000,60025.000000
30577.000000,17534.000000,25090.000000,60015.000000
30556.000000,17557.000000,25077.000000,60041.000000
30579.000000,17575.000000,25108.000000,60022.000000
30589.000000,17571.000000,25131.000000,60055.000000
30591.000000,17613.000000,25140.000000,60049.000000
30591.000000,17608.000000,25190.000000,60053.000000
30655.000000,17615.000000,25175.000000,60073.000000
30644.000000,17630.000000,25203.000000,60070.000000
30637.000000,17640.000000,25247.000000,60107.000000
30687.000000,17660.000000,25250.000000,60081.000000
30708.000000,17678.000000,25280.000000,60130.000000
30733.000000,17697.000000,25318.000000,60112.000000
30735.000000,17722.000000,25327.000000,60139.000000
30778.000000,17694.000000,25355.000000,60164.000000
30776.000000,17723.000000,25367.000000,60181.000000
30769.000000,17732.000000,25435.000000,60152.000000
30822.000000,17751.000000,25414.000000,60220.000000
30786.000000,17745.000000,25413.000000,60246.000000
30837.000000,17777.000000,25449.000000,60239.000000
30857.000000,17772.000000,25502.000000,60246.000000
30831.000000,17791.000000,25516.000000,60260.000000
30892.000000,17826.000000,25513.000000,60281.000000
30911.000000,17847.000000,25538.000000,60322.000000
30897.000000,17817.000000,25551.000000,60287.000000
30926.000000,17803.000000,25549.000000,60288.000000
30916.000000,17836.000000,25576.000000,60273.000000
30930.000000,17816.000000,25588.000000,60274.000000
30900.000000,17847.000000,25565.000000,60299.000000
30919.000000,17818.000000,25580.000000,60273.000000
30919.000000,17848.000000,25568.000000,60294.000000
30897.000000,17807.000000,25577.000000,60287.000000
30901.000000,17845.000000,25541.000000,60275.000000
30927.000000,17845.000000,25508.000000,60288.000000
30913.000000,17804.000000,25518.000000,60283.000000
30894.000000,17797.000000,25532.000000,60253.000000
30898.000000,17840.000000,25536.000000,60266.000000
30892.000000,17801.000000,25525.000000,60277.000000
30910.000000,17821.000000,25540.000000,60279.000000
30894.000000,17822.000000,25523.000000,60245.000000
30912.000000,17791.000000,25500.000000,60247.000000
30850.000000,17802.000000,25497.000000,60259.000000
30856.000000,17772.000000,25492.000000,60236.000000
30851.000000,17798.000000,25495.000000,60248.000000
30829.000000,17773.000000,25481.000000,60234.000000
30864.000000,17787.000000,25444.000000,60250.000000
30844.000000,17781.000000,25434.000000,60220.000000
30865.000000,17780.000000,25450.000000,60239.000000
30866.000000,17781.000000,25441.000000,60222.000000
30817.000000,17732.000000,25439.000000,60211.000000
30806.000000,17732.000000,25452.000000,60202.000000
30803.000000,17758.000000,25408.000000,60212.000000
30817.000000,17721.000000,25404.000000,60236.000000
30808.000000,17763.000000,25419.000000,60202.000000
30824.000000,17755.000000,25380.000000,60177.000000
30822.000000,17752.000000,25429.000000,60187.000000
30807.000000,17718.000000,25382.000000,60206.000000
30832.000000,17754.000000,25374.000000,60171.000000
30778.000000,17716.000000,25387.000000,60190.000000
30775.000000,17728.000000,25342.000000,60163.000000
30817.000000,17730.000000,25363.000000,60171.000000
30792.000000,17716.000000,25342.000000,60144.000000
30805.000000,17736.000000,25325.000000,60142.000000
30826.000000,17741.000000,25311.000000,60165.000000
30777.000000,17718.000000,25322.000000,60172.000000
30776.000000,17721.000000,25336.000000,60143.000000
30726.000000,17702.000000,25329.000000,60147.000000
30756.000000,17692.000000,25306.000000,60144.000000
30773.000000,17702.000000,25289.000000,60146.000000
30720.000000,17709.000000,25284.000000,60120.000000
30717.000000,17711.000000,25287.000000,60139.000000
30727.000000,17670.000000,25260.000000,60143.000000
30727.000000,17647.000000,25297.000000,60126.000000
30756.000000,17683.000000,25234.000000,60122.000000
30713.000000,17668.000000,25219.000000,60118.000000
30697.000000,17652.000000,25257.000000,60087.000000
30704.000000,17665.000000,25220.000000,60102.000000
30707.000000,17662.000000,25202.000000,60095.000000
30726.000000,17623.000000,25232.000000,60099.000000
30723.000000,17656.000000,25228.000000,60091.000000
30672.000000,17623.000000,25197.000000,60079.000000
30669.000000,17644.000000,25219.000000,60088.000000
30635.000000,17609.000000,25182.000000,60081.000000
30693.000000,17613.000000,25213.000000,60085.000000
30667.000000,17604.000000,25172.000000,60097.000000
30644.000000,17627.000000,25162.000000,60079.000000
30669.000000,17608.000000,25140.000000,60070.000000
30666.000000,17637.000000,25168.000000,60056.000000
30677.000000,17608.000000,25165.000000,60063.000000
30685.000000,17641.000000,25141.000000,60025.000000
30654.000000,17581.000000,25140.000000,60051.000000
30639.000000,17582.000000,25116.000000,60050.000000
30638.000000,17566.000000,25135.000000,60023.000000
30620.000000,17580.000000,25141.000000,60048.000000
30598.000000,17596.000000,25104.000000,60041.000000
30646.000000,17588.000000,25106.000000,60072.000000
30641.000000,17571.000000,25073.000000,60061.000000
30604.000000,17606.000000,25059.000000,60052.000000
30591.000000,17572.000000,25101.000000,60037.000000
30648.000000,17551.000000,25070.000000,60044.000000
30619.000000,17571.000000,25094.000000,60024.000000
30596.000000,17566.000000,25083.000000,60066.000000
30612.000000,17529.000000,25097.000000,60039.000000
30635.000000,17537.000000,25093.000000,60015.000000
30586.000000,17580.000000,25075.000000,60020.000000
30605.000000,17563.000000,25049.000000,60042.000000
30599.000000,17580.000000,25037.000000,60026.000000
30599.000000,17551.000000,25079.000000,60006.000000
30594.000000,17569.000000,25075.000000,60026.000000
30600.000000,17558.000000,25056.000000,60009.000000
30585.000000,17584.000000,25041.000000,59978.000000
30579.000000,17539.000000,25053.000000,60002.000000
30598.000000,17525.000000,25037.000000,60009.000000
30543.000000,17530.000000,25011.000000,59997.000000
30552.000000,17540.000000,25029.000000,59967.000000
30555.000000,17552.000000,25028.000000,59972.000000
30595.000000,17558.000000,25025.000000,59968.000000
30540.000000,17532.000000,25019.000000,60013.000000
30574.000000,17522.000000,25020.000000,59939.000000
30527.000000,17516.000000,25039.000000,60009.000000
30556.000000,17514.000000,25018.000000,59995.000000
30534.000000,17525.000000,25022.000000,59988.000000
30526.000000,17510.000000,25007.000000,59941.000000
30517.000000,17504.000000,25009.000000,59974.000000
30536.000000,17517.000000,25006.000000,59989.000000
30534.000000,17520.000000,24999.000000,59957.000000
30543.000000,17521.000000,24998.000000,59979.000000
30537.000000,17493.000000,25020.000000,59971.000000
30493.000000,17512.000000,24983.000000,59999.000000
30561.000000,17481.000000,25001.000000,59966.000000
30535.000000,17508.000000,25013.000000,59977.000000
30476.000000,17542.000000,25015.000000,59970.000000
30542.000000,17536.000000,25054.000000,59999.000000
30577.000000,17529.000000,25024.000000,59979.000000
30574.000000,17532.000000,25020.000000,60041.000000
30595.000000,17550.000000,25035.000000,59967.000000
30582.000000,17582.000000,25043.000000,59992.000000
30578.000000,17551.000000,25042.000000,59973.000000
30633.000000,17540.000000,25067.000000,60020.000000
30581.000000,17579.000000,25100.000000,60010.000000
30637.000000,17599.000000,25116.000000,60051.000000
30585.000000,17576.000000,25135.000000,60048.000000
30630.000000,17603.000000,25133.000000,60019.000000
30612.000000,17586.000000,25155.000000,60085.000000
30637.000000,17632.000000,25159.000000,60035.000000
30623.000000,17642.000000,25167.000000,60074.000000
30629.000000,17615.000000,25212.000000,60062.000000
30641.000000,17588.000000,25192.000000,60068.000000
30639.000000,17622.000000,25206.000000,60136.000000
30714.000000,17606.000000,25221.000000,60068.000000
30710.000000,17665.000000,25291.000000,60090.000000
30747.000000,17701.000000,25313.000000,60110.000000
30732.000000,17674.000000,25304.000000,60163.000000
30724.000000,17689.000000,25336.000000,60164.000000
30784.000000,17716.000000,25359.000000,60178.000000
30755.000000,17697.000000,25373.000000,60213.000000
30783.000000,17769.000000,25390.000000,60209.000000
30833.000000,17742.000000,25458.000000,60259.000000
30849.000000,17776.000000,25450.000000,60226.000000
30847.000000,17785.000000,25471.000000,60238.000000
30910.000000,17812.000000,25499.000000,60272.000000
30903.000000,17837.000000,25515.000000,60308.000000
30938.000000,17822.000000,25541.000000,60312.000000
30943.000000,17827.000000,25590.000000,60320.000000
30917.000000,17840.000000,25593.000000,60290.000000
30963.000000,17870.000000,25578.000000,60314.000000
30949.000000,17865.000000,25575.000000,60271.000000
30975.000000,17897.000000,25598.000000,60300.000000
30997.000000,17887.000000,25596.000000,60301.000000
30973.000000,17843.000000,25610.000000,60317.000000
30997.000000,17854.000000,25585.000000,60320.000000
30992.000000,17888.000000,25565.000000,60329.000000
30971.000000,17867.000000,25559.000000,60316.000000
30960.000000,17850.000000,25576.000000,60303.000000
30929.000000,17858.000000,25545.000000,60294.000000
30947.000000,17870.000000,25535.000000,60316.000000
30966.000000,17861.000000,25593.000000,60287.000000
30959.000000,17870.000000,25542.000000,60319.000000
30954.000000,17884.000000,25546.000000,60292.000000
30892.000000,17861.000000,25518.000000,60284.000000
30957.000000,17857.000000,25548.000000,60259.000000
30966.000000,17874.000000,25522.000000,60281.000000
30943.000000,17848.000000,25529.000000,60261.000000
30922.000000,17857.000000,25505.000000,60258.000000
30923.000000,17833.000000,25511.000000,60291.000000
30928.000000,17835.000000,25497.000000,60303.000000
30913.000000,17810.000000,25491.000000,60262.000000
30905.000000,17793.000000,25541.000000,60281.000000
30872.000000,17804.000000,25451.000000,60247.000000
30882.000000,17794.000000,25454.000000,60221.000000
30883.000000,17795.000000,25453.000000,60247.000000
30897.000000,17838.000000,25498.000000,60238.000000
30864.000000,17774.000000,25460.000000,60246.000000
30926.000000,17811.000000,25477.000000,60275.000000
30897.000000,17779.000000,25449.000000,60234.000000
30863.000000,17785.000000,25415.000000,60230.000000
30906.000000,17780.000000,25462.000000,60219.000000
30859.000000,17777.000000,25452.000000,60189.000000
30869.000000,17764.000000,25370.000000,60224.000000
30878.000000,17827.000000,25413.000000,60211.000000
30849.000000,17763.000000,25392.000000,60181.000000
30848.000000,17797.000000,25396.000000,60195.000000
30848.000000,17743.000000,25401.000000,60166.000000
30876.000000,17823.000000,25407.000000,60216.000000
30849.000000,17758.000000,25383.000000,60180.000000
30847.000000,17743.000000,25397.000000,60172.000000
30829.000000,17763.000000,25344.000000,60177.000000
30805.000000,17752.000000,25360.000000,60174.000000
30804.000000,17694.000000,25353.000000,60165.000000
30832.000000,17707.000000,25365.000000,60168.000000
30760.000000,17727.000000,25314.000000,60163.000000
30773.000000,17707.000000,25313.000000,60164.000000
30777.000000,17718.000000,25325.000000,60132.000000
30781.000000,17695.000000,25310.000000,60145.000000
30762.000000,17698.000000,25297.000000,60180.000000
30753.000000,17683.000000,25278.000000,60122.000000
30750.000000,17705.000000,25307.000000,60141.000000
30724.000000,17667.000000,25284.000000,60094.000000
30773.000000,17700.000000,25246.000000,60130.000000
30751.000000,17661.000000,25273.000000,60089.000000
30720.000000,17658.000000,25219.000000,60101.000000
30739.000000,17655.000000,25246.000000,60092.000000
30730.000000,17696.000000,25221.000000,60086.000000
30757.000000,17622.000000,25218.000000,60102.000000
30722.000000,17672.000000,25227.000000,60097.000000
30710.000000,17669.000000,25195.000000,60075.000000
30734.000000,17662.000000,25189.000000,60084.000000
30691.000000,17634.000000,25169.000000,60072.000000
30697.000000,17633.000000,25186.000000,60081.000000
30728.000000,17606.000000,25190.000000,60076.000000
30689.000000,17635.000000,25157.000000,60082.000000
30695.000000,17633.000000,25142.000000,60064.000000
30680.000000,17622.000000,25135.000000,60052.000000
30666.000000,17645.000000,25137.000000,60067.000000
30719.000000,17654.000000,25178.000000,60051.000000
30680.000000,17616.000000,25147.000000,60036.000000
30674.000000,17651.000000,25146.000000,60042.000000
30654.000000,17617.000000,25132.000000,60063.000000
30660.000000,17619.000000,25141.000000,60076.000000
30651.000000,17641.000000,25154.000000,60012.000000
30627.000000,17628.000000,25130.000000,60043.000000
30632.000000,17591.000000,25127.000000,60084.000000
30672.000000,17609.000000,25167.000000,60012.000000
30650.000000,17590.000000,25105.000000,60014.000000
30681.000000,17583.000000,25099.000000,60012.000000
30616.000000,17600.000000,25088.000000,60035.000000
30658.000000,17598.000000,25091.000000,60021.000000
30653.000000,17568.000000,25069.000000,60033.000000
30668.000000,17584.000000,25126.000000,59991.000000
30631.000000,17557.000000,25107.000000,60016.000000
30620.000000,17615.000000,25054.000000,60040.000000
30683.000000,17564.000000,25088.000000,60040.000000
30663.000000,17582.000000,25072.000000,59966.000000
30631.000000,17575.000000,25096.000000,60006.000000
30643.000000,17603.000000,25058.000000,60026.000000
30633.000000,17602.000000,25098.000000,60010.000000
30615.000000,17588.000000,25074.000000,60010.000000
30608.000000,17562.000000,25032.000000,60036.000000
30593.000000,17577.000000,25094.000000,60027.000000
30593.000000,17555.000000,25055.000000,59998.000000
30596.000000,17554.000000,25051.000000,59986.000000
30545.000000,17560.000000,25049.000000,59996.000000
30602.000000,17538.000000,25044.000000,59992.000000
30598.000000,17566.000000,25039.000000,60021.000000
30580.000000,17556.000000,25043.000000,59996.000000
30622.000000,17544.000000,25084.000000,60024.000000
30587.000000,17520.000000,25021.000000,60004.000000
30602.000000,17569.000000,25000.000000,60004.000000
30575.000000,17550.000000,25045.000000,59992.000000
30594.000000,17552.000000,25060.000000,60001.000000
30622.000000,17521.000000,24995.000000,60013.000000
30590.000000,17519.000000,25057.000000,60020.000000
30614.000000,17535.000000,25036.000000,60018.000000
30615.000000,17605.000000,25079.000000,60003.000000
30609.000000,17579.000000,25057.000000,59988.000000
30655.000000,17584.000000,25104.000000,60033.000000
30614.000000,17562.000000,25107.000000,60010.000000
30611.000000,17589.000000,25104.000000,60048.000000
30630.000000,17628.000000,25066.000000,60041.000000
30674.000000,17579.000000,25116.000000,60047.000000
30672.000000,17610.000000,25143.000000,60046.000000
30668.000000,17629.000000,25152.000000,60024.000000
30671.000000,17644.000000,25164.000000,60092.000000
30665.000000,17667.000000,25177.000000,60076.000000
30682.000000,17645.000000,25194.000000,60051.000000
30669.000000,17666.000000,25212.000000,60092.000000
30736.000000,17630.000000,25233.000000,60080.000000
30727.000000,17675.000000,25236.000000,60144.000000
30741.000000,17652.000000,25264.000000,60123.000000
30755.000000,17674.000000,25253.000000,60157.000000
30745.000000,17668.000000,25305.000000,60120.000000
30795.000000,17690.000000,25319.000000,60148.000000
30768.000000,17714.000000,25317.000000,60145.000000
30819.000000,17735.000000,25389.000000,60183.000000
30806.000000,17757.000000,25358.000000,60166.000000
30842.000000,17800.000000,25396.000000,60218.000000
30820.000000,17786.000000,25446.000000,60182.000000
30882.000000,17783.000000,25448.000000,60267.000000
30876.000000,17840.000000,25448.000000,60232.000000
30898.000000,17761.000000,25510.000000,60256.000000
30951.000000,17796.000000,25508.000000,60282.000000
30940.000000,17860.000000,25525.000000,60281.000000
30948.000000,17876.000000,25592.000000,60304.000000
31006.000000,17897.000000,25568.000000,60268.000000
30994.000000,17861.000000,25583.000000,60284.000000
31018.000000,17917.000000,25612.000000,60307.000000
31042.000000,17917.000000,25646.000000,60316.000000
31030.000000,17905.000000,25627.000000,60345.000000
31034.000000,17881.000000,25622.000000,60344.000000
31026.000000,17920.000000,25632.000000,60333.000000
31003.000000,17911.000000,25624.000000,60339.000000
31004.000000,17848.000000,25630.000000,60332.000000
31010.000000,17900.000000,25626.000000,60351.000000
31005.000000,17891.000000,25609.000000,60293.000000
31002.000000,17891.000000,25598.000000,60342.000000
31037.000000,17898.000000,25587.000000,60316.000000
31001.000000,17903.000000,25569.000000,60287.000000
30996.000000,17880.000000,25606.000000,60300.000000
31023.000000,17893.000000,25588.000000,60297.000000
31007.000000,17898.000000,25608.000000,60314.000000
30994.000000,17894.000000,25571.000000,60344.000000
30981.000000,17863.000000,25572.000000,60336.000000
30980.000000,17875.000000,25541.000000,60272.000000
30922.000000,17861.000000,25518.000000,60318.000000
30974.000000,17834.000000,25547.000000,60286.000000
30963.000000,17836.000000,25517.000000,60289.000000
30930.000000,17830.000000,25519.000000,60287.000000
30954.000000,17796.000000,25519.000000,60294.000000
30954.000000,17843.000000,25491.000000,60288.000000
30943.000000,17839.000000,25520.000000,60238.000000
30923.000000,17872.000000,25506.000000,60244.000000
30905.000000,17841.000000,25501.000000,60241.000000
30937.000000,17851.000000,25462.000000,60235.000000
30934.000000,17812.000000,25508.000000,60209.000000
30934.000000,17779.000000,25484.000000,60227.000000
30901.000000,17854.000000,25489.000000,60234.000000
30927.000000,17789.000000,25452.000000,60227.000000
30941.000000,17811.000000,25458.000000,60254.000000
30914.000000,17786.000000,25443.000000,60225.000000
30907.000000,17796.000000,25413.000000,60253.000000
30906.000000,17801.000000,25396.000000,60194.000000
30887.000000,17805.000000,25394.000000,60218.000000
30887.000000,17797.000000,25412.000000,60212.000000
30869.000000,17774.000000,25436.000000,60200.000000
30899.000000,17785.000000,25399.000000,60190.000000
30869.000000,17795.000000,25425.000000,60203.000000
30892.000000,17755.000000,25402.000000,60179.000000
30904.000000,17757.000000,25288.000000,60198.000000
30856.000000,17788.000000,25328.000000,60172.000000
30866.000000,17774.000000,25370.000000,60160.000000
30856.000000,17741.000000,25347.000000,60173.000000
30848.000000,17749.000000,25394.000000,60170.000000
30866.000000,17751.000000,25296.000000,60176.000000
30876.000000,17769.000000,25356.000000,60160.000000
30813.000000,17754.000000,25341.000000,60173.000000
30845.000000,17750.000000,25318.000000,60203.000000
30833.000000,17727.000000,25318.000000,60151.000000
30824.000000,17733.000000,25291.000000,60189.000000
30804.000000,17718.000000,25255.000000,60139.000000
30844.000000,17735.000000,25250.000000,60132.000000
30834.000000,17742.000000,25283.000000,60100.000000
30813.000000,17705.000000,25259.000000,60147.000000
30839.000000,17678.000000,25236.000000,60107.000000
30802.000000,17691.000000,25250.000000,60116.000000
30806.000000,17708.000000,25202.000000,60126.000000
30811.000000,17704.000000,25203.000000,60099.000000
30777.000000,17707.000000,25224.000000,60105.000000
30781.000000,17668.000000,25225.000000,60074.000000
30800.000000,17656.000000,25186.000000,60089.000000
30770.000000,17660.000000,25182.000000,60061.000000
30768.000000,17659.000000,25193.000000,60106.000000
30805.000000,17672.000000,25206.000000,60079.000000
30757.000000,17633.000000,25196.000000,60086.000000
30777.000000,17639.000000,25161.000000,60080.000000
30751.000000,17659.000000,25185.000000,60075.000000
30751.000000,17685.000000,25149.000000,60082.000000
30718.000000,17603.000000,25161.000000,60054.000000
30757.000000,17615.000000,25142.000000,60081.000000
30751.000000,17658.000000,25119.000000,60075.000000
30772.000000,17665.000000,25129.000000,60088.000000
30731.000000,17687.000000,25118.000000,60072.000000
30761.000000,17663.000000,25141.000000,60011.000000
30725.000000,17650.000000,25106.000000,60088.000000
30749.000000,17648.000000,25136.000000,60085.000000
30725.000000,17609.000000,25126.000000,60045.000000
30722.000000,17617.000000,25151.000000,60061.000000
30726.000000,17637.000000,25138.000000,60050.000000
30702.000000,17616.000000,25115.000000,60050.000000
30697.000000,17603.000000,25090.000000,60036.000000
30697.000000,17587.000000,25102.000000,60047.000000
30724.000000,17614.000000,25070.000000,60010.000000
30730.000000,17591.000000,25073.000000,60018.000000
30711.000000,17609.000000,25073.000000,60026.000000
30698.000000,17555.000000,25092.000000,60026.000000
30711.000000,17640.000000,25078.000000,60018.000000
30714.000000,17603.000000,25060.000000,60029.000000
30730.000000,17581.000000,25099.000000,60050.000000
30674.000000,17595.000000,25074.000000,60002.000000
30693.000000,17551.000000,25067.000000,60007.000000
30690.000000,17610.000000,25070.000000,60004.000000
30656.000000,17566.000000,25027.000000,59977.000000
30655.000000,17583.000000,25043.000000,60017.000000
30691.000000,17577.000000,25009.000000,60035.000000
30662.000000,17595.000000,25037.000000,60002.000000
30656.000000,17589.000000,24975.000000,60016.000000
30674.000000,17596.000000,25019.000000,60033.000000
30639.000000,17576.000000,25047.000000,60034.000000
30684.000000,17579.000000,25056.000000,60016.000000
30650.000000,17551.000000,25048.000000,60012.000000
30684.000000,17545.000000,25045.000000,60010.000000
30667.000000,17582.000000,25056.000000,60026.000000
30661.000000,17594.000000,25059.000000,60020.000000
30676.000000,17567.000000,25068.000000,60030.000000
30709.000000,17611.000000,25076.000000,60015.000000
30717.000000,17609.000000,25077.000000,60032.000000
30760.000000,17602.000000,25115.000000,59998.000000
30687.000000,17618.000000,25110.000000,60055.000000
30707.000000,17620.000000,25084.000000,60049.000000
30705.000000,17606.000000,25132.000000,60077.000000
30717.000000,17637.000000,25116.000000,60057.000000
30760.000000,17597.000000,25110.000000,60050.000000
30774.000000,17672.000000,25183.000000,60062.000000
30746.000000,17667.000000,25175.000000,60083.000000
30790.000000,17660.000000,25195.000000,60090.000000
30775.000000,17694.000000,25181.000000,60111.000000
30795.000000,17708.000000,25221.000000,60132.000000
30777.000000,17699.000000,25239.000000,60141.000000
30816.000000,17698.000000,25262.000000,60105.000000
30834.000000,17673.000000,25273.000000,60161.000000
30833.000000,17696.000000,25281.000000,60151.000000
30874.000000,17721.000000,25314.000000,60169.000000
30829.000000,17733.000000,25311.000000,60157.000000
30862.000000,17752.000000,25296.000000,60178.000000
30864.000000,17750.000000,25332.000000,60217.000000
30877.000000,17753.000000,25386.000000,60171.000000
30913.000000,17786.000000,25405.000000,60234.000000
30913.000000,17809.000000,25453.000000,60210.000000
30926.000000,17823.000000,25456.000000,60258.000000
30974.000000,17859.000000,25480.000000,60272.000000
30980.000000,17902.000000,25509.000000,60265.000000
31009.000000,17854.000000,25527.000000,60260.000000
31037.000000,17901.000000,25568.000000,60307.000000
31032.000000,17881.000000,25582.000000,60339.000000
31053.000000,17935.000000,25594.000000,60312.000000
31023.000000,17915.000000,25596.000000,60323.000000
31058.000000,17932.000000,25590.000000,60359.000000
31052.000000,17932.000000,25602.000000,60339.000000
31078.000000,17946.000000,25644.000000,60357.000000
31080.000000,17888.000000,25621.000000,60336.000000
31058.000000,17930.000000,25646.000000,60352.000000
31106.000000,17917.000000,25598.000000,60361.000000
31088.000000,17944.000000,25599.000000,60379.000000
31039.000000,17926.000000,25638.000000,60323.000000
31068.000000,17937.000000,25614.000000,60320.000000
31067.000000,17877.000000,25598.000000,60305.000000
31072.000000,17942.000000,25566.000000,60314.000000
31065.000000,17903.000000,25603.000000,60281.000000
31069.000000,17883.000000,25559.000000,60314.000000
31055.000000,17893.000000,25560.000000,60322.000000
31081.000000,17895.000000,25557.000000,60296.000000
31030.000000,17871.000000,25541.000000,60300.000000
31050.000000,17889.000000,25527.000000,60313.000000
31051.000000,17882.000000,25542.000000,60297.000000
31057.000000,17886.000000,25520.000000,60279.000000
31073.000000,17876.000000,25535.000000,60273.000000
31037.000000,17895.000000,25539.000000,60292.000000
31043.000000,17864.000000,25512.000000,60279.000000
31037.000000,17887.000000,25503.000000,60237.000000
31046.000000,17883.000000,25499.000000,60299.000000
31017.000000,17856.000000,25497.000000,60256.000000
31004.000000,17833.000000,25485.000000,60251.000000
31006.000000,17839.000000,25477.000000,60213.000000
30997.000000,17843.000000,25486.000000,60271.000000
30990.000000,17836.000000,25461.000000,60238.000000
30983.000000,17855.000000,25469.000000,60276.000000
30995.000000,17830.000000,25470.000000,60260.000000
30958.000000,17847.000000,25451.000000,60246.000000
30993.000000,17833.000000,25434.000000,60211.000000
30993.000000,17819.000000,25425.000000,60231.000000
30982.000000,17804.000000,25454.000000,60251.000000
30962.000000,17828.000000,25374.000000,60244.000000
30950.000000,17808.000000,25406.000000,60241.000000
30945.000000,17794.000000,25403.000000,60207.000000
30947.000000,17808.000000,25401.000000,60207.000000
30925.000000,17767.000000,25372.000000,60226.000000
30901.000000,17799.000000,25388.000000,60182.000000
30910.000000,17765.000000,25373.000000,60204.000000
30933.000000,17789.000000,25354.000000,60185.000000
30911.000000,17781.000000,25366.000000,60178.000000
30918.000000,17777.000000,25351.000000,60179.000000
30893.000000,17790.000000,25300.000000,60184.000000
30921.000000,17757.000000,25309.000000,60136.000000
30884.000000,17747.000000,25318.000000,60168.000000
30883.000000,17772.000000,25320.000000,60149.000000
30891.000000,17715.000000,25280.000000,60166.000000
30880.000000,17773.000000,25300.000000,60168.000000
30868.000000,17758.000000,25264.000000,60134.000000
30847.000000,17723.000000,25267.000000,60117.000000
30875.000000,17733.000000,25289.000000,60131.000000
30859.000000,17694.000000,25236.000000,60153.000000
30875.000000,17723.000000,25249.000000,60107.000000
30867.000000,17746.000000,25247.000000,60095.000000
30822.000000,17699.000000,25244.000000,60134.000000
30848.000000,17731.000000,25207.000000,60108.000000
30811.000000,17700.000000,25236.000000,60121.000000
30822.000000,17681.000000,25183.000000,60081.000000
30796.000000,17688.000000,25235.000000,60105.000000
30777.000000,17682.000000,25187.000000,60134.000000
30799.000000,17684.000000,25171.000000,60116.000000
30817.000000,17682.000000,25158.000000,60075.000000
30803.000000,17658.000000,25165.000000,60082.000000
30798.000000,17684.000000,25133.000000,60043.000000
30756.000000,17672.000000,25164.000000,60064.000000
30763.000000,17659.000000,25178.000000,60111.000000
30788.000000,17676.000000,25156.000000,60109.000000
30802.000000,17634.000000,25178.000000,60034.000000
30767.000000,17641.000000,25153.000000,60053.000000
30745.000000,17643.000000,25122.000000,60058.000000
30735.000000,17671.000000,25154.000000,60056.000000
30722.000000,17670.000000,25144.000000,60067.000000
30729.000000,17605.000000,25106.000000,60026.000000
30707.000000,17639.000000,25140.000000,60057.000000
30771.000000,17624.000000,25103.000000,60036.000000
30752.000000,17635.000000,25108.000000,60047.000000
30732.000000,17624.000000,25104.000000,60056.000000
30749.000000,17618.000000,25084.000000,60045.000000
30760.000000,17619.000000,25094.000000,60035.000000
30748.000000,17620.000000,25094.000000,60036.000000
30743.000000,17608.000000,25041.000000,60024.000000
30707.000000,17602.000000,25076.000000,60023.000000
30740.000000,17554.000000,25086.000000,60040.000000
30696.000000,17601.000000,25066.000000,60032.000000
30707.000000,17603.000000,25018.000000,60012.000000
30713.000000,17589.000000,25055.000000,60030.000000
30753.000000,17598.000000,25036.000000,60019.000000
30711.000000,17644.000000,25019.000000,59982.000000
30718.000000,17646.000000,25046.000000,59995.000000
30728.000000,17616.000000,25017.000000,60012.000000
30712.000000,17573.000000,25002.000000,59982.000000
30706.000000,17631.000000,25050.000000,60016.000000
30712.000000,17593.000000,25044.000000,60004.000000
30734.000000,17591.000000,25055.000000,60008.000000
30699.000000,17595.000000,25009.000000,59990.000000
30671.000000,17612.000000,25017.000000,60023.000000
30720.000000,17547.000000,25024.000000,59998.000000
30721.000000,17612.000000,25038.000000,60004.000000
30687.000000,17589.000000,25018.000000,60015.000000
30689.000000,17606.000000,25046.000000,60029.000000
30698.000000,17597.000000,25061.000000,60030.000000
30739.000000,17580.000000,25061.000000,59993.000000
30753.000000,17583.000000,25079.000000,60044.000000
30721.000000,17622.000000,25072.000000,60039.000000
30751.000000,17621.000000,25052.000000,60016.000000
30755.000000,17574.000000,25075.000000,60040.000000
30749.000000,17629.000000,25073.000000,60064.000000
30763.000000,17615.000000,25102.000000,60048.000000
30744.000000,17640.000000,25089.000000,60058.000000
30731.000000,17615.000000,25153.000000,60061.000000
30781.000000,17679.000000,25071.000000,60036.000000
30785.000000,17631.000000,25097.000000,60090.000000
30799.000000,17639.000000,25118.000000,60073.000000
30755.000000,17683.000000,25148.000000,60090.000000
30808.000000,17688.000000,25158.000000,60126.000000
30828.000000,17662.000000,25185.000000,60091.000000
30811.000000,17712.000000,25183.000000,60117.000000
30836.000000,17680.000000,25206.000000,60098.000000
30822.000000,17672.000000,25211.000000,60131.000000
30843.000000,17705.000000,25236.000000,60141.000000
30824.000000,17717.000000,25240.000000,60132.000000
30895.000000,17703.000000,25295.000000,60140.000000
30875.000000,17726.000000,25293.000000,60165.000000
30865.000000,17772.000000,25324.000000,60212.000000
30931.000000,17767.000000,25352.000000,60206.000000
30920.000000,17758.000000,25359.000000,60205.000000
30954.000000,17794.000000,25384.000000,60190.000000
31002.000000,17816.000000,25424.000000,60227.000000
30987.000000,17812.000000,25409.000000,60243.000000
31024.000000,17859.000000,25472.000000,60227.000000
31045.000000,17851.000000,25491.000000,60245.000000
31044.000000,17884.000000,25460.000000,60297.000000
31048.000000,17872.000000,25553.000000,60271.000000
31060.000000,17882.000000,25552.000000,60299.000000
31061.000000,17923.000000,25555.000000,60314.000000
31094.000000,17908.000000,25568.000000,60333.000000
31127.000000,17926.000000,25580.000000,60339.000000
31109.000000,17926.000000,25585.000000,60343.000000
31121.000000,17920.000000,25593.000000,60319.000000
31111.000000,17929.000000,25636.000000,60303.000000
31142.000000,17931.000000,25604.000000,60361.000000
31132.000000,17916.000000,25641.000000,60332.000000
31114.000000,17923.000000,25592.000000,60342.000000
31128.000000,17915.000000,25599.000000,60350.000000
31121.000000,17927.000000,25575.000000,60299.000000
31116.000000,17914.000000,25569.000000,60328.000000
31083.000000,17920.000000,25558.000000,60334.000000
31146.000000,17907.000000,25581.000000,60343.000000
31122.000000,17940.000000,25575.000000,60331.000000
31131.000000,17909.000000,25564.000000,60280.000000
31147.000000,17954.000000,25531.000000,60316.000000
31151.000000,17902.000000,25536.000000,60287.000000
31110.000000,17918.000000,25538.000000,60302.000000
31109.000000,17905.000000,25516.000000,60276.000000
31110.000000,17911.000000,25538.000000,60295.000000
31089.000000,17892.000000,25487.000000,60300.000000
31093.000000,17900.000000,25469.000000,60322.000000
31091.000000,17902.000000,25480.000000,60293.000000
31071.000000,17872.000000,25484.000000,60258.000000
31098.000000,17865.000000,25464.000000,60271.000000
31072.000000,17879.000000,25489.000000,60294.000000
31075.000000,17892.000000,25480.000000,60272.000000
31074.000000,17849.000000,25467.000000,60234.000000
31053.000000,17884.000000,25417.000000,60250.000000
31058.000000,17882.000000,25422.000000,60256.000000
31037.000000,17843.000000,25456.000000,60254.000000
31088.000000,17871.000000,25456.000000,60219.000000
31036.000000,17882.000000,25452.000000,60234.000000
31061.000000,17893.000000,25455.000000,60269.000000
31022.000000,17851.000000,25442.000000,60247.000000
31038.000000,17818.000000,25402.000000,60242.000000
31018.000000,17793.000000,25433.000000,60209.000000
31006.000000,17854.000000,25422.000000,60218.000000
31031.000000,17809.000000,25370.000000,60220.000000
30995.000000,17834.000000,25380.000000,60209.000000
30974.000000,17818.000000,25394.000000,60207.000000
31000.000000,17823.000000,25357.000000,60227.000000
31018.000000,17827.000000,25368.000000,60206.000000
31008.000000,17846.000000,25358.000000,60246.000000
31012.000000,17774.000000,25346.000000,60190.000000
31002.000000,17834.000000,25347.000000,60179.000000
31002.000000,17794.000000,25332.000000,60225.000000
30948.000000,17799.000000,25355.000000,60159.000000
30979.000000,17833.000000,25317.000000,60190.000000
30970.000000,17777.000000,25328.000000,60177.000000
30947.000000,17797.000000,25319.000000,60175.000000
30952.000000,17805.000000,25294.000000,60105.000000
30938.000000,17785.000000,25309.000000,60166.000000
30958.000000,17750.000000,25285.000000,60162.000000
30943.000000,17782.000000,25319.000000,60161.000000
30960.000000,17740.000000,25264.000000,60164.000000
30972.000000,17769.000000,25239.000000,60145.000000
30960.000000,17730.000000,25297.000000,60133.000000
30902.000000,17731.000000,25236.000000,60157.000000
30939.000000,17712.000000,25242.000000,60123.000000
30897.000000,17725.000000,25238.000000,60128.000000
30936.000000,17752.000000,25218.000000,60108.000000
30905.000000,17683.000000,25192.000000,60109.000000
30913.000000,17715.000000,25198.000000,60111.000000
30931.000000,17727.000000,25216.000000,60099.000000
30888.000000,17733.000000,25205.000000,60096.000000
30860.000000,17712.000000,25179.000000,60080.000000
30890.000000,17712.000000,25182.000000,60117.000000
30859.000000,17736.000000,25215.000000,60133.000000
30886.000000,17731.000000,25164.000000,60128.000000
30871.000000,17683.000000,25184.000000,60085.000000
30852.000000,17667.000000,25163.000000,60103.000000
30888.000000,17681.000000,25175.000000,60084.000000
30887.000000,17693.000000,25174.000000,60067.000000
30887.000000,17706.000000,25148.000000,60080.000000
30880.000000,17700.000000,25152.000000,60062.000000
30880.000000,17672.000000,25158.000000,60078.000000
30835.000000,17669.000000,25177.000000,60095.000000
30837.000000,17684.000000,25172.000000,60107.000000
30881.000000,17697.000000,25159.000000,60063.000000
30822.000000,17675.000000,25148.000000,60067.000000
30879.000000,17684.000000,25127.000000,60056.000000
30822.000000,17676.000000,25140.000000,60072.000000
30831.000000,17651.000000,25142.000000,60061.000000
30807.000000,17685.000000,25104.000000,60090.000000
30841.000000,17689.000000,25128.000000,60096.000000
30814.000000,17644.000000,25096.000000,60070.000000
30821.000000,17628.000000,25141.000000,60048.000000
30820.000000,17686.000000,25141.000000,60042.000000
30791.000000,17657.000000,25098.000000,60081.000000
30805.000000,17650.000000,25115.000000,60064.000000
30786.000000,17621.000000,25120.000000,60046.000000
30809.000000,17607.000000,25104.000000,60027.000000
30780.000000,17654.000000,25083.000000,60067.000000
30773.000000,17635.000000,25097.000000,60018.000000
30803.000000,17593.000000,25076.000000,60032.000000
30783.000000,17659.000000,25106.000000,60021.000000
30761.000000,17618.000000,25076.000000,59980.000000
30772.000000,17651.000000,25065.000000,60013.000000
30733.000000,17620.000000,25039.000000,60055.000000
30742.000000,17609.000000,25086.000000,60005.000000
30764.000000,17637.000000,25054.000000,60013.000000
30729.000000,17583.000000,25061.000000,60017.000000
30741.000000,17595.000000,25072.000000,60013.000000
30738.000000,17626.000000,25053.000000,60022.000000
30726.000000,17595.000000,25045.000000,60025.000000
30748.000000,17611.000000,25085.000000,60023.000000
30708.000000,17595.000000,25070.000000,60015.000000
30733.000000,17633.000000,25090.000000,60046.000000
30742.000000,17572.000000,25079.000000,60001.000000
30752.000000,17651.000000,25095.000000,60028.000000
30759.000000,17648.000000,25092.000000,60024.000000
30764.000000,17649.000000,25122.000000,60026.000000
30776.000000,17626.000000,25094.000000,60035.000000
30780.000000,17684.000000,25109.000000,60062.000000
30767.000000,17664.000000,25124.000000,60070.000000
30749.000000,17670.000000,25154.000000,60093.000000
30806.000000,17654.000000,25164.000000,60088.000000
30784.000000,17666.000000,25190.000000,60080.000000
30809.000000,17728.000000,25208.000000,60079.000000
30841.000000,17710.000000,25205.000000,60140.000000
30859.000000,17707.000000,25181.000000,60109.000000
30874.000000,17696.000000,25254.000000,60103.000000
30913.000000,17691.000000,25251.000000,60116.000000
30891.000000,17730.000000,25254.000000,60141.000000
30920.000000,17754.000000,25283.000000,60156.000000
30907.000000,17798.000000,25281.000000,60178.000000
30967.000000,17758.000000,25297.000000,60188.000000
30960.000000,17778.000000,25347.000000,60188.000000
30959.000000,17809.000000,25370.000000,60210.000000
30996.000000,17830.000000,25399.000000,60223.000000
30984.000000,17844.000000,25377.000000,60242.000000
31019.000000,17836.000000,25450.000000,60256.000000
31036.000000,17866.000000,25457.000000,60272.000000
31045.000000,17884.000000,25474.000000,60290.000000
31037.000000,17875.000000,25502.000000,60298.000000
31070.000000,17887.000000,25502.000000,60281.000000
31097.000000,17886.000000,25515.000000,60312.000000
31105.000000,17920.000000,25580.000000,60300.000000
31137.000000,17952.000000,25582.000000,60320.000000
31155.000000,17948.000000,25580.000000,60323.000000
31131.000000,17934.000000,25594.000000,60335.000000
31133.000000,17972.000000,25618.000000,60328.000000
31162.000000,17972.000000,25641.000000,60347.000000
31154.000000,17999.000000,25619.000000,60353.000000
31157.000000,17992.000000,25663.000000,60356.000000
31162.000000,17991.000000,25638.000000,60288.000000
31174.000000,17955.000000,25615.000000,60352.000000
31172.000000,17974.000000,25603.000000,60324.000000
31148.000000,17964.000000,25597.000000,60337.000000
31144.000000,17964.000000,25608.000000,60310.000000
31160.000000,17942.000000,25561.000000,60317.000000
31157.000000,17935.000000,25617.000000,60353.000000
31132.000000,17960.000000,25590.000000,60327.000000
31108.000000,17944.000000,25591.000000,60290.000000
31133.000000,17912.000000,25603.000000,60337.000000
31122.000000,17926.000000,25581.000000,60317.000000
31102.000000,17934.000000,25518.000000,60311.000000
31107.000000,17892.000000,25551.000000,60294.000000
31098.000000,17893.000000,25549.000000,60322.000000
31070.000000,17893.000000,25562.000000,60292.000000
31110.000000,17890.000000,25538.000000,60286.000000
31093.000000,17859.000000,25523.000000,60275.000000
31088.000000,17867.000000,25496.000000,60296.000000
31084.000000,17904.000000,25498.000000,60280.000000
31075.000000,17919.000000,25468.000000,60252.000000
31110.000000,17863.000000,25499.000000,60246.000000
31095.000000,17874.000000,25461.000000,60227.000000
31063.000000,17871.000000,25461.000000,60262.000000
31017.000000,17854.000000,25464.000000,60257.000000
31087.000000,17883.000000,25475.000000,60264.000000
31056.000000,17858.000000,25446.000000,60265.000000
31060.000000,17869.000000,25480.000000,60236.000000
31036.000000,17860.000000,25466.000000,60227.000000
31088.000000,17849.000000,25446.000000,60229.000000
31040.000000,17833.000000,25426.000000,60219.000000
31017.000000,17852.000000,25440.000000,60251.000000
30998.000000,17825.000000,25422.000000,60204.000000
31000.000000,17852.000000,25403.000000,60230.000000
31020.000000,17823.000000,25419.000000,60223.000000
31040.000000,17796.000000,25442.000000,60203.000000
30998.000000,17809.000000,25372.000000,60234.000000
31008.000000,17795.000000,25371.000000,60217.000000
30985.000000,17792.000000,25356.000000,60205.000000
31005.000000,17839.000000,25356.000000,60207.000000
30983.000000,17826.000000,25348.000000,60195.000000
31014.000000,17782.000000,25343.000000,60206.000000
30997.000000,17775.000000,25330.000000,60188.000000
31000.000000,17816.000000,25339.000000,60192.000000
30978.000000,17788.000000,25337.000000,60186.000000
31013.000000,17804.000000,25334.000000,60182.000000
30997.000000,17807.000000,25330.000000,60230.000000
30975.000000,17807.000000,25324.000000,60156.000000
30979.000000,17782.000000,25301.000000,60189.000000
30948.000000,17818.000000,25302.000000,60178.000000
30974.000000,17785.000000,25327.000000,60175.000000
30993.000000,17777.000000,25276.000000,60160.000000
30936.000000,17752.000000,25271.000000,60172.000000
30973.000000,17729.000000,25280.000000,60135.000000
30938.000000,17709.000000,25290.000000,60136.000000
30940.000000,17755.000000,25257.000000,60145.000000
30920.000000,17751.000000,25227.000000,60138.000000
30948.000000,17734.000000,25246.000000,60115.000000
30930.000000,17698.000000,25196.000000,60115.000000
30902.000000,17735.000000,25279.000000,60114.000000
30929.000000,17702.000000,25268.000000,60114.000000
30920.000000,17756.000000,25244.000000,60152.000000
30922.000000,17746.000000,25234.000000,60107.000000
30933.000000,17709.000000,25246.000000,60088.000000
30904.000000,17736.000000,25222.000000,60101.000000
30869.000000,17726.000000,25232.000000,60132.000000
30869.000000,17734.000000,25204.000000,60128.000000
30883.000000,17685.000000,25197.000000,60134.000000
30865.000000,17717.000000,25195.000000,60121.000000
30853.000000,17684.000000,25209.000000,60089.000000
30886.000000,17699.000000,25224.000000,60058.000000
30875.000000,17734.000000,25155.000000,60123.000000
30889.000000,17717.000000,25199.000000,60057.000000
30827.000000,17697.000000,25173.000000,60132.000000
30850.000000,17683.000000,25175.000000,60090.000000
30872.000000,17641.000000,25147.000000,60067.000000
30837.000000,17699.000000,25151.000000,60058.000000
30817.000000,17713.000000,25184.000000,60095.000000
30853.000000,17676.000000,25178.000000,60071.000000
30858.000000,17682.000000,25159.000000,60067.000000
30854.000000,17677.000000,25143.000000,60060.000000
30817.000000,17678.000000,25168.000000,60087.000000
30808.000000,17666.000000,25132.000000,60087.000000
30796.000000,17658.000000,25151.000000,60081.000000
30817.000000,17647.000000,25147.000000,60086.000000
30834.000000,17636.000000,25141.000000,60079.000000
30848.000000,17667.000000,25154.000000,60022.000000
30795.000000,17677.000000,25119.000000,60076.000000
30797.000000,17672.000000,25117.000000,60052.000000
30781.000000,17632.000000,25125.000000,60066.000000
30767.000000,17645.000000,25113.000000,60057.000000
30781.000000,17666.000000,25117.000000,60040.000000
30763.000000,17621.000000,25149.000000,60037.000000
30698.000000,17655.000000,25096.000000,60046.000000
30743.000000,17658.000000,25086.000000,60014.000000
30739.000000,17618.000000,25110.000000,60014.000000
30750.000000,17646.000000,25058.000000,60044.000000
30781.000000,17637.000000,25075.000000,60048.000000
30750.000000,17618.000000,25071.000000,60027.000000
30779.000000,17649.000000,25087.000000,60031.000000
30761.000000,17616.000000,25097.000000,60028.000000
30726.000000,17640.000000,25079.000000,60041.000000
30700.000000,17632.000000,25119.000000,60030.000000
30731.000000,17648.000000,25094.000000,60071.000000
30782.000000,17644.000000,25065.000000,60048.000000
30779.000000,17598.000000,25089.000000,60053.000000
30786.000000,17591.000000,25108.000000,60030.000000
30795.000000,17657.000000,25111.000000,60065.000000
30792.000000,17631.000000,25142.000000,60070.000000
30792.000000,17685.000000,25148.000000,60078.000000
30795.000000,17682.000000,25150.000000,60070.000000
30835.000000,17700.000000,25165.000000,60091.000000
30819.000000,17693.000000,25171.000000,60097.000000
30837.000000,17705.000000,25204.000000,60076.000000
30823.000000,17710.000000,25203.000000,60105.000000
30867.000000,17738.000000,25229.000000,60095.000000
30841.000000,17717.000000,25247.000000,60131.000000
30854.000000,17713.000000,25229.000000,60110.000000
30932.000000,17731.000000,25278.000000,60123.000000
30888.000000,17769.000000,25270.000000,60165.000000
30875.000000,17779.000000,25278.000000,60160.000000
30961.000000,17783.000000,25326.000000,60154.000000
30943.000000,17779.000000,25341.000000,60189.000000
30962.000000,17809.000000,25357.000000,60201.000000
30988.000000,17783.000000,25371.000000,60223.000000
31009.000000,17806.000000,25366.000000,60217.000000
30997.000000,17843.000000,25396.000000,60247.000000
31043.000000,17829.000000,25459.000000,60219.000000
31050.000000,17854.000000,25485.000000,60244.000000
31026.000000,17875.000000,25492.000000,60240.000000
31066.000000,17904.000000,25511.000000,60261.000000
31075.000000,17891.000000,25523.000000,60317.000000
31072.000000,17940.000000,25576.000000,60319.000000
31106.000000,17955.000000,25560.000000,60309.000000
31121.000000,17928.000000,25576.000000,60346.000000
31159.000000,17962.000000,25600.000000,60347.000000
31135.000000,17955.000000,25628.000000,60364.000000
31176.000000,17961.000000,25648.000000,60372.000000
31172.000000,18004.000000,25634.000000,60351.000000
31167.000000,18008.000000,25646.000000,60366.000000
31221.000000,17965.000000,25657.000000,60359.000000
31185.000000,18012.000000,25710.000000,60392.000000
31172.000000,17999.000000,25689.000000,60361.000000
31179.000000,17974.000000,25669.000000,60393.000000
31179.000000,17981.000000,25633.000000,60371.000000
31184.000000,17985.000000,25679.000000,60353.000000
31145.000000,17961.000000,25657.000000,60365.000000
31165.000000,17941.000000,25650.000000,60369.000000
31132.000000,17944.000000,25599.000000,60375.000000
31124.000000,17964.000000,25617.000000,60367.000000
31148.000000,17962.000000,25635.000000,60356.000000
31167.000000,17953.000000,25633.000000,60345.000000
31108.000000,17937.000000,25603.000000,60340.000000
31156.000000,17919.000000,25584.000000,60315.000000
31123.000000,17968.000000,25589.000000,60342.000000
31153.000000,17938.000000,25537.000000,60329.000000
31143.000000,17943.000000,25569.000000,60322.000000
31121.000000,17959.000000,25573.000000,60318.000000
31141.000000,17931.000000,25556.000000,60307.000000
31139.000000,17951.000000,25585.000000,60320.000000
31110.000000,17931.000000,25543.000000,60330.000000
31159.000000,17959.000000,25550.000000,60298.000000
31131.000000,17894.000000,25536.000000,60299.000000
31095.000000,17946.000000,25544.000000,60319.000000
31070.000000,17920.000000,25521.000000,60296.000000
31092.000000,17893.000000,25538.000000,60332.000000
31129.000000,17912.000000,25501.000000,60286.000000
31088.000000,17905.000000,25513.000000,60304.000000
31116.000000,17913.000000,25499.000000,60283.000000
31105.000000,17877.000000,25534.000000,60253.000000
31147.000000,17903.000000,25490.000000,60277.000000
31086.000000,17884.000000,25493.000000,60235.000000
31102.000000,17871.000000,25470.000000,60259.000000
31082.000000,17907.000000,25469.000000,60286.000000
31088.000000,17867.000000,25465.000000,60228.000000
31062.000000,17888.000000,25448.000000,60258.000000
31080.000000,17867.000000,25469.000000,60256.000000
31037.000000,17829.000000,25452.000000,60250.000000
31086.000000,17836.000000,25413.000000,60271.000000
31077.000000,17882.000000,25425.000000,60249.000000
31052.000000,17828.000000,25419.000000,60240.000000
31053.000000,17884.000000,25394.000000,60210.000000
31072.000000,17834.000000,25422.000000,60221.000000
31038.000000,17858.000000,25415.000000,60233.000000
31086.000000,17822.000000,25397.000000,60227.000000
31044.000000,17831.000000,25389.000000,60216.000000
31041.000000,17857.000000,25352.000000,60230.000000
31040.000000,17808.000000,25334.000000,60220.000000
31053.000000,17821.000000,25374.000000,60198.000000
31008.000000,17792.000000,25365.000000,60217.000000
31021.000000,17805.000000,25360.000000,60210.000000
31022.000000,17769.000000,25325.000000,60217.000000
31002.000000,17796.000000,25322.000000,60189.000000
30985.000000,17788.000000,25315.000000,60164.000000
31015.000000,17783.000000,25341.000000,60180.000000
31018.000000,17791.000000,25303.000000,60203.000000
31012.000000,17790.000000,25301.000000,60137.000000
30969.000000,17801.000000,25284.000000,60168.000000
30989.000000,17778.000000,25305.000000,60138.000000
30978.000000,17775.000000,25283.000000,60138.000000
30985.000000,17765.000000,25284.000000,60156.000000
31007.000000,17761.000000,25243.000000,60125.000000
30985.000000,17773.000000,25287.000000,60109.000000
30942.000000,17752.000000,25226.000000,60161.000000
30944.000000,17739.000000,25273.000000,60122.000000
30949.000000,17715.000000,25219.000000,60134.000000
30934.000000,17711.000000,25221.000000,60159.000000
30897.000000,17710.000000,25226.000000,60128.000000
30915.000000,17747.000000,25225.000000,60096.000000
30935.000000,17723.000000,25219.000000,60107.000000
30897.000000,17728.000000,25196.000000,60075.000000
30916.000000,17713.000000,25202.000000,60107.000000
30897.000000,17690.000000,25193.000000,60120.000000
30862.000000,17712.000000,25187.000000,60110.000000
30880.000000,17718.000000,25206.000000,60127.000000
30864.000000,17697.000000,25198.000000,60107.000000
30865.000000,17691.000000,25147.000000,60079.000000
30857.000000,17709.000000,25172.000000,60120.000000
30864.000000,17721.000000,25127.000000,60081.000000
30867.000000,17705.000000,25147.000000,60065.000000
30857.000000,17698.000000,25129.000000,60061.000000
30856.000000,17710.000000,25143.000000,60087.000000
30861.000000,17698.000000,25135.000000,60072.000000
30841.000000,17657.000000,25133.000000,60057.000000
30864.000000,17642.000000,25117.000000,60067.000000
30838.000000,17650.000000,25121.000000,60024.000000
30840.000000,17696.000000,25113.000000,60061.000000
30856.000000,17692.000000,25117.000000,60043.000000
30814.000000,17692.000000,25095.000000,60086.000000
30857.000000,17629.000000,25096.000000,60050.000000
30825.000000,17642.000000,25101.000000,60046.000000
30824.000000,17616.000000,25126.000000,60026.000000
30822.000000,17694.000000,25089.000000,60085.000000
30832.000000,17652.000000,25119.000000,60022.000000
30809.000000,17643.000000,25098.000000,60031.000000
30804.000000,17659.000000,25075.000000,60031.000000
30819.000000,17680.000000,25096.000000,60074.000000
30778.000000,17648.000000,25094.000000,60048.000000
30770.000000,17638.000000,25067.000000,60074.000000
30795.000000,17612.000000,25055.000000,60049.000000
