660nm,730nm,850nm,940nm
24233.000000,15293.000000,20928.000000,56248.000000
24256.000000,15340.000000,21016.000000,56294.000000
24322.000000,15360.000000,21048.000000,56331.000000
24392.000000,15412.000000,21087.000000,56364.000000
24379.000000,15490.000000,21177.000000,56413.000000
24562.000000,15575.000000,21279.000000,56445.000000
24579.000000,15564.000000,21320.000000,56488.000000
24598.000000,15604.000000,21336.000000,56513.000000
24582.000000,15586.000000,21374.000000,56514.000000
24637.000000,15592.000000,21348.000000,56523.000000
24611.000000,15612.000000,21389.000000,56506.000000
24596.000000,15603.000000,21386.000000,56520.000000
24586.000000,15588.000000,21380.000000,56506.000000
24615.000000,15610.000000,21351.000000,56487.000000
24608.000000,15569.000000,21355.000000,56488.000000
24583.000000,15600.000000,21331.000000,56501.000000
24558.000000,15572.000000,21356.000000,56467.000000
24592.000000,15569.000000,21330.000000,56453.000000
24606.000000,15589.000000,21310.000000,56487.000000
24551.000000,15557.000000,21309.000000,56484.000000
24599.000000,15560.000000,21295.000000,56463.000000
24560.000000,15536.000000,21263.000000,56478.000000
24570.000000,15524.000000,21277.000000,56475.000000
24500.000000,15540.000000,21224.000000,56428.000000
24568.000000,15544.000000,21233.000000,56413.000000
24547.000000,15535.000000,21209.000000,56406.000000
24550.000000,15513.000000,21218.000000,56436.000000
24480.000000,15522.000000,21199.000000,56400.000000
24503.000000,15505.000000,21194.000000,56392.000000
24485.000000,15468.000000,21178.000000,56410.000000
24489.000000,15513.000000,21174.000000,56391.000000
24441.000000,15476.000000,21191.000000,56379.000000
24477.000000,15485.000000,21147.000000,56398.000000
24432.000000,15458.000000,21169.000000,56408.000000
24458.000000,15439.000000,21126.000000,56336.000000
24424.000000,15475.000000,21148.000000,56366.000000
24417.000000,15462.000000,21093.000000,56355.000000
24426.000000,15426.000000,21120.000000,56322.000000
24397.000000,15412.000000,21080.000000,56396.000000
24410.000000,15431.000000,21085.000000,56324.000000
24429.000000,15426.000000,21078.000000,56340.000000
24406.000000,15387.000000,21075.000000,56320.000000
24401.000000,15447.000000,21067.000000,56304.000000
24382.000000,15393.000000,21040.000000,56293.000000
24385.000000,15419.000000,21059.000000,56299.000000
24341.000000,15443.000000,21030.000000,56328.000000
24408.000000,15380.000000,21030.000000,56303.000000
24315.000000,15364.000000,21008.000000,56287.000000
24318.000000,15372.000000,21000.000000,56273.000000
24322.000000,15375.000000,21000.000000,56287.000000
24331.000000,15379.000000,20975.000000,56265.000000
24321.000000,15331.000000,20944.000000,56252.000000
24293.000000,15322.000000,20946.000000,56286.000000
24313.000000,15350.000000,20923.000000,56246.000000
24316.000000,15334.000000,20965.000000,56242.000000
24280.000000,15288.000000,20902.000000,56241.000000
24284.000000,15336.000000,20868.000000,56276.000000
24303.000000,15312.000000,20889.000000,56230.000000
24287.000000,15338.000000,20887.000000,56226.000000
24289.000000,15292.000000,20913.000000,56233.000000
24279.000000,15302.000000,20864.000000,56180.000000
24260.000000,15325.000000,20864.000000,56234.000000
24284.000000,15260.000000,20853.000000,56224.000000
24275.000000,15310.000000,20829.000000,56180.000000
24261.000000,15289.000000,20823.000000,56188.000000
24254.000000,15271.000000,20815.000000,56158.000000
24212.000000,15281.000000,20786.000000,56185.000000
24213.000000,15205.000000,20762.000000,56144.000000
24208.000000,15244.000000,20741.000000,56148.000000
24191.000000,15241.000000,20761.000000,56139.000000
24214.000000,15205.000000,20728.000000,56153.000000
24160.000000,15206.000000,20759.000000,56109.000000
24198.000000,15215.000000,20748.000000,56129.000000
24205.000000,15201.000000,20722.000000,56146.000000
24165.000000,15209.000000,20721.000000,56114.000000
24148.000000,15207.000000,20727.000000,56097.000000
24173.000000,15191.000000,20703.000000,56126.000000
24201.000000,15170.000000,20704.000000,56118.000000
24161.000000,15176.000000,20709.000000,56101.000000
24130.000000,15169.000000,20677.000000,56102.000000
24137.000000,15169.000000,20670.000000,56115.000000
24122.000000,15158.000000,20655.000000,56108.000000
24070.000000,15154.000000,20674.000000,56113.000000
24127.000000,15167.000000,20633.000000,56049.000000
24103.000000,15133.000000,20588.000000,56031.000000
24067.000000,15156.000000,20579.000000,56062.000000
24109.000000,15134.000000,20566.000000,56037.000000
24048.000000,15131.000000,20561.000000,56057.000000
24091.000000,15123.000000,20569.000000,56084.000000
24042.000000,15103.000000,20557.000000,55995.000000
24034.000000,15124.000000,20542.000000,56072.000000
24116.000000,15099.000000,20539.000000,56031.000000
24088.000000,15081.000000,20555.000000,56002.000000
24057.000000,15087.000000,20574.000000,56012.000000
24032.000000,15084.000000,20527.000000,56020.000000
24053.000000,15096.000000,20533.000000,55982.000000
24069.000000,15081.000000,20508.000000,56019.000000
24058.000000,15050.000000,20542.000000,56002.000000
24054.000000,15074.000000,20504.000000,56005.000000
24041.000000,15088.000000,20497.000000,55992.000000
24021.000000,15075.000000,20523.000000,55992.000000
23998.000000,15101.000000,20501.000000,56015.000000
24029.000000,15056.000000,20486.000000,55966.000000
24080.000000,15063.000000,20479.000000,55994.000000
24000.000000,15068.000000,20507.000000,56032.000000
24005.000000,15089.000000,20487.000000,56014.000000
24035.000000,15065.000000,20524.000000,55989.000000
24027.000000,15043.000000,20530.000000,56017.000000
24001.000000,15067.000000,20479.000000,55976.000000
24013.000000,15059.000000,20493.000000,55988.000000
24015.000000,15091.000000,20516.000000,56010.000000
23993.000000,15042.000000,20491.000000,56001.000000
24005.000000,15040.000000,20479.000000,56004.000000
23985.000000,15034.000000,20456.000000,55991.000000
23976.000000,15021.000000,20486.000000,55977.000000
23952.000000,15013.000000,20455.000000,55942.000000
23931.000000,15000.000000,20402.000000,55944.000000
23936.000000,15017.000000,20399.000000,55966.000000
23935.000000,14972.000000,20389.000000,55941.000000
23888.000000,14983.000000,20385.000000,55948.000000
23897.000000,15006.000000,20432.000000,55957.000000
23874.000000,14995.000000,20415.000000,55941.000000
23888.000000,15019.000000,20387.000000,55996.000000
23914.000000,14993.000000,20438.000000,55947.000000
23934.000000,14987.000000,20430.000000,55966.000000
23947.000000,14985.000000,20456.000000,56007.000000
23948.000000,15035.000000,20463.000000,55976.000000
23931.000000,15046.000000,20472.000000,55967.000000
23928.000000,15040.000000,20500.000000,55995.000000
23969.000000,15066.000000,20527.000000,56057.000000
24006.000000,15074.000000,20569.000000,56018.000000
24019.000000,15036.000000,20553.000000,56074.000000
24050.000000,15108.000000,20603.000000,56040.000000
24036.000000,15107.000000,20613.000000,56052.000000
24097.000000,15129.000000,20669.000000,56082.000000
24094.000000,15134.000000,20667.000000,56118.000000
24127.000000,15158.000000,20727.000000,56150.000000
24118.000000,15143.000000,20731.000000,56147.000000
24158.000000,15151.000000,20748.000000,56122.000000
24167.000000,15185.000000,20724.000000,56154.000000
24190.000000,15229.000000,20796.000000,56205.000000
24176.000000,15207.000000,20806.000000,56180.000000
24201.000000,15236.000000,20826.000000,56204.000000
24225.000000,15246.000000,20878.000000,56244.000000
24253.000000,15288.000000,20910.000000,56273.000000
24289.000000,15299.000000,20975.000000,56307.000000
24287.000000,15364.000000,21005.000000,56359.000000
24377.000000,15349.000000,21045.000000,56375.000000
24403.000000,15386.000000,21143.000000,56377.000000
24423.000000,15432.000000,21165.000000,56438.000000
24527.000000,15433.000000,21223.000000,56443.000000
24609.000000,15573.000000,21394.000000,56573.000000
24666.000000,15626.000000,21452.000000,56593.000000
24724.000000,15661.000000,21529.000000,56627.000000
24739.000000,15662.000000,21554.000000,56654.000000
24807.000000,15696.000000,21621.000000,56676.000000
24840.000000,15757.000000,21624.000000,56664.000000
24846.000000,15714.000000,21676.000000,56713.000000
24828.000000,15742.000000,21661.000000,56697.000000
24878.000000,15715.000000,21697.000000,56719.000000
24848.000000,15733.000000,21669.000000,56713.000000
24861.000000,15783.000000,21689.000000,56723.000000
24848.000000,15725.000000,21667.000000,56682.000000
24867.000000,15744.000000,21640.000000,56736.000000
24852.000000,15730.000000,21676.000000,56683.000000
24836.000000,15754.000000,21660.000000,56660.000000
24827.000000,15692.000000,21690.000000,56677.000000
24796.000000,15722.000000,21675.000000,56714.000000
24855.000000,15704.000000,21639.000000,56668.000000
24797.000000,15670.000000,21601.000000,56672.000000
24790.000000,15704.000000,21587.000000,56642.000000
24781.000000,15695.000000,21603.000000,56653.000000
24733.000000,15697.000000,21614.000000,56630.000000
24760.000000,15667.000000,21568.000000,56619.000000
24718.000000,15650.000000,21604.000000,56615.000000
24702.000000,15615.000000,21562.000000,56606.000000
24711.000000,15662.000000,21548.000000,56630.000000
24673.000000,15608.000000,21555.000000,56618.000000
24681.000000,15617.000000,21541.000000,56615.000000
24712.000000,15639.000000,21549.000000,56616.000000
24709.000000,15635.000000,21510.000000,56580.000000
24633.000000,15626.000000,21496.000000,56643.000000
24663.000000,15628.000000,21528.000000,56600.000000
24631.000000,15655.000000,21511.000000,56595.000000
24629.000000,15622.000000,21506.000000,56559.000000
24601.000000,15602.000000,21488.000000,56578.000000
24615.000000,15566.000000,21485.000000,56561.000000
24598.000000,15573.000000,21499.000000,56555.000000
24617.000000,15609.000000,21434.000000,56567.000000
24589.000000,15591.000000,21473.000000,56589.000000
24625.000000,15587.000000,21476.000000,56561.000000
24585.000000,15535.000000,21429.000000,56559.000000
24603.000000,15593.000000,21476.000000,56555.000000
24526.000000,15584.000000,21433.000000,56564.000000
24539.000000,15517.000000,21430.000000,56546.000000
24586.000000,15552.000000,21446.000000,56521.000000
24506.000000,15556.000000,21409.000000,56523.000000
24541.000000,15546.000000,21425.000000,56537.000000
24535.000000,15526.000000,21424.000000,56504.000000
24530.000000,15556.000000,21406.000000,56544.000000
24533.000000,15545.000000,21361.000000,56528.000000
24510.000000,15539.000000,21388.000000,56503.000000
24491.000000,15531.000000,21346.000000,56521.000000
24465.000000,15531.000000,21322.000000,56498.000000
24463.000000,15515.000000,21378.000000,56486.000000
24433.000000,15460.000000,21334.000000,56525.000000
24442.000000,15475.000000,21331.000000,56486.000000
24428.000000,15456.000000,21312.000000,56448.000000
24408.000000,15474.000000,21273.000000,56493.000000
24434.000000,15462.000000,21317.000000,56463.000000
24447.000000,15482.000000,21298.000000,56435.000000
24370.000000,15489.000000,21271.000000,56447.000000
24444.000000,15462.000000,21258.000000,56449.000000
24391.000000,15450.000000,21304.000000,56414.000000
24377.000000,15456.000000,21270.000000,56440.000000
24390.000000,15464.000000,21272.000000,56431.000000
24372.000000,15419.000000,21240.000000,56425.000000
24392.000000,15454.000000,21225.000000,56417.000000
24369.000000,15423.000000,21211.000000,56415.000000
24371.000000,15429.000000,21204.000000,56421.000000
24332.000000,15412.000000,21211.000000,56406.000000
24371.000000,15423.000000,21169.000000,56409.000000
24330.000000,15383.000000,21199.000000,56363.000000
24337.000000,15390.000000,21169.000000,56375.000000
24303.000000,15371.000000,21145.000000,56400.000000
24295.000000,15346.000000,21156.000000,56379.000000
24270.000000,15381.000000,21136.000000,56353.000000
24260.000000,15337.000000,21118.000000,56366.000000
24326.000000,15357.000000,21123.000000,56348.000000
24288.000000,15360.000000,21121.000000,56355.000000
24258.000000,15405.000000,21069.000000,56322.000000
24280.000000,15343.000000,21063.000000,56330.000000
24292.000000,15324.000000,21135.000000,56339.000000
24237.000000,15357.000000,21069.000000,56325.000000
24241.000000,15316.000000,21033.000000,56330.000000
24274.000000,15303.000000,21046.000000,56346.000000
24195.000000,15326.000000,21025.000000,56299.000000
24242.000000,15317.000000,21045.000000,56312.000000
24217.000000,15266.000000,21014.000000,56318.000000
24240.000000,15286.000000,21021.000000,56319.000000
24212.000000,15250.000000,20989.000000,56281.000000
24215.000000,15294.000000,21008.000000,56302.000000
24192.000000,15285.000000,21021.000000,56323.000000
24214.000000,15289.000000,20994.000000,56330.000000
24204.000000,15235.000000,21010.000000,56300.000000
24169.000000,15293.000000,20977.000000,56309.000000
24193.000000,15280.000000,21019.000000,56275.000000
24172.000000,15250.000000,20964.000000,56294.000000
24189.000000,15255.000000,20969.000000,56257.000000
24166.000000,15231.000000,20966.000000,56278.000000
24208.000000,15268.000000,20963.000000,56265.000000
24169.000000,15255.000000,20976.000000,56265.000000
24178.000000,15266.000000,20965.000000,56294.000000
24173.000000,15244.000000,20940.000000,56282.000000
24198.000000,15250.000000,20984.000000,56253.000000
24163.000000,15240.000000,20960.000000,56282.000000
24161.000000,15215.000000,20964.000000,56286.000000
24178.000000,15228.000000,20958.000000,56243.000000
24102.000000,15201.000000,20958.000000,56239.000000
24103.000000,15197.000000,20900.000000,56224.000000
24111.000000,15185.000000,20899.000000,56215.000000
24075.000000,15147.000000,20861.000000,56225.000000
24078.000000,15144.000000,20899.000000,56209.000000
24033.000000,15183.000000,20860.000000,56192.000000
24072.000000,15135.000000,20838.000000,56195.000000
24049.000000,15122.000000,20826.000000,56221.000000
24053.000000,15144.000000,20796.000000,56198.000000
23991.000000,15173.000000,20862.000000,56212.000000
24045.000000,15130.000000,20860.000000,56216.000000
24069.000000,15136.000000,20838.000000,56178.000000
23994.000000,15142.000000,20845.000000,56212.000000
24066.000000,15169.000000,20843.000000,56199.000000
24035.000000,15118.000000,20870.000000,56215.000000
24074.000000,15167.000000,20885.000000,56209.000000
24051.000000,15135.000000,20874.000000,56197.000000
24061.000000,15208.000000,20944.000000,56272.000000
24086.000000,15191.000000,20920.000000,56263.000000
24079.000000,15221.000000,20927.000000,56227.000000
24101.000000,15201.000000,20920.000000,56250.000000
24118.000000,15219.000000,20974.000000,56287.000000
24103.000000,15210.000000,21005.000000,56302.000000
24153.000000,15233.000000,21011.000000,56308.000000
24168.000000,15211.000000,21019.000000,56319.000000
24175.000000,15292.000000,21065.000000,56300.000000
24182.000000,15263.000000,21117.000000,56366.000000
24206.000000,15341.000000,21113.000000,56337.000000
24201.000000,15283.000000,21140.000000,56374.000000
24223.000000,15324.000000,21127.000000,56421.000000
24233.000000,15326.000000,21237.000000,56417.000000
24294.000000,15382.000000,21222.000000,56460.000000
24312.000000,15365.000000,21292.000000,56461.000000
24324.000000,15424.000000,21310.000000,56473.000000
24487.000000,15515.000000,21541.000000,56592.000000
24540.000000,15551.000000,21514.000000,56632.000000
24609.000000,15596.000000,21618.000000,56627.000000
24609.000000,15614.000000,21650.000000,56687.000000
24693.000000,15690.000000,21711.000000,56694.000000
24743.000000,15717.000000,21800.000000,56733.000000
24745.000000,15716.000000,21797.000000,56758.000000
24786.000000,15740.000000,21834.000000,56792.000000
24835.000000,15751.000000,21869.000000,56785.000000
24819.000000,15768.000000,21869.000000,56798.000000
24826.000000,15774.000000,21874.000000,56779.000000
24797.000000,15765.000000,21853.000000,56787.000000
24810.000000,15762.000000,21845.000000,56778.000000
24810.000000,15742.000000,21841.000000,56806.000000
24823.000000,15759.000000,21842.000000,56773.000000
24843.000000,15766.000000,21863.000000,56747.000000
24794.000000,15733.000000,21853.000000,56770.000000
24824.000000,15720.000000,21806.000000,56752.000000
24817.000000,15719.000000,21833.000000,56778.000000
24812.000000,15732.000000,21841.000000,56766.000000
24815.000000,15740.000000,21781.000000,56772.000000
24841.000000,15709.000000,21793.000000,56743.000000
24810.000000,15705.000000,21823.000000,56762.000000
24803.000000,15756.000000,21818.000000,56772.000000
24825.000000,15709.000000,21785.000000,56740.000000
24773.000000,15733.000000,21803.000000,56739.000000
24777.000000,15701.000000,21719.000000,56753.000000
24798.000000,15698.000000,21797.000000,56720.000000
24725.000000,15701.000000,21728.000000,56716.000000
24741.000000,15693.000000,21750.000000,56703.000000
24750.000000,15684.000000,21781.000000,56718.000000
24747.000000,15700.000000,21721.000000,56717.000000
24772.000000,15673.000000,21736.000000,56710.000000
24737.000000,15695.000000,21701.000000,56717.000000
24702.000000,15703.000000,21732.000000,56706.000000
24683.000000,15682.000000,21725.000000,56690.000000
24734.000000,15703.000000,21725.000000,56674.000000
24695.000000,15674.000000,21662.000000,56687.000000
24707.000000,15651.000000,21681.000000,56691.000000
24716.000000,15667.000000,21685.000000,56659.000000
24692.000000,15625.000000,21653.000000,56685.000000
24675.000000,15635.000000,21636.000000,56682.000000
24701.000000,15674.000000,21674.000000,56680.000000
24706.000000,15643.000000,21642.000000,56625.000000
24677.000000,15631.000000,21670.000000,56644.000000
24657.000000,15617.000000,21614.000000,56656.000000
24647.000000,15596.000000,21609.000000,56648.000000
24582.000000,15582.000000,21588.000000,56649.000000
24600.000000,15603.000000,21576.000000,56657.000000
24610.000000,15623.000000,21568.000000,56634.000000
24597.000000,15590.000000,21559.000000,56617.000000
24580.000000,15578.000000,21517.000000,56565.000000
24541.000000,15582.000000,21551.000000,56616.000000
24588.000000,15563.000000,21505.000000,56564.000000
24576.000000,15549.000000,21540.000000,56592.000000
24596.000000,15596.000000,21532.000000,56607.000000
24551.000000,15556.000000,21510.000000,56573.000000
24548.000000,15576.000000,21517.000000,56590.000000
24548.000000,15553.000000,21499.000000,56589.000000
24541.000000,15580.000000,21518.000000,56581.000000
24536.000000,15572.000000,21504.000000,56572.000000
24515.000000,15551.000000,21479.000000,56529.000000
24563.000000,15553.000000,21451.000000,56552.000000
24497.000000,15506.000000,21430.000000,56541.000000
24496.000000,15536.000000,21418.000000,56540.000000
24518.000000,15481.000000,21466.000000,56552.000000
24482.000000,15493.000000,21410.000000,56548.000000
24476.000000,15528.000000,21403.000000,56527.000000
24476.000000,15513.000000,21402.000000,56495.000000
24490.000000,15488.000000,21384.000000,56511.000000
24496.000000,15473.000000,21358.000000,56523.000000
24470.000000,15497.000000,21350.000000,56523.000000
24409.000000,15479.000000,21360.000000,56510.000000
24453.000000,15488.000000,21349.000000,56499.000000
24382.000000,15423.000000,21300.000000,56463.000000
24412.000000,15469.000000,21280.000000,56473.000000
24389.000000,15418.000000,21290.000000,56472.000000
24392.000000,15450.000000,21272.000000,56403.000000
24389.000000,15440.000000,21285.000000,56426.000000
24376.000000,15433.000000,21199.000000,56427.000000
24378.000000,15373.000000,21227.000000,56437.000000
24336.000000,15435.000000,21216.000000,56429.000000
24379.000000,15407.000000,21219.000000,56386.000000
24333.000000,15352.000000,21203.000000,56419.000000
24315.000000,15385.000000,21186.000000,56415.000000
24306.000000,15304.000000,21175.000000,56401.000000
24244.000000,15343.000000,21175.000000,56390.000000
24259.000000,15287.000000,21143.000000,56343.000000
24302.000000,15370.000000,21117.000000,56336.000000
24243.000000,15316.000000,21087.000000,56367.000000
24256.000000,15305.000000,21073.000000,56353.000000
24242.000000,15311.000000,21036.000000,56332.000000
24228.000000,15249.000000,21008.000000,56303.000000
24233.000000,15300.000000,21081.000000,56319.000000
24222.000000,15244.000000,21027.000000,56293.000000
24230.000000,15244.000000,21002.000000,56311.000000
24213.000000,15217.000000,21020.000000,56299.000000
24228.000000,15237.000000,21035.000000,56289.000000
24218.000000,15242.000000,20998.000000,56291.000000
24217.000000,15240.000000,20986.000000,56278.000000
24198.000000,15228.000000,21016.000000,56306.000000
24232.000000,15246.000000,20969.000000,56263.000000
24211.000000,15226.000000,20982.000000,56291.000000
24183.000000,15245.000000,20986.000000,56270.000000
24185.000000,15224.000000,20998.000000,56292.000000
24187.000000,15220.000000,20972.000000,56279.000000
24199.000000,15239.000000,20952.000000,56278.000000
24189.000000,15226.000000,20958.000000,56284.000000
24189.000000,15161.000000,20921.000000,56245.000000
24128.000000,15230.000000,20916.000000,56237.000000
24088.000000,15145.000000,20838.000000,56185.000000
24112.000000,15155.000000,20824.000000,56208.000000
24107.000000,15175.000000,20798.000000,56205.000000
24073.000000,15165.000000,20776.000000,56192.000000
24054.000000,15099.000000,20781.000000,56172.000000
24060.000000,15146.000000,20817.000000,56150.000000
24061.000000,15110.000000,20770.000000,56154.000000
24065.000000,15108.000000,20741.000000,56145.000000
24075.000000,15124.000000,20733.000000,56159.000000
24093.000000,15129.000000,20761.000000,56168.000000
24084.000000,15095.000000,20760.000000,56156.000000
24095.000000,15118.000000,20797.000000,56196.000000
24076.000000,15133.000000,20764.000000,56187.000000
24093.000000,15086.000000,20798.000000,56168.000000
24083.000000,15142.000000,20799.000000,56202.000000
24118.000000,15158.000000,20792.000000,56194.000000
24124.000000,15123.000000,20766.000000,56175.000000
24130.000000,15110.000000,20816.000000,56219.000000
24119.000000,15160.000000,20816.000000,56229.000000
24119.000000,15160.000000,20840.000000,56217.000000
24074.000000,15126.000000,20862.000000,56224.000000
24123.000000,15147.000000,20897.000000,56237.000000
24150.000000,15164.000000,20883.000000,56235.000000
24106.000000,15197.000000,20935.000000,56278.000000
24135.000000,15170.000000,20893.000000,56263.000000
24133.000000,15206.000000,20907.000000,56251.000000
24151.000000,15197.000000,20940.000000,56277.000000
24168.000000,15212.000000,20962.000000,56307.000000
24189.000000,15193.000000,20971.000000,56287.000000
24220.000000,15260.000000,21031.000000,56350.000000
24270.000000,15267.000000,21063.000000,56363.000000
24262.000000,15280.000000,21086.000000,56351.000000
24314.000000,15316.000000,21180.000000,56427.000000
24320.000000,15383.000000,21169.000000,56456.000000
24501.000000,15452.000000,21343.000000,56551.000000
24496.000000,15511.000000,21419.000000,56546.000000
24589.000000,15538.000000,21516.000000,56586.000000
24590.000000,15599.000000,21528.000000,56603.000000
24677.000000,15576.000000,21580.000000,56637.000000
24678.000000,15656.000000,21625.000000,56673.000000
24732.000000,15625.000000,21670.000000,56677.000000
24706.000000,15676.000000,21664.000000,56704.000000
24699.000000,15666.000000,21671.000000,56687.000000
24755.000000,15692.000000,21668.000000,56717.000000
24766.000000,15649.000000,21677.000000,56699.000000
24762.000000,15647.000000,21686.000000,56737.000000
24768.000000,15672.000000,21658.000000,56685.000000
24746.000000,15632.000000,21613.000000,56671.000000
24770.000000,15646.000000,21663.000000,56694.000000
24746.000000,15663.000000,21627.000000,56669.000000
24719.000000,15633.000000,21649.000000,56656.000000
24730.000000,15616.000000,21646.000000,56652.000000
24685.000000,15651.000000,21601.000000,56670.000000
24742.000000,15618.000000,21583.000000,56636.000000
24679.000000,15593.000000,21581.000000,56639.000000
24684.000000,15621.000000,21566.000000,56664.000000
24684.000000,15631.000000,21530.000000,56612.000000
24690.000000,15605.000000,21570.000000,56604.000000
24625.000000,15601.000000,21503.000000,56631.000000
24634.000000,15553.000000,21473.000000,56639.000000
24621.000000,15582.000000,21498.000000,56597.000000
24611.000000,15557.000000,21455.000000,56614.000000
24572.000000,15573.000000,21460.000000,56592.000000
24626.000000,15548.000000,21466.000000,56575.000000
24583.000000,15549.000000,21476.000000,56585.000000
24598.000000,15550.000000,21411.000000,56541.000000
24609.000000,15518.000000,21411.000000,56569.000000
24569.000000,15539.000000,21397.000000,56574.000000
24608.000000,15519.000000,21422.000000,56558.000000
24584.000000,15554.000000,21398.000000,56517.000000
24577.000000,15518.000000,21377.000000,56537.000000
24583.000000,15502.000000,21363.000000,56550.000000
24589.000000,15542.000000,21382.000000,56520.000000
24550.000000,15505.000000,21367.000000,56523.000000
24542.000000,15527.000000,21356.000000,56502.000000
24560.000000,15486.000000,21352.000000,56511.000000
24529.000000,15473.000000,21290.000000,56480.000000
24505.000000,15468.000000,21274.000000,56496.000000
24497.000000,15451.000000,21214.000000,56464.000000
24495.000000,15437.000000,21255.000000,56457.000000
24478.000000,15427.000000,21203.000000,56446.000000
24458.000000,15411.000000,21193.000000,56429.000000
24480.000000,15428.000000,21205.000000,56471.000000
24454.000000,15432.000000,21154.000000,56441.000000
24466.000000,15407.000000,21183.000000,56420.000000
24459.000000,15366.000000,21156.000000,56385.000000
24475.000000,15380.000000,21179.000000,56369.000000
24431.000000,15402.000000,21117.000000,56378.000000
24404.000000,15347.000000,21131.000000,56388.000000
24399.000000,15316.000000,21081.000000,56400.000000
24417.000000,15317.000000,21080.000000,56359.000000
24343.000000,15349.000000,21083.000000,56381.000000
24359.000000,15343.000000,21071.000000,56357.000000
24375.000000,15290.000000,21052.000000,56356.000000
24344.000000,15335.000000,21047.000000,56369.000000
24368.000000,15308.000000,21031.000000,56339.000000
24290.000000,15298.000000,21000.000000,56353.000000
24333.000000,15286.000000,21025.000000,56329.000000
24289.000000,15313.000000,20987.000000,56305.000000
24295.000000,15270.000000,20960.000000,56298.000000
24328.000000,15264.000000,20992.000000,56331.000000
24302.000000,15277.000000,20952.000000,56300.000000
24301.000000,15259.000000,20955.000000,56297.000000
24271.000000,15243.000000,20922.000000,56294.000000
24230.000000,15257.000000,20904.000000,56293.000000
24267.000000,15254.000000,20907.000000,56283.000000
24262.000000,15214.000000,20894.000000,56264.000000
24246.000000,15199.000000,20874.000000,56245.000000
24249.000000,15240.000000,20876.000000,56225.000000
24191.000000,15243.000000,20856.000000,56253.000000
24263.000000,15201.000000,20808.000000,56248.000000
24213.000000,15197.000000,20825.000000,56241.000000
24223.000000,15171.000000,20817.000000,56240.000000
24249.000000,15182.000000,20806.000000,56227.000000
24207.000000,15170.000000,20801.000000,56217.000000
24168.000000,15182.000000,20805.000000,56227.000000
24217.000000,15164.000000,20811.000000,56201.000000
24221.000000,15164.000000,20793.000000,56203.000000
24179.000000,15139.000000,20760.000000,56196.000000
24175.000000,15130.000000,20781.000000,56170.000000
24175.000000,15142.000000,20779.000000,56175.000000
24180.000000,15127.000000,20717.000000,56179.000000
24172.000000,15127.000000,20741.000000,56195.000000
24193.000000,15075.000000,20678.000000,56141.000000
24150.000000,15058.000000,20689.000000,56133.000000
24130.000000,15129.000000,20692.000000,56140.000000
24142.000000,15091.000000,20622.000000,56123.000000
24117.000000,15077.000000,20659.000000,56159.000000
24130.000000,15086.000000,20653.000000,56114.000000
24118.000000,15100.000000,20630.000000,56117.000000
24118.000000,15060.000000,20614.000000,56134.000000
24099.000000,15074.000000,20640.000000,56106.000000
24102.000000,15085.000000,20628.000000,56088.000000
24111.000000,15083.000000,20656.000000,56111.000000
24083.000000,15078.000000,20598.000000,56107.000000
24102.000000,15045.000000,20644.000000,56097.000000
24086.000000,15030.000000,20580.000000,56087.000000
24069.000000,15062.000000,20591.000000,56125.000000
24089.000000,15020.000000,20594.000000,56105.000000
24077.000000,15030.000000,20565.000000,56077.000000
24055.000000,15090.000000,20607.000000,56113.000000
24061.000000,15027.000000,20591.000000,56059.000000
24042.000000,15033.000000,20558.000000,56067.000000
24039.000000,15016.000000,20592.000000,56093.000000
24047.000000,15022.000000,20560.000000,56069.000000
24039.000000,15037.000000,20578.000000,56089.000000
24046.000000,15016.000000,20571.000000,56061.000000
24038.000000,15010.000000,20573.000000,56090.000000
23994.000000,14985.000000,20547.000000,56022.000000
23952.000000,14975.000000,20506.000000,56060.000000
23928.000000,14984.000000,20473.000000,56010.000000
23950.000000,14950.000000,20462.000000,55994.000000
23934.000000,14991.000000,20437.000000,55990.000000
23923.000000,14940.000000,20454.000000,55940.000000
23899.000000,14951.000000,20475.000000,55975.000000
23865.000000,14903.000000,20373.000000,55978.000000
23874.000000,14925.000000,20420.000000,55969.000000
23851.000000,14933.000000,20388.000000,55990.000000
23861.000000,14923.000000,20391.000000,55976.000000
23870.000000,14899.000000,20390.000000,55931.000000
23831.000000,14877.000000,20377.000000,55975.000000
23865.000000,14935.000000,20370.000000,55979.000000
23845.000000,14882.000000,20414.000000,55948.000000
23862.000000,14955.000000,20411.000000,56010.000000
23864.000000,14922.000000,20433.000000,56011.000000
23853.000000,14904.000000,20417.000000,56014.000000
23908.000000,14901.000000,20438.000000,56022.000000
23869.000000,14970.000000,20468.000000,56007.000000
23885.000000,14968.000000,20470.000000,56027.000000
23906.000000,14945.000000,20498.000000,55990.000000
23925.000000,14963.000000,20529.000000,56002.000000
23915.000000,14963.000000,20500.000000,56059.000000
23951.000000,14974.000000,20564.000000,56062.000000
23962.000000,14983.000000,20578.000000,56077.000000
23968.000000,15001.000000,20579.000000,56060.000000
23937.000000,14968.000000,20604.000000,56055.000000
23975.000000,15004.000000,20601.000000,56124.000000
24007.000000,15042.000000,20669.000000,56130.000000
24007.000000,15052.000000,20657.000000,56157.000000
24019.000000,15078.000000,20704.000000,56161.000000
24069.000000,15118.000000,20707.000000,56195.000000
24062.000000,15090.000000,20749.000000,56203.000000
24096.000000,15112.000000,20807.000000,56201.000000
24158.000000,15139.000000,20868.000000,56229.000000
24192.000000,15142.000000,20915.000000,56276.000000
24205.000000,15180.000000,20931.000000,56276.000000
24221.000000,15228.000000,21018.000000,56344.000000
24270.000000,15304.000000,21031.000000,56343.000000
24339.000000,15313.000000,21086.000000,56372.000000
24368.000000,15349.000000,21147.000000,56416.000000
24484.000000,15465.000000,21294.000000,56510.000000
24511.000000,15488.000000,21283.000000,56523.000000
24536.000000,15546.000000,21373.000000,56544.000000
24572.000000,15519.000000,21377.000000,56555.000000
24595.000000,15497.000000,21442.000000,56537.000000
24567.000000,15494.000000,21348.000000,56590.000000
24594.000000,15531.000000,21374.000000,56563.000000
24573.000000,15525.000000,21378.000000,56518.000000
24555.000000,15510.000000,21342.000000,56528.000000
24586.000000,15515.000000,21352.000000,56540.000000
24568.000000,15536.000000,21316.000000,56537.000000
24568.000000,15480.000000,21329.000000,56536.000000
24572.000000,15498.000000,21337.000000,56510.000000
24581.000000,15510.000000,21285.000000,56505.000000
24547.000000,15455.000000,21290.000000,56556.000000
24560.000000,15438.000000,21267.000000,56495.000000
24552.000000,15460.000000,21261.000000,56484.000000
24485.000000,15473.000000,21255.000000,56496.000000
24508.000000,15378.000000,21242.000000,56468.000000
24474.000000,15401.000000,21213.000000,56421.000000
24493.000000,15426.000000,21187.000000,56447.000000
24463.000000,15389.000000,21181.000000,56446.000000
24484.000000,15382.000000,21200.000000,56419.000000
24451.000000,15401.000000,21186.000000,56462.000000
24459.000000,15380.000000,21184.000000,56404.000000
24459.000000,15405.000000,21161.000000,56440.000000
24449.000000,15365.000000,21158.000000,56401.000000
24463.000000,15401.000000,21138.000000,56425.000000
24432.000000,15338.000000,21099.000000,56393.000000
24446.000000,15366.000000,21117.000000,56411.000000
24445.000000,15356.000000,21135.000000,56405.000000
24444.000000,15309.000000,21102.000000,56428.000000
24406.000000,15325.000000,21082.000000,56401.000000
24465.000000,15351.000000,21107.000000,56376.000000
24422.000000,15359.000000,21069.000000,56413.000000
24426.000000,15321.000000,21067.000000,56370.000000
24397.000000,15372.000000,21081.000000,56376.000000
24355.000000,15301.000000,21084.000000,56382.000000
24394.000000,15300.000000,21048.000000,56382.000000
24375.000000,15300.000000,21064.000000,56342.000000
24397.000000,15333.000000,21012.000000,56347.000000
24352.000000,15308.000000,21026.000000,56326.000000
24341.000000,15267.000000,20985.000000,56342.000000
24330.000000,15267.000000,20991.000000,56346.000000
24381.000000,15257.000000,20978.000000,56337.000000
24362.000000,15286.000000,20982.000000,56312.000000
24351.000000,15269.000000,20985.000000,56328.000000
24323.000000,15289.000000,20947.000000,56330.000000
24310.000000,15274.000000,20955.000000,56295.000000
24272.000000,15226.000000,20931.000000,56296.000000
24314.000000,15237.000000,20927.000000,56301.000000
24296.000000,15240.000000,20933.000000,56261.000000
24285.000000,15215.000000,20857.000000,56286.000000
24303.000000,15206.000000,20867.000000,56267.000000
24274.000000,15195.000000,20881.000000,56276.000000
24256.000000,15195.000000,20853.000000,56287.000000
24265.000000,15190.000000,20820.000000,56255.000000
24246.000000,15188.000000,20797.000000,56240.000000
24211.000000,15194.000000,20844.000000,56231.000000
24247.000000,15172.000000,20802.000000,56217.000000
24237.000000,15181.000000,20794.000000,56257.000000
24198.000000,15193.000000,20797.000000,56244.000000
24203.000000,15186.000000,20822.000000,56235.000000
24232.000000,15120.000000,20772.000000,56189.000000
24204.000000,15165.000000,20756.000000,56197.000000
24225.000000,15136.000000,20775.000000,56209.000000
24243.000000,15151.000000,20775.000000,56204.000000
24224.000000,15138.000000,20739.000000,56204.000000
24198.000000,15117.000000,20772.000000,56203.000000
24191.000000,15137.000000,20736.000000,56181.000000
24208.000000,15168.000000,20739.000000,56195.000000
24192.000000,15155.000000,20745.000000,56188.000000
24184.000000,15136.000000,20713.000000,56198.000000
24228.000000,15108.000000,20737.000000,56167.000000
24185.000000,15128.000000,20720.000000,56157.000000
24188.000000,15100.000000,20711.000000,56156.000000
24184.000000,15121.000000,20686.000000,56155.000000
24169.000000,15153.000000,20689.000000,56167.000000
24145.000000,15140.000000,20677.000000,56162.000000
24148.000000,15127.000000,20671.000000,56145.000000
24140.000000,15118.000000,20674.000000,56171.000000
24172.000000,15083.000000,20677.000000,56143.000000
24157.000000,15049.000000,20650.000000,56138.000000
24108.000000,15103.000000,20673.000000,56128.000000
24146.000000,15092.000000,20621.000000,56126.000000
24145.000000,15062.000000,20617.000000,56149.000000
24116.000000,15065.000000,20625.000000,56086.000000
24082.000000,15057.000000,20589.000000,56104.000000
24075.000000,15022.000000,20594.000000,56113.000000
24067.000000,15048.000000,20582.000000,56083.000000
24063.000000,15078.000000,20567.000000,56063.000000
24031.000000,14996.000000,20565.000000,56090.000000
24059.000000,15013.000000,20573.000000,56079.000000
24071.000000,14991.000000,20583.000000,56065.000000
24006.000000,15017.000000,20518.000000,56081.000000
24031.000000,15014.000000,20540.000000,56054.000000
24007.000000,15058.000000,20530.000000,56081.000000
24007.000000,14997.000000,20556.000000,56049.000000
24007.000000,15009.000000,20500.000000,56075.000000
23983.000000,15003.000000,20497.000000,56084.000000
24041.000000,14997.000000,20498.000000,56035.000000
24019.000000,14993.000000,20507.000000,56032.000000
23992.000000,14971.000000,20507.000000,56034.000000
24012.000000,14993.000000,20506.000000,56072.000000
23981.000000,14984.000000,20489.000000,56039.000000
24007.000000,14982.000000,20455.000000,56042.000000
23972.000000,14963.000000,20496.000000,56078.000000
23990.000000,14947.000000,20470.000000,56073.000000
24001.000000,14980.000000,20488.000000,56022.000000
23963.000000,14936.000000,20423.000000,55966.000000
23990.000000,14951.000000,20429.000000,55998.000000
23849.000000,14933.000000,20390.000000,55976.000000
23907.000000,14885.000000,20349.000000,55961.000000
23861.000000,14916.000000,20326.000000,55952.000000
23870.000000,14912.000000,20319.000000,55934.000000
23845.000000,14911.000000,20365.000000,55952.000000
23871.000000,14870.000000,20322.000000,55972.000000
23862.000000,14869.000000,20362.000000,55991.000000
23857.000000,14893.000000,20333.000000,55972.000000
23871.000000,14878.000000,20354.000000,55965.000000
23832.000000,14890.000000,20368.000000,55979.000000
23855.000000,14888.000000,20412.000000,56009.000000
23873.000000,14919.000000,20389.000000,55988.000000
23870.000000,14947.000000,20379.000000,55978.000000
23869.000000,14933.000000,20412.000000,56036.000000
23943.000000,14939.000000,20437.000000,56023.000000
23944.000000,14943.000000,20450.000000,56019.000000
23952.000000,14970.000000,20481.000000,56064.000000
23956.000000,14942.000000,20469.000000,56032.000000
23985.000000,15009.000000,20498.000000,56085.000000
24006.000000,15022.000000,20570.000000,56066.000000
24004.000000,15003.000000,20607.000000,56131.000000
23991.000000,15007.000000,20600.000000,56085.000000
24026.000000,15003.000000,20607.000000,56120.000000
24024.000000,14999.000000,20663.000000,56111.000000
24063.000000,15003.000000,20680.000000,56124.000000
24032.000000,15072.000000,20671.000000,56132.000000
24047.000000,15085.000000,20713.000000,56174.000000
24085.000000,15059.000000,20715.000000,56188.000000
24106.000000,15087.000000,20770.000000,56216.000000
24146.000000,15134.000000,20814.000000,56266.000000
24181.000000,15133.000000,20821.000000,56231.000000
24213.000000,15166.000000,20870.000000,56306.000000
24206.000000,15202.000000,20884.000000,56316.000000
24346.000000,15300.000000,21110.000000,56422.000000
24392.000000,15313.000000,21118.000000,56442.000000
24451.000000,15370.000000,21208.000000,56433.000000
24512.000000,15400.000000,21262.000000,56502.000000
24495.000000,15487.000000,21283.000000,56528.000000
24673.000000,15549.000000,21431.000000,56606.000000
24654.000000,15552.000000,21524.000000,56605.000000
24708.000000,15558.000000,21515.000000,56628.000000
24712.000000,15602.000000,21515.000000,56671.000000
24712.000000,15610.000000,21503.000000,56654.000000
24698.000000,15560.000000,21511.000000,56631.000000
24673.000000,15588.000000,21494.000000,56639.000000
24711.000000,15566.000000,21495.000000,56622.000000
24713.000000,15578.000000,21495.000000,56645.000000
24671.000000,15582.000000,21479.000000,56629.000000
24723.000000,15551.000000,21490.000000,56614.000000
24669.000000,15552.000000,21455.000000,56596.000000
24687.000000,15515.000000,21413.000000,56615.000000
24618.000000,15522.000000,21396.000000,56577.000000
24656.000000,15557.000000,21438.000000,56588.000000
24641.000000,15496.000000,21364.000000,56583.000000
24604.000000,15526.000000,21362.000000,56563.000000
24584.000000,15491.000000,21371.000000,56569.000000
24598.000000,15522.000000,21361.000000,56548.000000
24596.000000,15493.000000,21335.000000,56572.000000
24564.000000,15514.000000,21298.000000,56571.000000
24540.000000,15458.000000,21320.000000,56545.000000
24578.000000,15481.000000,21309.000000,56502.000000
24597.000000,15429.000000,21293.000000,56530.000000
24574.000000,15449.000000,21290.000000,56517.000000
24548.000000,15503.000000,21287.000000,56547.000000
24567.000000,15465.000000,21230.000000,56520.000000
24559.000000,15416.000000,21246.000000,56476.000000
24560.000000,15413.000000,21267.000000,56477.000000
24550.000000,15422.000000,21219.000000,56494.000000
24560.000000,15406.000000,21225.000000,56473.000000
24540.000000,15428.000000,21193.000000,56497.000000
24533.000000,15420.000000,21163.000000,56492.000000
24511.000000,15387.000000,21153.000000,56472.000000
24515.000000,15380.000000,21165.000000,56449.000000
24500.000000,15353.000000,21154.000000,56438.000000
24509.000000,15410.000000,21156.000000,56451.000000
24476.000000,15336.000000,21102.000000,56462.000000
24484.000000,15373.000000,21111.000000,56438.000000
24478.000000,15388.000000,21078.000000,56406.000000
24460.000000,15392.000000,21047.000000,56430.000000
24472.000000,15375.000000,21086.000000,56408.000000
24432.000000,15334.000000,21075.000000,56392.000000
24475.000000,15348.000000,21057.000000,56376.000000
24434.000000,15311.000000,21070.000000,56395.000000
24399.000000,15318.000000,21018.000000,56377.000000
24418.000000,15283.000000,21065.000000,56374.000000
24410.000000,15316.000000,21011.000000,56362.000000
24406.000000,15295.000000,20988.000000,56330.000000
24378.000000,15314.000000,20997.000000,56348.000000
24381.000000,15258.000000,20980.000000,56351.000000
24362.000000,15267.000000,20935.000000,56313.000000
24368.000000,15262.000000,20975.000000,56329.000000
24342.000000,15266.000000,20926.000000,56324.000000
24392.000000,15286.000000,20956.000000,56311.000000
24338.000000,15241.000000,20921.000000,56324.000000
24400.000000,15242.000000,20961.000000,56316.000000
24387.000000,15251.000000,20937.000000,56319.000000
24369.000000,15270.000000,20906.000000,56333.000000
24330.000000,15206.000000,20912.000000,56279.000000
24357.000000,15229.000000,20914.000000,56310.000000
24360.000000,15250.000000,20897.000000,56285.000000
24352.000000,15247.000000,20868.000000,56296.000000
24338.000000,15184.000000,20909.000000,56291.000000
24294.000000,15203.000000,20851.000000,56287.000000
24311.000000,15174.000000,20828.000000,56262.000000
24279.000000,15170.000000,20839.000000,56257.000000
24275.000000,15183.000000,20815.000000,56291.000000
24250.000000,15167.000000,20790.000000,56267.000000
24263.000000,15188.000000,20821.000000,56216.000000
24195.000000,15132.000000,20798.000000,56246.000000
24227.000000,15148.000000,20774.000000,56215.000000
24201.000000,15135.000000,20774.000000,56242.000000
24193.000000,15167.000000,20714.000000,56218.000000
24200.000000,15113.000000,20762.000000,56180.000000
24153.000000,15106.000000,20715.000000,56195.000000
24118.000000,15113.000000,20672.000000,56186.000000
24190.000000,15092.000000,20686.000000,56168.000000
24133.000000,15094.000000,20680.000000,56218.000000
24163.000000,15084.000000,20657.000000,56140.000000
24140.000000,15067.000000,20641.000000,56172.000000
24148.000000,15116.000000,20628.000000,56150.000000
24151.000000,15085.000000,20663.000000,56155.000000
24153.000000,15051.000000,20641.000000,56177.000000
24161.000000,15056.000000,20607.000000,56178.000000
24120.000000,15090.000000,20626.000000,56133.000000
24108.000000,15055.000000,20624.000000,56169.000000
24147.000000,15039.000000,20597.000000,56148.000000
24179.000000,15060.000000,20621.000000,56128.000000
24126.000000,15029.000000,20578.000000,56155.000000
24132.000000,15035.000000,20596.000000,56120.000000
24155.000000,15019.000000,20604.000000,56074.000000
24147.000000,15009.000000,20590.000000,56093.000000
24102.000000,15016.000000,20555.000000,56121.000000
24120.000000,15004.000000,20567.000000,56100.000000
24080.000000,15010.000000,20564.000000,56123.000000
24089.000000,15027.000000,20572.000000,56087.000000
24079.000000,14985.000000,20562.000000,56094.000000
24058.000000,15032.000000,20569.000000,56094.000000
24081.000000,15002.000000,20553.000000,56130.000000
24047.000000,15019.000000,20532.000000,56095.000000
24035.000000,14986.000000,20530.000000,56078.000000
24078.000000,14985.000000,20514.000000,56074.000000
24057.000000,14989.000000,20527.000000,56055.000000
24072.000000,14998.000000,20527.000000,56087.000000
24006.000000,14944.000000,20527.000000,56033.000000
24024.000000,14969.000000,20492.000000,56060.000000
24013.000000,14971.000000,20446.000000,56079.000000
24012.000000,14948.000000,20459.000000,56038.000000
23968.000000,14951.000000,20431.000000,56071.000000
23960.000000,14948.000000,20394.000000,56058.000000
23928.000000,14908.000000,20430.000000,55966.000000
23937.000000,14912.000000,20406.000000,56018.000000
23918.000000,14892.000000,20434.000000,56015.000000
23923.000000,14906.000000,20403.000000,56014.000000
23961.000000,14916.000000,20408.000000,55986.000000
23928.000000,14912.000000,20394.000000,56006.000000
23973.000000,14952.000000,20388.000000,56055.000000
23994.000000,14924.000000,20461.000000,56053.000000
23957.000000,14960.000000,20465.000000,56036.000000
24002.000000,14955.000000,20486.000000,56065.000000
24032.000000,14983.000000,20519.000000,56086.000000
24035.000000,14991.000000,20536.000000,56074.000000
24015.000000,14996.000000,20507.000000,56101.000000
24052.000000,14969.000000,20566.000000,56138.000000
24039.000000,14988.000000,20540.000000,56143.000000
24049.000000,15052.000000,20569.000000,56112.000000
24082.000000,15022.000000,20572.000000,56168.000000
24084.000000,15008.000000,20637.000000,56140.000000
24094.000000,15054.000000,20617.000000,56163.000000
24093.000000,15015.000000,20671.000000,56186.000000
24094.000000,15042.000000,20676.000000,56164.000000
24130.000000,15090.000000,20672.000000,56219.000000
24175.000000,15083.000000,20706.000000,56186.000000
24122.000000,15103.000000,20705.000000,56237.000000
24184.000000,15133.000000,20734.000000,56198.000000
24197.000000,15127.000000,20781.000000,56254.000000
24173.000000,15160.000000,20818.000000,56261.000000
24229.000000,15139.000000,20843.000000,56274.000000
24279.000000,15179.000000,20891.000000,56316.000000
24280.000000,15201.000000,20932.000000,56371.000000
24289.000000,15229.000000,20976.000000,56402.000000
24348.000000,15273.000000,21055.000000,56392.000000
24446.000000,15375.000000,21190.000000,56489.000000
24525.000000,15447.000000,21264.000000,56519.000000
24533.000000,15477.000000,21289.000000,56596.000000
24636.000000,15519.000000,21410.000000,56594.000000
24715.000000,15540.000000,21418.000000,56647.000000
24695.000000,15554.000000,21497.000000,56678.000000
24738.000000,15594.000000,21545.000000,56701.000000
24814.000000,15585.000000,21574.000000,56724.000000
24789.000000,15625.000000,21569.000000,56710.000000
24826.000000,15656.000000,21615.000000,56721.000000
24796.000000,15636.000000,21575.000000,56742.000000
24813.000000,15619.000000,21595.000000,56720.000000
24836.000000,15622.000000,21611.000000,56699.000000
24767.000000,15611.000000,21587.000000,56684.000000
24781.000000,15623.000000,21542.000000,56708.000000
24783.000000,15623.000000,21561.000000,56677.000000
24778.000000,15571.000000,21554.000000,56675.000000
24740.000000,15583.000000,21567.000000,56681.000000
24740.000000,15576.000000,21510.000000,56647.000000
24683.000000,15543.000000,21459.000000,56661.000000
24721.000000,15543.000000,21458.000000,56630.000000
24730.000000,15549.000000,21475.000000,56626.000000
24707.000000,15540.000000,21440.000000,56606.000000
24696.000000,15534.000000,21410.000000,56596.000000
24696.000000,15521.000000,21437.000000,56609.000000
24679.000000,15527.000000,21434.000000,56619.000000
24639.000000,15545.000000,21384.000000,56609.000000
24698.000000,15514.000000,21407.000000,56606.000000
24620.000000,15493.000000,21362.000000,56581.000000
24705.000000,15506.000000,21387.000000,56598.000000
24653.000000,15559.000000,21322.000000,56577.000000
24678.000000,15489.000000,21381.000000,56605.000000
24642.000000,15511.000000,21349.000000,56570.000000
24655.000000,15472.000000,21297.000000,56572.000000
24630.000000,15478.000000,21282.000000,56564.000000
24607.000000,15431.000000,21315.000000,56568.000000
24596.000000,15495.000000,21261.000000,56548.000000
24578.000000,15427.000000,21280.000000,56553.000000
24595.000000,15478.000000,21290.000000,56528.000000
24586.000000,15466.000000,21272.000000,56518.000000
24599.000000,15424.000000,21266.000000,56514.000000
24557.000000,15420.000000,21230.000000,56489.000000
24556.000000,15444.000000,21230.000000,56554.000000
24567.000000,15393.000000,21207.000000,56490.000000
24546.000000,15425.000000,21236.000000,56480.000000
24514.000000,15373.000000,21207.000000,56523.000000
24509.000000,15388.000000,21197.000000,56473.000000
24548.000000,15375.000000,21169.000000,56474.000000
24481.000000,15373.000000,21160.000000,56474.000000
24519.000000,15377.000000,21161.000000,56461.000000
24496.000000,15380.000000,21093.000000,56452.000000
24447.000000,15346.000000,21117.000000,56454.000000
24467.000000,15322.000000,21115.000000,56412.000000
24443.000000,15299.000000,21075.000000,56400.000000
24441.000000,15278.000000,21056.000000,56405.000000
24423.000000,15304.000000,21084.000000,56437.000000
24456.000000,15325.000000,21063.000000,56392.000000
24410.000000,15292.000000,21015.000000,56402.000000
24424.000000,15295.000000,21060.000000,56380.000000
24422.000000,15262.000000,21003.000000,56356.000000
24385.000000,15292.000000,21004.000000,56390.000000
24413.000000,15278.000000,21043.000000,56377.000000
24386.000000,15279.000000,20982.000000,56371.000000
24392.000000,15298.000000,20977.000000,56357.000000
24352.000000,15270.000000,20970.000000,56367.000000
24354.000000,15245.000000,20911.000000,56374.000000
24347.000000,15237.000000,20968.000000,56341.000000
24377.000000,15221.000000,20940.000000,56313.000000
24354.000000,15214.000000,20940.000000,56343.000000
24356.000000,15220.000000,20908.000000,56343.000000
24337.000000,15200.000000,20879.000000,56320.000000
24312.000000,15210.000000,20894.000000,56320.000000
24318.000000,15208.000000,20872.000000,56316.000000
24285.000000,15170.000000,20826.000000,56278.000000
24277.000000,15154.000000,20842.000000,56318.000000
24316.000000,15183.000000,20855.000000,56278.000000
24307.000000,15188.000000,20823.000000,56283.000000
24253.000000,15182.000000,20814.000000,56253.000000
24263.000000,15165.000000,20824.000000,56274.000000
24264.000000,15173.000000,20757.000000,56276.000000
24270.000000,15133.000000,20770.000000,56233.000000
24234.000000,15138.000000,20770.000000,56239.000000
24211.000000,15119.000000,20737.000000,56256.000000
24214.000000,15103.000000,20709.000000,56198.000000
24214.000000,15091.000000,20704.000000,56210.000000
24174.000000,15067.000000,20679.000000,56182.000000
24178.000000,15068.000000,20650.000000,56178.000000
24199.000000,15120.000000,20688.000000,56168.000000
24178.000000,15071.000000,20652.000000,56159.000000
24124.000000,15060.000000,20632.000000,56161.000000
24147.000000,15038.000000,20659.000000,56172.000000
24144.000000,15038.000000,20661.000000,56143.000000
24143.000000,15070.000000,20591.000000,56128.000000
24127.000000,15044.000000,20647.000000,56159.000000
24106.000000,15024.000000,20592.000000,56165.000000
24131.000000,15026.000000,20575.000000,56124.000000
24071.000000,15033.000000,20564.000000,56144.000000
24102.000000,15000.000000,20582.000000,56098.000000
24072.000000,15003.000000,20523.000000,56102.000000
24039.000000,14996.000000,20528.000000,56090.000000
24068.000000,15018.000000,20512.000000,56072.000000
24040.000000,15004.000000,20508.000000,56069.000000
24039.000000,14966.000000,20478.000000,56079.000000
24039.000000,14968.000000,20507.000000,56053.000000
24048.000000,14932.000000,20462.000000,56063.000000
24035.000000,14976.000000,20466.000000,56082.000000
24025.000000,14967.000000,20474.000000,56081.000000
24018.000000,14942.000000,20460.000000,56050.000000
24000.000000,14999.000000,20450.000000,56062.000000
24000.000000,14947.000000,20478.000000,56061.000000
23957.000000,14946.000000,20446.000000,56049.000000
23987.000000,14936.000000,20399.000000,56034.000000
23972.000000,14960.000000,20388.000000,56025.000000
23958.000000,14958.000000,20376.000000,56049.000000
23955.000000,14898.000000,20404.000000,55994.000000
23960.000000,14914.000000,20364.000000,55999.000000
23926.000000,14906.000000,20289.000000,55994.000000
23909.000000,14912.000000,20293.000000,55980.000000
23863.000000,14881.000000,20305.000000,55967.000000
23874.000000,14831.000000,20290.000000,55954.000000
23892.000000,14823.000000,20277.000000,55955.000000
23893.000000,14860.000000,20265.000000,55938.000000
23835.000000,14849.000000,20273.000000,55964.000000
23865.000000,14857.000000,20233.000000,55958.000000
23863.000000,14855.000000,20268.000000,55936.000000
23852.000000,14860.000000,20288.000000,55960.000000
23883.000000,14846.000000,20286.000000,55971.000000
23901.000000,14872.000000,20369.000000,55977.000000
23903.000000,14871.000000,20313.000000,55991.000000
23922.000000,14861.000000,20368.000000,56006.000000
23915.000000,14881.000000,20346.000000,56025.000000
23904.000000,14906.000000,20355.000000,56004.000000
23918.000000,14892.000000,20413.000000,56037.000000
23926.000000,14871.000000,20383.000000,56050.000000
23964.000000,14932.000000,20429.000000,56062.000000
23965.000000,14952.000000,20446.000000,56064.000000
23968.000000,14950.000000,20458.000000,56085.000000
23992.000000,14959.000000,20488.000000,56082.000000
24031.000000,14945.000000,20564.000000,56085.000000
23975.000000,14973.000000,20501.000000,56142.000000
24026.000000,14974.000000,20508.000000,56121.000000
24038.000000,14967.000000,20588.000000,56107.000000
24037.000000,15000.000000,20583.000000,56140.000000
24046.000000,15023.000000,20571.000000,56168.000000
24045.000000,15011.000000,20642.000000,56181.000000
24082.000000,15079.000000,20683.000000,56227.000000
24148.000000,15079.000000,20780.000000,56257.000000
24208.000000,15144.000000,20796.000000,56293.000000
24253.000000,15166.000000,20874.000000,56318.000000
24292.000000,15201.000000,20920.000000,56366.000000
24351.000000,15240.000000,20966.000000,56409.000000
24389.000000,15217.000000,21036.000000,56417.000000
24436.000000,15310.000000,21082.000000,56473.000000
24473.000000,15364.000000,21121.000000,56492.000000
24520.000000,15368.000000,21186.000000,56528.000000
24521.000000,15438.000000,21252.000000,56570.000000
24640.000000,15489.000000,21331.000000,56563.000000
24698.000000,15531.000000,21417.000000,56641.000000
24714.000000,15549.000000,21440.000000,56665.000000
24761.000000,15540.000000,21474.000000,56653.000000
24727.000000,15528.000000,21446.000000,56657.000000
24700.000000,15528.000000,21398.000000,56646.000000
24717.000000,15534.000000,21413.000000,56627.000000
24693.000000,15500.000000,21401.000000,56643.000000
24714.000000,15519.000000,21392.000000,56622.000000
24676.000000,15524.000000,21402.000000,56622.000000
24681.000000,15511.000000,21372.000000,56608.000000
24680.000000,15490.000000,21383.000000,56590.000000
24668.000000,15489.000000,21337.000000,56607.000000
24657.000000,15522.000000,21341.000000,56595.000000
24629.000000,15477.000000,21310.000000,56609.000000
24666.000000,15479.000000,21322.000000,56581.000000
24642.000000,15448.000000,21297.000000,56567.000000
24623.000000,15452.000000,21261.000000,56566.000000
24646.000000,15460.000000,21308.000000,56544.000000
24589.000000,15454.000000,21276.000000,56542.000000
24564.000000,15392.000000,21242.000000,56531.000000
24600.000000,15410.000000,21239.000000,56501.000000
24576.000000,15446.000000,21222.000000,56538.000000
24552.000000,15433.000000,21221.000000,56495.000000
24589.000000,15435.000000,21203.000000,56534.000000
24569.000000,15376.000000,21195.000000,56510.000000
24502.000000,15390.000000,21154.000000,56505.000000
24522.000000,15430.000000,21166.000000,56512.000000
24507.000000,15310.000000,21161.000000,56482.000000
24467.000000,15373.000000,21150.000000,56492.000000
24498.000000,15363.000000,21147.000000,56473.000000
24512.000000,15344.000000,21120.000000,56492.000000
24497.000000,15321.000000,21127.000000,56464.000000
24476.000000,15330.000000,21101.000000,56434.000000
24448.000000,15312.000000,21093.000000,56501.000000
24468.000000,15288.000000,21130.000000,56428.000000
24463.000000,15327.000000,21030.000000,56466.000000
24446.000000,15318.000000,21076.000000,56417.000000
24453.000000,15282.000000,21116.000000,56446.000000
24454.000000,15299.000000,21034.000000,56429.000000
24473.000000,15276.000000,21017.000000,56432.000000
24413.000000,15280.000000,21024.000000,56407.000000
24410.000000,15279.000000,21006.000000,56437.000000
24450.000000,15265.000000,21015.000000,56373.000000
24419.000000,15308.000000,20983.000000,56398.000000
24392.000000,15250.000000,20996.000000,56370.000000
24397.000000,15215.000000,20953.000000,56336.000000
24379.000000,15245.000000,20942.000000,56371.000000
24388.000000,15213.000000,20925.000000,56355.000000
24330.000000,15228.000000,20918.000000,56364.000000
24334.000000,15208.000000,20914.000000,56380.000000
24364.000000,15225.000000,20893.000000,56352.000000
24346.000000,15212.000000,20895.000000,56363.000000
24337.000000,15229.000000,20885.000000,56337.000000
24350.000000,15211.000000,20896.000000,56285.000000
24287.000000,15198.000000,20839.000000,56320.000000
24294.000000,15159.000000,20808.000000,56335.000000
24259.000000,15155.000000,20839.000000,56332.000000
24274.000000,15178.000000,20832.000000,56273.000000
24237.000000,15188.000000,20782.000000,56303.000000
24287.000000,15165.000000,20765.000000,56294.000000
24253.000000,15165.000000,20770.000000,56268.000000
24235.000000,15154.000000,20742.000000,56266.000000
24234.000000,15135.000000,20781.000000,56272.000000
24255.000000,15132.000000,20754.000000,56268.000000
24212.000000,15118.000000,20734.000000,56221.000000
24205.000000,15099.000000,20706.000000,56244.000000
24192.000000,15099.000000,20700.000000,56211.000000
24197.000000,15070.000000,20704.000000,56206.000000
24216.000000,15095.000000,20654.000000,56240.000000
24194.000000,15058.000000,20708.000000,56230.000000
24161.000000,15061.000000,20690.000000,56226.000000
24174.000000,15038.000000,20678.000000,56205.000000
24153.000000,15056.000000,20638.000000,56168.000000
24127.000000,15044.000000,20607.000000,56189.000000
24173.000000,15017.000000,20594.000000,56163.000000
24149.000000,15046.000000,20616.000000,56174.000000
24122.000000,15025.000000,20570.000000,56162.000000
24102.000000,15017.000000,20537.000000,56147.000000
24098.000000,14998.000000,20533.000000,56126.000000
24081.000000,15011.000000,20571.000000,56115.000000
24084.000000,15001.000000,20521.000000,56106.000000
24088.000000,14999.000000,20519.000000,56132.000000
24057.000000,14997.000000,20486.000000,56123.000000
24066.000000,14961.000000,20464.000000,56094.000000
24038.000000,14947.000000,20451.000000,56098.000000
24030.000000,14965.000000,20435.000000,56119.000000
24040.000000,14952.000000,20457.000000,56091.000000
24036.000000,14962.000000,20434.000000,56055.000000
24014.000000,14928.000000,20415.000000,56068.000000
23980.000000,14949.000000,20390.000000,56057.000000
23994.000000,14941.000000,20402.000000,56043.000000
23971.000000,14945.000000,20386.000000,56069.000000
23955.000000,14909.000000,20363.000000,55994.000000
23936.000000,14907.000000,20362.000000,56039.000000
23939.000000,14888.000000,20355.000000,56012.000000
23931.000000,14881.000000,20351.000000,56010.000000
23947.000000,14899.000000,20320.000000,56019.000000
23939.000000,14872.000000,20333.000000,56000.000000
23920.000000,14854.000000,20343.000000,56001.000000
23928.000000,14900.000000,20310.000000,55979.000000
23911.000000,14881.000000,20294.000000,55990.000000
23905.000000,14835.000000,20291.000000,56013.000000
23936.000000,14855.000000,20281.000000,55993.000000
23933.000000,14850.000000,20302.000000,55953.000000
23886.000000,14863.000000,20289.000000,56006.000000
23875.000000,14854.000000,20288.000000,55972.000000
23880.000000,14878.000000,20275.000000,55966.000000
23871.000000,14862.000000,20286.000000,55967.000000
23867.000000,14837.000000,20280.000000,55968.000000
23889.000000,14853.000000,20260.000000,55970.000000
23850.000000,14764.000000,20237.000000,55979.000000
23832.000000,14792.000000,20183.000000,55971.000000
23851.000000,14806.000000,20192.000000,55927.000000
23856.000000,14783.000000,20190.000000,55906.000000
23778.000000,14774.000000,20224.000000,55903.000000
23769.000000,14796.000000,20147.000000,55931.000000
23787.000000,14749.000000,20134.000000,55901.000000
23783.000000,14720.000000,20144.000000,55892.000000
23769.000000,14796.000000,20115.000000,55895.000000
23749.000000,14765.000000,20102.000000,55874.000000
23761.000000,14753.000000,20179.000000,55897.000000
23766.000000,14704.000000,20159.000000,55938.000000
23760.000000,14714.000000,20145.000000,55927.000000
23786.000000,14753.000000,20150.000000,55887.000000
23772.000000,14792.000000,20163.000000,55938.000000
23785.000000,14758.000000,20214.000000,55935.000000
23839.000000,14825.000000,20187.000000,55950.000000
23814.000000,14800.000000,20239.000000,55960.000000
23836.000000,14805.000000,20269.000000,55939.000000
23865.000000,14872.000000,20297.000000,55998.000000
23904.000000,14867.000000,20322.000000,56016.000000
23895.000000,14881.000000,20359.000000,56006.000000
23914.000000,14867.000000,20346.000000,56013.000000
23971.000000,14918.000000,20407.000000,56072.000000
23943.000000,14893.000000,20450.000000,56078.000000
23963.000000,14906.000000,20411.000000,56070.000000
23987.000000,14950.000000,20473.000000,56087.000000
23996.000000,14957.000000,20507.000000,56126.000000
24027.000000,14948.000000,20568.000000,56143.000000
24041.000000,14963.000000,20559.000000,56137.000000
24053.000000,15022.000000,20632.000000,56201.000000
24104.000000,14984.000000,20614.000000,56220.000000
24139.000000,15032.000000,20672.000000,56230.000000
24167.000000,15072.000000,20740.000000,56245.000000
24197.000000,15082.000000,20795.000000,56278.000000
24254.000000,15126.000000,20827.000000,56330.000000
24259.000000,15170.000000,20927.000000,56369.000000
24312.000000,15182.000000,20966.000000,56411.000000
24316.000000,15206.000000,21038.000000,56437.000000
24401.000000,15241.000000,21052.000000,56434.000000
24558.000000,15371.000000,21279.000000,56573.000000
24563.000000,15413.000000,21349.000000,56605.000000
24645.000000,15455.000000,21389.000000,56593.000000
24650.000000,15510.000000,21408.000000,56648.000000
24781.000000,15565.000000,21490.000000,56702.000000
24747.000000,15585.000000,21519.000000,56741.000000
24750.000000,15531.000000,21525.000000,56715.000000
24733.000000,15554.000000,21520.000000,56687.000000
24789.000000,15545.000000,21505.000000,56678.000000
24755.000000,15538.000000,21488.000000,56714.000000
24765.000000,15568.000000,21499.000000,56697.000000
24734.000000,15554.000000,21462.000000,56693.000000
24751.000000,15553.000000,21453.000000,56689.000000
24728.000000,15531.000000,21486.000000,56685.000000
24726.000000,15520.000000,21428.000000,56654.000000
24746.000000,15507.000000,21399.000000,56627.000000
24676.000000,15510.000000,21439.000000,56658.000000
24715.000000,15504.000000,21448.000000,56638.000000
24711.000000,15469.000000,21377.000000,56642.000000
24697.000000,15494.000000,21379.000000,56620.000000
24689.000000,15527.000000,21406.000000,56650.000000
24653.000000,15450.000000,21358.000000,56609.000000
24690.000000,15496.000000,21363.000000,56600.000000
24649.000000,15492.000000,21319.000000,56605.000000
24648.000000,15446.000000,21306.000000,56581.000000
24645.000000,15433.000000,21336.000000,56586.000000
24574.000000,15485.000000,21340.000000,56604.000000
24646.000000,15403.000000,21298.000000,56592.000000
24647.000000,15465.000000,21281.000000,56586.000000
24616.000000,15394.000000,21298.000000,56602.000000
24605.000000,15445.000000,21288.000000,56574.000000
24608.000000,15440.000000,21277.000000,56553.000000
24595.000000,15391.000000,21259.000000,56567.000000
24605.000000,15399.000000,21234.000000,56552.000000
24553.000000,15376.000000,21222.000000,56513.000000
24563.000000,15404.000000,21255.000000,56554.000000
24578.000000,15357.000000,21190.000000,56509.000000
24554.000000,15399.000000,21194.000000,56536.000000
24526.000000,15357.000000,21184.000000,56564.000000
24537.000000,15402.000000,21248.000000,56527.000000
24508.000000,15348.000000,21150.000000,56506.000000
24497.000000,15362.000000,21156.000000,56489.000000
24500.000000,15351.000000,21125.000000,56493.000000
24499.000000,15312.000000,21134.000000,56489.000000
24460.000000,15304.000000,21139.000000,56471.000000
24452.000000,15294.000000,21120.000000,56456.000000
24464.000000,15276.000000,21102.000000,56468.000000
24454.000000,15316.000000,21076.000000,56497.000000
24462.000000,15269.000000,21079.000000,56449.000000
24440.000000,15310.000000,21038.000000,56442.000000
24441.000000,15267.000000,21077.000000,56447.000000
24441.000000,15270.000000,21022.000000,56434.000000
24434.000000,15242.000000,21049.000000,56434.000000
24402.000000,15244.000000,21037.000000,56433.000000
24414.000000,15222.000000,21025.000000,56404.000000
24380.000000,15217.000000,21047.000000,56445.000000
24378.000000,15230.000000,20970.000000,56374.000000
24365.000000,15225.000000,20979.000000,56384.000000
24357.000000,15202.000000,20982.000000,56420.000000
24343.000000,15242.000000,20961.000000,56397.000000
24348.000000,15214.000000,20962.000000,56364.000000
24355.000000,15201.000000,20992.000000,56383.000000
24305.000000,15204.000000,20936.000000,56386.000000
24281.000000,15210.000000,20966.000000,56361.000000
24282.000000,15183.000000,20918.000000,56354.000000
24291.000000,15188.000000,20853.000000,56330.000000
24284.000000,15141.000000,20886.000000,56321.000000
24268.000000,15158.000000,20829.000000,56362.000000
24270.000000,15129.000000,20873.000000,56328.000000
24265.000000,15139.000000,20856.000000,56294.000000
24249.000000,15152.000000,20858.000000,56317.000000
24221.000000,15126.000000,20806.000000,56312.000000
24262.000000,15071.000000,20836.000000,56328.000000
24243.000000,15109.000000,20851.000000,56308.000000
24217.000000,15097.000000,20761.000000,56319.000000
24234.000000,15086.000000,20803.000000,56256.000000
24202.000000,15097.000000,20791.000000,56301.000000
24181.000000,15114.000000,20796.000000,56223.000000
24206.000000,15141.000000,20767.000000,56248.000000
24194.000000,15077.000000,20790.000000,56275.000000
24194.000000,15057.000000,20787.000000,56270.000000
24220.000000,15068.000000,20748.000000,56244.000000
24185.000000,15077.000000,20777.000000,56269.000000
24190.000000,15078.000000,20742.000000,56264.000000
24201.000000,15072.000000,20748.000000,56246.000000
24163.000000,15080.000000,20761.000000,56222.000000
24137.000000,15045.000000,20744.000000,56248.000000
24176.000000,15063.000000,20701.000000,56251.000000
24134.000000,15027.000000,20696.000000,56220.000000
24157.000000,15050.000000,20693.000000,56242.000000
24152.000000,15026.000000,20712.000000,56252.000000
24147.000000,15029.000000,20678.000000,56187.000000
24127.000000,15013.000000,20651.000000,56228.000000
24098.000000,15021.000000,20659.000000,56225.000000
24134.000000,14982.000000,20666.000000,56198.000000
24089.000000,15009.000000,20646.000000,56211.000000
24071.000000,15020.000000,20615.000000,56163.000000
24083.000000,14994.000000,20645.000000,56208.000000
24091.000000,15002.000000,20609.000000,56140.000000
24047.000000,14960.000000,20600.000000,56179.000000
24081.000000,14978.000000,20580.000000,56185.000000
24050.000000,14976.000000,20584.000000,56156.000000
24058.000000,15006.000000,20590.000000,56160.000000
24058.000000,14950.000000,20593.000000,56152.000000
24056.000000,15002.000000,20614.000000,56187.000000
24058.000000,14955.000000,20599.000000,56162.000000
24045.000000,14984.000000,20590.000000,56142.000000
24050.000000,14948.000000,20568.000000,56151.000000
24041.000000,14950.000000,20592.000000,56176.000000
24042.000000,14972.000000,20557.000000,56154.000000
24029.000000,14943.000000,20604.000000,56155.000000
24018.000000,14950.000000,20563.000000,56165.000000
23991.000000,14945.000000,20583.000000,56124.000000
23988.000000,14953.000000,20528.000000,56151.000000
24001.000000,14906.000000,20511.000000,56100.000000
24027.000000,14936.000000,20517.000000,56136.000000
23930.000000,14902.000000,20470.000000,56095.000000
23910.000000,14870.000000,20427.000000,56074.000000
23925.000000,14882.000000,20443.000000,56085.000000
23918.000000,14901.000000,20421.000000,56070.000000
23868.000000,14860.000000,20402.000000,56107.000000
23886.000000,14827.000000,20430.000000,56073.000000
23887.000000,14881.000000,20446.000000,56096.000000
23868.000000,14850.000000,20425.000000,56031.000000
23902.000000,14890.000000,20404.000000,56074.000000
23858.000000,14866.000000,20437.000000,56087.000000
23926.000000,14865.000000,20470.000000,56113.000000
23870.000000,14883.000000,20469.000000,56139.000000
23919.000000,14899.000000,20525.000000,56135.000000
23881.000000,14915.000000,20508.000000,56126.000000
23902.000000,14888.000000,20533.000000,56144.000000
23936.000000,14915.000000,20543.000000,56148.000000
23932.000000,14881.000000,20545.000000,56179.000000
23955.000000,14954.000000,20566.000000,56174.000000
23974.000000,14927.000000,20610.000000,56154.000000
23952.000000,14933.000000,20573.000000,56215.000000
23996.000000,14961.000000,20619.000000,56218.000000
24021.000000,14982.000000,20651.000000,56217.000000
23972.000000,14959.000000,20637.000000,56209.000000
24086.000000,15012.000000,20735.000000,56284.000000
24096.000000,15055.000000,20785.000000,56283.000000
24097.000000,15043.000000,20799.000000,56287.000000
24123.000000,15075.000000,20800.000000,56306.000000
24225.000000,15093.000000,20936.000000,56414.000000
24281.000000,15155.000000,21025.000000,56410.000000
24296.000000,15179.000000,21058.000000,56480.000000
24329.000000,15209.000000,21097.000000,56522.000000
24418.000000,15289.000000,21210.000000,56512.000000
24416.000000,15284.000000,21276.000000,56545.000000
24513.000000,15356.000000,21300.000000,56614.000000
24528.000000,15441.000000,21401.000000,56648.000000
24595.000000,15459.000000,21470.000000,56687.000000
24683.000000,15511.000000,21487.000000,56741.000000
24713.000000,15493.000000,21588.000000,56756.000000
24753.000000,15597.000000,21616.000000,56839.000000
24797.000000,15631.000000,21676.000000,56814.000000
24817.000000,15616.000000,21738.000000,56853.000000
24861.000000,15631.000000,21724.000000,56864.000000
24924.000000,15637.000000,21754.000000,56866.000000
24884.000000,15660.000000,21767.000000,56866.000000
24894.000000,15657.000000,21748.000000,56874.000000
24887.000000,15612.000000,21711.000000,56848.000000
24880.000000,15624.000000,21756.000000,56875.000000
24886.000000,15662.000000,21712.000000,56861.000000
24872.000000,15624.000000,21722.000000,56837.000000
24816.000000,15639.000000,21677.000000,56826.000000
24836.000000,15615.000000,21694.000000,56857.000000
24837.000000,15608.000000,21670.000000,56811.000000
24812.000000,15606.000000,21700.000000,56809.000000
24794.000000,15612.000000,21593.000000,56787.000000
24799.000000,15582.000000,21635.000000,56769.000000
24777.000000,15595.000000,21612.000000,56815.000000
24793.000000,15610.000000,21606.000000,56786.000000
24753.000000,15594.000000,21585.000000,56745.000000
24776.000000,15584.000000,21585.000000,56788.000000
24751.000000,15561.000000,21567.000000,56780.000000
24769.000000,15560.000000,21587.000000,56750.000000
24751.000000,15565.000000,21557.000000,56778.000000
24733.000000,15538.000000,21560.000000,56765.000000
24770.000000,15529.000000,21567.000000,56759.000000
24711.000000,15557.000000,21538.000000,56730.000000
24756.000000,15532.000000,21511.000000,56726.000000
24694.000000,15530.000000,21527.000000,56724.000000
24703.000000,15517.000000,21522.000000,56709.000000
24677.000000,15469.000000,21450.000000,56729.000000
24665.000000,15506.000000,21476.000000,56688.000000
24724.000000,15523.000000,21457.000000,56709.000000
24683.000000,15469.000000,21418.000000,56680.000000
24641.000000,15478.000000,21474.000000,56673.000000
24677.000000,15454.000000,21442.000000,56684.000000
24627.000000,15462.000000,21440.000000,56646.000000
24577.000000,15446.000000,21381.000000,56641.000000
24627.000000,15450.000000,21400.000000,56634.000000
24606.000000,15397.000000,21393.000000,56625.000000
24581.000000,15452.000000,21355.000000,56653.000000
24583.000000,15427.000000,21347.000000,56633.000000
24578.000000,15406.000000,21356.000000,56644.000000
24553.000000,15343.000000,21323.000000,56588.000000
24558.000000,15375.000000,21336.000000,56620.000000
24532.000000,15386.000000,21311.000000,56619.000000
24535.000000,15408.000000,21284.000000,56588.000000
24580.000000,15404.000000,21297.000000,56605.000000
24530.000000,15367.000000,21273.000000,56586.000000
24529.000000,15382.000000,21280.000000,56602.000000
24502.000000,15387.000000,21261.000000,56591.000000
24521.000000,15385.000000,21246.000000,56599.000000
24523.000000,15320.000000,21233.000000,56579.000000
24547.000000,15355.000000,21239.000000,56564.000000
24472.000000,15309.000000,21185.000000,56512.000000
24517.000000,15314.000000,21164.000000,56530.000000
24444.000000,15310.000000,21192.000000,56560.000000
24500.000000,15300.000000,21172.000000,56538.000000
24451.000000,15312.000000,21159.000000,56538.000000
24450.000000,15244.000000,21098.000000,56473.000000
24442.000000,15292.000000,21125.000000,56500.000000
24452.000000,15273.000000,21133.000000,56520.000000
24453.000000,15293.000000,21085.000000,56490.000000
24405.000000,15246.000000,21086.000000,56433.000000
24412.000000,15281.000000,21083.000000,56479.000000
24382.000000,15241.000000,21077.000000,56470.000000
24407.000000,15240.000000,21067.000000,56475.000000
24390.000000,15227.000000,21061.000000,56482.000000
24353.000000,15233.000000,21025.000000,56465.000000
24375.000000,15216.000000,21050.000000,56445.000000
24375.000000,15191.000000,21020.000000,56464.000000
24348.000000,15192.000000,21010.000000,56457.000000
24325.000000,15185.000000,21026.000000,56410.000000
24321.000000,15196.000000,20977.000000,56431.000000
24353.000000,15154.000000,20980.000000,56409.000000
24312.000000,15160.000000,20984.000000,56429.000000
24266.000000,15159.000000,20928.000000,56389.000000
24211.000000,15141.000000,20919.000000,56400.000000
24287.000000,15125.000000,20935.000000,56364.000000
24283.000000,15132.000000,20885.000000,56330.000000
24238.000000,15139.000000,20868.000000,56367.000000
24241.000000,15087.000000,20869.000000,56339.000000
24252.000000,15110.000000,20852.000000,56314.000000
24220.000000,15069.000000,20824.000000,56335.000000
24182.000000,15081.000000,20847.000000,56333.000000
24163.000000,15073.000000,20823.000000,56302.000000
24179.000000,15061.000000,20791.000000,56289.000000
24181.000000,15075.000000,20776.000000,56318.000000
24186.000000,15069.000000,20792.000000,56281.000000
24154.000000,15057.000000,20735.000000,56279.000000
24162.000000,15048.000000,20754.000000,56291.000000
24144.000000,15007.000000,20703.000000,56263.000000
24085.000000,15012.000000,20687.000000,56268.000000
24087.000000,14967.000000,20687.000000,56243.000000
24097.000000,14968.000000,20634.000000,56240.000000
24111.000000,15018.000000,20673.000000,56246.000000
24075.000000,15002.000000,20622.000000,56241.000000
24091.000000,14960.000000,20617.000000,56208.000000
24071.000000,14992.000000,20653.000000,56218.000000
24070.000000,15009.000000,20533.000000,56195.000000
24083.000000,14940.000000,20581.000000,56223.000000
24062.000000,14944.000000,20554.000000,56197.000000
24055.000000,14951.000000,20604.000000,56155.000000
24043.000000,14954.000000,20529.000000,56169.000000
24046.000000,14931.000000,20533.000000,56213.000000
24028.000000,14912.000000,20550.000000,56156.000000
23966.000000,14937.000000,20505.000000,56125.000000
24007.000000,14903.000000,20495.000000,56182.000000
23996.000000,14888.000000,20501.000000,56117.000000
23968.000000,14900.000000,20483.000000,56150.000000
23961.000000,14918.000000,20474.000000,56112.000000
24001.000000,14861.000000,20451.000000,56128.000000
23933.000000,14895.000000,20438.000000,56131.000000
23948.000000,14889.000000,20447.000000,56093.000000
23962.000000,14894.000000,20440.000000,56100.000000
23928.000000,14836.000000,20406.000000,56114.000000
23929.000000,14837.000000,20402.000000,56097.000000
23899.000000,14867.000000,20374.000000,56103.000000
23901.000000,14849.000000,20375.000000,56064.000000
23830.000000,14786.000000,20296.000000,56046.000000
23831.000000,14794.000000,20289.000000,56010.000000
23822.000000,14746.000000,20259.000000,56017.000000
23827.000000,14786.000000,20262.000000,56000.000000
23825.000000,14813.000000,20252.000000,55986.000000
23815.000000,14747.000000,20279.000000,55991.000000
23831.000000,14758.000000,20222.000000,55999.000000
23791.000000,14808.000000,20232.000000,56006.000000
23819.000000,14741.000000,20282.000000,56022.000000
23832.000000,14796.000000,20300.000000,55979.000000
23855.000000,14801.000000,20254.000000,56030.000000
23829.000000,14813.000000,20262.000000,56022.000000
23832.000000,14804.000000,20293.000000,56080.000000
23848.000000,14811.000000,20309.000000,56027.000000
23906.000000,14772.000000,20314.000000,56041.000000
23910.000000,14799.000000,20303.000000,56038.000000
23901.000000,14845.000000,20352.000000,56057.000000
23914.000000,14832.000000,20364.000000,56060.000000
23932.000000,14830.000000,20399.000000,56094.000000
23946.000000,14875.000000,20429.000000,56092.000000
23948.000000,14858.000000,20390.000000,56129.000000
23922.000000,14838.000000,20414.000000,56103.000000
23937.000000,14869.000000,20452.000000,56145.000000
24010.000000,14903.000000,20449.000000,56150.000000
23985.000000,14940.000000,20466.000000,56145.000000
24015.000000,14918.000000,20458.000000,56172.000000
24011.000000,14914.000000,20480.000000,56173.000000
24083.000000,14998.000000,20592.000000,56213.000000
24141.000000,14960.000000,20609.000000,56255.000000
24163.000000,15017.000000,20672.000000,56272.000000
24185.000000,15046.000000,20713.000000,56311.000000
24314.000000,15115.000000,20866.000000,56397.000000
24316.000000,15186.000000,20920.000000,56468.000000
24398.000000,15223.000000,20956.000000,56482.000000
24462.000000,15228.000000,21042.000000,56474.000000
24467.000000,15281.000000,21113.000000,56541.000000
24556.000000,15315.000000,21157.000000,56574.000000
24587.000000,15351.000000,21208.000000,56598.000000
24603.000000,15367.000000,21272.000000,56627.000000
24688.000000,15417.000000,21322.000000,56678.000000
24696.000000,15483.000000,21392.000000,56696.000000
24723.000000,15488.000000,21382.000000,56695.000000
24750.000000,15517.000000,21419.000000,56681.000000
24751.000000,15483.000000,21425.000000,56739.000000
24795.000000,15509.000000,21423.000000,56700.000000
24774.000000,15518.000000,21444.000000,56700.000000
24754.000000,15480.000000,21435.000000,56710.000000
24752.000000,15484.000000,21424.000000,56709.000000
24752.000000,15480.000000,21389.000000,56699.000000
24757.000000,15471.000000,21409.000000,56713.000000
24758.000000,15466.000000,21396.000000,56686.000000
24740.000000,15529.000000,21373.000000,56670.000000
24716.000000,15451.000000,21290.000000,56686.000000
24725.000000,15451.000000,21345.000000,56641.000000
24671.000000,15472.000000,21363.000000,56652.000000
24669.000000,15464.000000,21348.000000,56664.000000
24688.000000,15453.000000,21336.000000,56645.000000
24636.000000,15434.000000,21274.000000,56636.000000
24629.000000,15410.000000,21273.000000,56625.000000
24643.000000,15373.000000,21266.000000,56616.000000
24622.000000,15358.000000,21234.000000,56631.000000
24632.000000,15391.000000,21215.000000,56607.000000
24636.000000,15363.000000,21232.000000,56622.000000
24571.000000,15371.000000,21196.000000,56580.000000
24598.000000,15335.000000,21206.000000,56572.000000
24579.000000,15324.000000,21212.000000,56569.000000
24577.000000,15345.000000,21179.000000,56602.000000
24587.000000,15328.000000,21178.000000,56551.000000
24546.000000,15338.000000,21193.000000,56560.000000
24517.000000,15339.000000,21160.000000,56567.000000
24556.000000,15314.000000,21123.000000,56563.000000
24501.000000,15331.000000,21120.000000,56552.000000
24537.000000,15327.000000,21088.000000,56585.000000
24552.000000,15278.000000,21102.000000,56489.000000
24494.000000,15296.000000,21109.000000,56511.000000
24526.000000,15238.000000,21067.000000,56520.000000
24486.000000,15286.000000,21085.000000,56523.000000
24481.000000,15278.000000,21033.000000,56537.000000
24472.000000,15261.000000,21058.000000,56506.000000
24461.000000,15257.000000,21032.000000,56508.000000
24464.000000,15226.000000,21006.000000,56502.000000
24461.000000,15200.000000,21006.000000,56483.000000
24447.000000,15225.000000,21009.000000,56456.000000
24439.000000,15230.000000,20989.000000,56503.000000
24453.000000,15213.000000,20984.000000,56473.000000
24445.000000,15235.000000,21024.000000,56451.000000
24441.000000,15188.000000,20935.000000,56476.000000
24399.000000,15187.000000,20949.000000,56448.000000
24407.000000,15203.000000,20951.000000,56447.000000
24380.000000,15191.000000,20971.000000,56465.000000
24376.000000,15183.000000,20932.000000,56440.000000
24394.000000,15144.000000,20935.000000,56435.000000
24398.000000,15150.000000,20905.000000,56387.000000
24372.000000,15155.000000,20913.000000,56440.000000
24361.000000,15169.000000,20876.000000,56411.000000
24384.000000,15150.000000,20883.000000,56426.000000
24370.000000,15131.000000,20825.000000,56369.000000
24288.000000,15111.000000,20829.000000,56386.000000
24387.000000,15136.000000,20839.000000,56392.000000
24345.000000,15155.000000,20821.000000,56394.000000
24315.000000,15137.000000,20814.000000,56401.000000
24310.000000,15104.000000,20822.000000,56383.000000
24332.000000,15074.000000,20796.000000,56354.000000
24323.000000,15097.000000,20860.000000,56355.000000
24286.000000,15056.000000,20781.000000,56367.000000
24265.000000,15101.000000,20815.000000,56350.000000
24251.000000,15071.000000,20782.000000,56351.000000
24258.000000,15100.000000,20777.000000,56322.000000
24269.000000,15050.000000,20794.000000,56306.000000
24228.000000,15045.000000,20746.000000,56359.000000
24272.000000,15038.000000,20726.000000,56297.000000
24204.000000,15049.000000,20732.000000,56297.000000
24208.000000,15018.000000,20690.000000,56292.000000
24215.000000,15060.000000,20692.000000,56310.000000
24246.000000,15035.000000,20710.000000,56290.000000
24165.000000,15042.000000,20671.000000,56293.000000
24181.000000,15030.000000,20709.000000,56263.000000
24195.000000,14994.000000,20678.000000,56232.000000
24178.000000,15013.000000,20673.000000,56302.000000
24129.000000,15004.000000,20658.000000,56274.000000
24130.000000,15042.000000,20616.000000,56286.000000
24152.000000,14993.000000,20618.000000,56241.000000
24100.000000,14993.000000,20571.000000,56203.000000
24089.000000,14966.000000,20582.000000,56198.000000
24112.000000,14916.000000,20563.000000,56222.000000
24083.000000,15002.000000,20552.000000,56225.000000
24047.000000,14949.000000,20530.000000,56214.000000
24063.000000,14934.000000,20541.000000,56181.000000
24072.000000,14940.000000,20534.000000,56173.000000
24082.000000,14936.000000,20503.000000,56176.000000
24067.000000,14933.000000,20502.000000,56165.000000
24018.000000,14921.000000,20461.000000,56213.000000
24062.000000,14903.000000,20458.000000,56158.000000
24031.000000,14877.000000,20436.000000,56184.000000
24014.000000,14874.000000,20471.000000,56161.000000
24002.000000,14898.000000,20441.000000,56139.000000
23984.000000,14922.000000,20445.000000,56117.000000
23988.000000,14886.000000,20405.000000,56144.000000
23952.000000,14885.000000,20424.000000,56102.000000
23945.000000,14892.000000,20413.000000,56141.000000
23940.000000,14847.000000,20378.000000,56130.000000
23954.000000,14835.000000,20377.000000,56118.000000
23918.000000,14855.000000,20409.000000,56115.000000
23938.000000,14844.000000,20396.000000,56113.000000
23921.000000,14836.000000,20364.000000,56088.000000
23894.000000,14821.000000,20362.000000,56118.000000
23857.000000,14828.000000,20348.000000,56098.000000
23920.000000,14793.000000,20349.000000,56067.000000
23873.000000,14825.000000,20344.000000,56090.000000
23914.000000,14800.000000,20322.000000,56095.000000
23875.000000,14803.000000,20319.000000,56064.000000
23847.000000,14814.000000,20331.000000,56078.000000
23867.000000,14783.000000,20312.000000,56058.000000
23897.000000,14810.000000,20298.000000,56050.000000
23850.000000,14782.000000,20292.000000,56044.000000
23855.000000,14764.000000,20337.000000,56080.000000
23855.000000,14766.000000,20311.000000,56061.000000
23852.000000,14717.000000,20273.000000,56046.000000
23823.000000,14761.000000,20248.000000,56061.000000
23836.000000,14733.000000,20253.000000,55993.000000
23810.000000,14720.000000,20221.000000,56009.000000
23754.000000,14727.000000,20218.000000,55998.000000
23749.000000,14715.000000,20166.000000,56003.000000
23712.000000,14658.000000,20162.000000,55989.000000
23726.000000,14646.000000,20145.000000,55959.000000
23683.000000,14635.000000,20152.000000,55969.000000
23705.000000,14680.000000,20121.000000,55962.000000
23677.000000,14663.000000,20142.000000,55969.000000
23702.000000,14690.000000,20197.000000,55967.000000
23688.000000,14691.000000,20162.000000,56013.000000
23705.000000,14676.000000,20185.000000,56018.000000
23734.000000,14697.000000,20206.000000,55996.000000
23750.000000,14672.000000,20214.000000,56022.000000
23760.000000,14692.000000,20242.000000,56006.000000
23718.000000,14716.000000,20277.000000,56038.000000
23770.000000,14699.000000,20273.000000,56020.000000
23819.000000,14760.000000,20310.000000,56080.000000
23794.000000,14768.000000,20294.000000,56061.000000
23818.000000,14748.000000,20343.000000,56087.000000
23829.000000,14797.000000,20354.000000,56090.000000
23831.000000,14809.000000,20347.000000,56082.000000
23868.000000,14832.000000,20398.000000,56126.000000
23844.000000,14813.000000,20369.000000,56170.000000
23902.000000,14827.000000,20439.000000,56131.000000
23856.000000,14851.000000,20468.000000,56150.000000
23922.000000,14868.000000,20455.000000,56158.000000
23949.000000,14906.000000,20536.000000,56220.000000
23967.000000,14920.000000,20577.000000,56236.000000
23992.000000,14914.000000,20614.000000,56259.000000
23996.000000,14939.000000,20622.000000,56288.000000
24006.000000,14947.000000,20679.000000,56267.000000
24054.000000,14934.000000,20685.000000,56317.000000
24119.000000,14997.000000,20755.000000,56348.000000
24107.000000,14985.000000,20781.000000,56346.000000
24164.000000,15035.000000,20834.000000,56360.000000
24175.000000,15077.000000,20852.000000,56420.000000
24255.000000,15133.000000,20930.000000,56430.000000
24411.000000,15189.000000,21132.000000,56546.000000
24395.000000,15250.000000,21166.000000,56633.000000
24499.000000,15256.000000,21230.000000,56606.000000
24547.000000,15331.000000,21308.000000,56716.000000
24608.000000,15406.000000,21383.000000,56709.000000
24646.000000,15442.000000,21403.000000,56758.000000
24700.000000,15457.000000,21504.000000,56791.000000
24821.000000,15507.000000,21587.000000,56857.000000
24842.000000,15556.000000,21651.000000,56826.000000
24799.000000,15554.000000,21616.000000,56881.000000
24817.000000,15551.000000,21618.000000,56884.000000
24836.000000,15579.000000,21634.000000,56862.000000
24807.000000,15555.000000,21607.000000,56834.000000
24777.000000,15535.000000,21628.000000,56805.000000
24790.000000,15551.000000,21599.000000,56829.000000
24821.000000,15533.000000,21609.000000,56824.000000
24793.000000,15530.000000,21592.000000,56800.000000
24778.000000,15518.000000,21565.000000,56809.000000
24747.000000,15521.000000,21526.000000,56787.000000
24761.000000,15521.000000,21541.000000,56783.000000
24700.000000,15481.000000,21518.000000,56790.000000
24732.000000,15456.000000,21514.000000,56763.000000
24704.000000,15479.000000,21496.000000,56772.000000
24722.000000,15471.000000,21485.000000,56775.000000
24677.000000,15456.000000,21492.000000,56739.000000
24683.000000,15509.000000,21445.000000,56786.000000
24666.000000,15431.000000,21427.000000,56759.000000
24698.000000,15459.000000,21433.000000,56720.000000
24666.000000,15380.000000,21413.000000,56752.000000
24680.000000,15448.000000,21441.000000,56737.000000
24628.000000,15442.000000,21400.000000,56729.000000
24639.000000,15453.000000,21402.000000,56745.000000
24653.000000,15399.000000,21377.000000,56704.000000
24659.000000,15418.000000,21376.000000,56738.000000
24654.000000,15399.000000,21351.000000,56709.000000
24618.000000,15419.000000,21360.000000,56699.000000
24648.000000,15391.000000,21332.000000,56706.000000
24644.000000,15370.000000,21356.000000,56690.000000
24606.000000,15377.000000,21347.000000,56686.000000
24627.000000,15377.000000,21326.000000,56666.000000
24602.000000,15385.000000,21298.000000,56677.000000
24601.000000,15397.000000,21335.000000,56637.000000
24564.000000,15367.000000,21285.000000,56648.000000
24598.000000,15364.000000,21270.000000,56623.000000
24531.000000,15362.000000,21289.000000,56617.000000
24582.000000,15314.000000,21255.000000,56597.000000
24555.000000,15281.000000,21217.000000,56610.000000
24547.000000,15305.000000,21219.000000,56628.000000
24509.000000,15270.000000,21197.000000,56622.000000
24545.000000,15307.000000,21215.000000,56617.000000
24525.000000,15293.000000,21190.000000,56610.000000
24524.000000,15300.000000,21201.000000,56628.000000
24497.000000,15304.000000,21159.000000,56562.000000
24505.000000,15283.000000,21162.000000,56577.000000
24454.000000,15229.000000,21124.000000,56578.000000
24476.000000,15236.000000,21117.000000,56578.000000
24408.000000,15241.000000,21119.000000,56542.000000
24477.000000,15226.000000,21101.000000,56572.000000
24465.000000,15213.000000,21117.000000,56530.000000
24412.000000,15202.000000,21085.000000,56560.000000
24439.000000,15236.000000,21080.000000,56536.000000
24381.000000,15218.000000,21053.000000,56544.000000
24410.000000,15253.000000,21038.000000,56533.000000
24390.000000,15192.000000,21007.000000,56483.000000
24363.000000,15136.000000,21030.000000,56494.000000
24384.000000,15192.000000,20967.000000,56498.000000
24372.000000,15170.000000,20958.000000,56512.000000
24332.000000,15148.000000,20947.000000,56489.000000
24360.000000,15111.000000,20996.000000,56525.000000
24329.000000,15133.000000,20927.000000,56463.000000
24362.000000,15173.000000,20933.000000,56445.000000
24361.000000,15122.000000,20942.000000,56459.000000
24348.000000,15100.000000,20928.000000,56423.000000
24274.000000,15087.000000,20874.000000,56435.000000
24324.000000,15111.000000,20882.000000,56462.000000
24265.000000,15083.000000,20871.000000,56433.000000
24285.000000,15102.000000,20851.000000,56408.000000
24280.000000,15069.000000,20819.000000,56359.000000
24255.000000,15075.000000,20855.000000,56393.000000
24214.000000,15029.000000,20856.000000,56414.000000
24260.000000,15063.000000,20802.000000,56375.000000
24226.000000,15027.000000,20781.000000,56365.000000
24240.000000,14981.000000,20773.000000,56352.000000
24186.000000,15024.000000,20742.000000,56366.000000
24128.000000,15022.000000,20701.000000,56337.000000
24152.000000,14989.000000,20708.000000,56309.000000
24155.000000,14958.000000,20704.000000,56274.000000
24118.000000,14985.000000,20671.000000,56344.000000
24141.000000,14964.000000,20644.000000,56302.000000
24109.000000,14962.000000,20627.000000,56263.000000
24085.000000,14971.000000,20631.000000,56264.000000
24096.000000,14955.000000,20628.000000,56270.000000
24105.000000,14953.000000,20606.000000,56256.000000
24097.000000,14951.000000,20597.000000,56276.000000
24084.000000,14938.000000,20578.000000,56259.000000
24057.000000,14936.000000,20565.000000,56263.000000
24042.000000,14931.000000,20556.000000,56258.000000
24065.000000,14927.000000,20581.000000,56240.000000
24045.000000,14935.000000,20556.000000,56241.000000
24066.000000,14888.000000,20525.000000,56238.000000
24018.000000,14909.000000,20547.000000,56201.000000
24007.000000,14914.000000,20518.000000,56208.000000
24020.000000,14879.000000,20544.000000,56191.000000
23955.000000,14906.000000,20521.000000,56196.000000
23984.000000,14873.000000,20510.000000,56208.000000
23966.000000,14851.000000,20461.000000,56191.000000
23960.000000,14863.000000,20465.000000,56183.000000
23950.000000,14819.000000,20463.000000,56205.000000
23969.000000,14853.000000,20454.000000,56172.000000
23955.000000,14877.000000,20461.000000,56213.000000
23938.000000,14842.000000,20421.000000,56181.000000
23935.000000,14849.000000,20461.000000,56196.000000
23950.000000,14866.000000,20437.000000,56168.000000
23965.000000,14878.000000,20429.000000,56162.000000
23940.000000,14822.000000,20453.000000,56147.000000
23940.000000,14864.000000,20420.000000,56196.000000
23949.000000,14868.000000,20415.000000,56160.000000
23903.000000,14833.000000,20422.000000,56153.000000
23929.000000,14805.000000,20423.000000,56137.000000
23852.000000,14808.000000,20366.000000,56092.000000
23899.000000,14812.000000,20366.000000,56163.000000
23847.000000,14752.000000,20361.000000,56097.000000
23824.000000,14770.000000,20361.000000,56108.000000
23799.000000,14735.000000,20315.000000,56090.000000
23775.000000,14723.000000,20303.000000,56076.000000
23736.000000,14701.000000,20257.000000,56078.000000
23772.000000,14726.000000,20286.000000,56059.000000
23746.000000,14686.000000,20270.000000,56045.000000
23744.000000,14685.000000,20283.000000,56054.000000
23790.000000,14719.000000,20258.000000,56063.000000
23789.000000,14697.000000,20250.000000,56075.000000
23725.000000,14668.000000,20268.000000,56048.000000
23784.000000,14726.000000,20312.000000,56077.000000
23743.000000,14732.000000,20264.000000,56088.000000
23787.000000,14719.000000,20296.000000,56064.000000
23787.000000,14711.000000,20298.000000,56063.000000
23807.000000,14738.000000,20349.000000,56102.000000
23809.000000,14746.000000,20307.000000,56077.000000
23797.000000,14786.000000,20357.000000,56138.000000
23856.000000,14766.000000,20372.000000,56151.000000
23852.000000,14757.000000,20424.000000,56157.000000
23831.000000,14768.000000,20456.000000,56181.000000
23905.000000,14803.000000,20462.000000,56170.000000
23886.000000,14838.000000,20459.000000,56197.000000
23879.000000,14802.000000,20441.000000,56182.000000
23906.000000,14827.000000,20511.000000,56219.000000
23916.000000,14853.000000,20527.000000,56211.000000
23989.000000,14858.000000,20601.000000,56280.000000
23982.000000,14899.000000,20619.000000,56278.000000
24019.000000,14892.000000,20626.000000,56296.000000
23993.000000,14915.000000,20678.000000,56308.000000
24033.000000,14933.000000,20692.000000,56321.000000
24064.000000,14951.000000,20709.000000,56338.000000
24066.000000,14955.000000,20721.000000,56356.000000
24102.000000,15018.000000,20793.000000,56371.000000
24142.000000,15043.000000,20852.000000,56418.000000
24249.000000,15073.000000,20953.000000,56470.000000
24279.000000,15122.000000,21019.000000,56553.000000
24350.000000,15154.000000,21105.000000,56572.000000
24363.000000,15191.000000,21162.000000,56610.000000
24554.000000,15316.000000,21376.000000,56693.000000
24619.000000,15378.000000,21405.000000,56739.000000
24671.000000,15462.000000,21488.000000,56808.000000
24721.000000,15478.000000,21582.000000,56835.000000
24746.000000,15493.000000,21608.000000,56866.000000
24822.000000,15537.000000,21674.000000,56916.000000
24837.000000,15538.000000,21682.000000,56932.000000
24824.000000,15581.000000,21699.000000,56942.000000
24850.000000,15568.000000,21757.000000,56924.000000
24838.000000,15622.000000,21723.000000,56945.000000
24841.000000,15582.000000,21768.000000,56936.000000
24834.000000,15582.000000,21714.000000,56934.000000
24858.000000,15596.000000,21696.000000,56930.000000
24838.000000,15547.000000,21672.000000,56915.000000
24883.000000,15539.000000,21674.000000,56903.000000
24829.000000,15528.000000,21679.000000,56881.000000
24763.000000,15507.000000,21648.000000,56893.000000
24809.000000,15501.000000,21616.000000,56850.000000
24818.000000,15547.000000,21602.000000,56858.000000
24770.000000,15493.000000,21576.000000,56878.000000
24786.000000,15509.000000,21626.000000,56830.000000
24756.000000,15528.000000,21595.000000,56843.000000
24785.000000,15518.000000,21561.000000,56849.000000
24764.000000,15500.000000,21566.000000,56847.000000
24755.000000,15469.000000,21551.000000,56791.000000
24702.000000,15476.000000,21531.000000,56821.000000
24723.000000,15482.000000,21534.000000,56817.000000
24749.000000,15450.000000,21529.000000,56767.000000
24684.000000,15463.000000,21476.000000,56781.000000
24718.000000,15469.000000,21492.000000,56809.000000
24749.000000,15445.000000,21497.000000,56778.000000
24691.000000,15453.000000,21473.000000,56800.000000
24713.000000,15469.000000,21519.000000,56768.000000
24714.000000,15395.000000,21444.000000,56762.000000
24689.000000,15417.000000,21467.000000,56791.000000
24666.000000,15421.000000,21428.000000,56766.000000
24717.000000,15378.000000,21458.000000,56720.000000
24659.000000,15437.000000,21443.000000,56779.000000
24648.000000,15375.000000,21420.000000,56733.000000
24657.000000,15358.000000,21431.000000,56731.000000
24618.000000,15341.000000,21396.000000,56721.000000
24608.000000,15325.000000,21351.000000,56701.000000
24627.000000,15362.000000,21365.000000,56703.000000
24606.000000,15339.000000,21345.000000,56713.000000
24633.000000,15360.000000,21365.000000,56707.000000
24584.000000,15373.000000,21295.000000,56707.000000
24584.000000,15307.000000,21336.000000,56681.000000
24595.000000,15349.000000,21290.000000,56682.000000
24594.000000,15341.000000,21285.000000,56670.000000
24562.000000,15313.000000,21267.000000,56681.000000
24589.000000,15314.000000,21300.000000,56663.000000
24556.000000,15275.000000,21276.000000,56654.000000
24495.000000,15278.000000,21259.000000,56620.000000
24525.000000,15251.000000,21228.000000,56649.000000
24503.000000,15271.000000,21218.000000,56644.000000
24467.000000,15263.000000,21160.000000,56652.000000
24470.000000,15272.000000,21179.000000,56627.000000
24470.000000,15270.000000,21144.000000,56616.000000
24450.000000,15253.000000,21150.000000,56635.000000
24455.000000,15233.000000,21123.000000,56584.000000
24480.000000,15250.000000,21135.000000,56616.000000
24465.000000,15205.000000,21126.000000,56582.000000
24458.000000,15202.000000,21121.000000,56573.000000
24436.000000,15183.000000,21108.000000,56558.000000
24438.000000,15203.000000,21078.000000,56550.000000
24412.000000,15201.000000,21061.000000,56530.000000
24416.000000,15193.000000,21084.000000,56563.000000
24403.000000,15166.000000,21088.000000,56538.000000
24394.000000,15163.000000,21027.000000,56536.000000
24360.000000,15154.000000,21035.000000,56544.000000
24400.000000,15182.000000,20995.000000,56509.000000
24382.000000,15123.000000,20988.000000,56521.000000
24340.000000,15129.000000,20970.000000,56485.000000
24358.000000,15134.000000,20970.000000,56495.000000
24357.000000,15145.000000,20930.000000,56461.000000
24288.000000,15101.000000,20954.000000,56480.000000
24339.000000,15111.000000,20934.000000,56490.000000
24342.000000,15091.000000,20928.000000,56427.000000
24274.000000,15087.000000,20919.000000,56445.000000
24304.000000,15104.000000,20901.000000,56425.000000
24330.000000,15075.000000,20879.000000,56427.000000
24278.000000,15027.000000,20846.000000,56399.000000
24231.000000,15065.000000,20820.000000,56408.000000
24203.000000,15040.000000,20792.000000,56399.000000
24214.000000,15027.000000,20736.000000,56384.000000
24195.000000,15036.000000,20768.000000,56379.000000
24178.000000,15026.000000,20745.000000,56360.000000
24212.000000,14984.000000,20727.000000,56327.000000
24162.000000,15003.000000,20737.000000,56319.000000
24226.000000,14989.000000,20721.000000,56343.000000
24165.000000,14988.000000,20706.000000,56330.000000
24178.000000,14959.000000,20711.000000,56366.000000
24159.000000,14941.000000,20684.000000,56318.000000
24149.000000,14980.000000,20698.000000,56329.000000
24141.000000,14961.000000,20660.000000,56282.000000
24135.000000,14938.000000,20650.000000,56345.000000
24103.000000,14942.000000,20609.000000,56333.000000
24102.000000,14928.000000,20619.000000,56311.000000
24143.000000,14923.000000,20657.000000,56281.000000
24133.000000,14928.000000,20620.000000,56284.000000
24074.000000,14923.000000,20626.000000,56290.000000
24086.000000,14889.000000,20583.000000,56261.000000
24080.000000,14904.000000,20592.000000,56280.000000
24063.000000,14890.000000,20574.000000,56251.000000
24066.000000,14864.000000,20543.000000,56250.000000
24059.000000,14892.000000,20575.000000,56247.000000
24111.000000,14901.000000,20574.000000,56270.000000
24044.000000,14905.000000,20577.000000,56257.000000
24012.000000,14895.000000,20568.000000,56298.000000
24047.000000,14898.000000,20520.000000,56257.000000
24016.000000,14892.000000,20555.000000,56252.000000
24022.000000,14869.000000,20530.000000,56242.000000
23993.000000,14861.000000,20541.000000,56266.000000
24014.000000,14843.000000,20518.000000,56229.000000
24029.000000,14889.000000,20536.000000,56251.000000
24004.000000,14860.000000,20488.000000,56244.000000
23978.000000,14850.000000,20482.000000,56240.000000
23962.000000,14842.000000,20476.000000,56211.000000
23919.000000,14830.000000,20460.000000,56187.000000
23944.000000,14823.000000,20437.000000,56204.000000
23910.000000,14806.000000,20423.000000,56202.000000
23902.000000,14802.000000,20391.000000,56153.000000
23882.000000,14774.000000,20377.000000,56178.000000
23882.000000,14735.000000,20376.000000,56113.000000
23878.000000,14722.000000,20328.000000,56123.000000
23860.000000,14746.000000,20392.000000,56169.000000
23849.000000,14717.000000,20382.000000,56148.000000
23843.000000,14749.000000,20369.000000,56140.000000
23902.000000,14740.000000,20359.000000,56164.000000
23859.000000,14759.000000,20372.000000,56162.000000
23892.000000,14790.000000,20379.000000,56168.000000
23901.000000,14782.000000,20430.000000,56182.000000
23944.000000,14773.000000,20453.000000,56187.000000
23929.000000,14788.000000,20450.000000,56178.000000
23919.000000,14789.000000,20439.000000,56226.000000
23943.000000,14804.000000,20468.000000,56241.000000
23928.000000,14847.000000,20496.000000,56210.000000
23979.000000,14853.000000,20547.000000,56244.000000
23974.000000,14848.000000,20514.000000,56245.000000
23973.000000,14845.000000,20552.000000,56306.000000
23943.000000,14838.000000,20530.000000,56298.000000
24004.000000,14841.000000,20597.000000,56260.000000
24018.000000,14874.000000,20579.000000,56288.000000
24035.000000,14889.000000,20611.000000,56327.000000
24049.000000,14919.000000,20610.000000,56311.000000
24063.000000,14883.000000,20656.000000,56332.000000
24056.000000,14899.000000,20678.000000,56331.000000
24056.000000,14944.000000,20725.000000,56394.000000
24120.000000,14995.000000,20796.000000,56442.000000
24137.000000,14992.000000,20831.000000,56429.000000
24214.000000,15028.000000,20885.000000,56494.000000
24232.000000,15049.000000,20916.000000,56530.000000
24285.000000,15076.000000,20985.000000,56519.000000
24292.000000,15105.000000,21037.000000,56585.000000
24326.000000,15110.000000,21088.000000,56599.000000
24388.000000,15204.000000,21160.000000,56640.000000
24586.000000,15366.000000,21396.000000,56750.000000
24681.000000,15354.000000,21462.000000,56773.000000
24717.000000,15419.000000,21484.000000,56838.000000
24776.000000,15474.000000,21609.000000,56870.000000
24835.000000,15544.000000,21655.000000,56908.000000
24876.000000,15541.000000,21697.000000,56949.000000
24873.000000,15553.000000,21733.000000,56963.000000
24918.000000,15570.000000,21705.000000,56969.000000
24912.000000,15587.000000,21736.000000,56941.000000
24892.000000,15588.000000,21740.000000,56942.000000
24900.000000,15511.000000,21706.000000,56935.000000
24852.000000,15571.000000,21666.000000,56911.000000
24855.000000,15560.000000,21697.000000,56901.000000
24858.000000,15527.000000,21648.000000,56945.000000
24836.000000,15510.000000,21629.000000,56914.000000
24830.000000,15539.000000,21633.000000,56919.000000
24785.000000,15515.000000,21623.000000,56853.000000
24790.000000,15526.000000,21634.000000,56910.000000
24801.000000,15532.000000,21616.000000,56865.000000
24776.000000,15484.000000,21602.000000,56873.000000
24781.000000,15494.000000,21549.000000,56875.000000
24786.000000,15473.000000,21561.000000,56850.000000
24729.000000,15444.000000,21502.000000,56830.000000
24767.000000,15414.000000,21489.000000,56832.000000
24698.000000,15445.000000,21515.000000,56841.000000
24741.000000,15433.000000,21542.000000,56809.000000
24727.000000,15441.000000,21466.000000,56789.000000
24687.000000,15403.000000,21447.000000,56798.000000
24714.000000,15406.000000,21475.000000,56756.000000
24677.000000,15402.000000,21461.000000,56794.000000
24661.000000,15370.000000,21431.000000,56809.000000
24681.000000,15372.000000,21429.000000,56760.000000
24661.000000,15366.000000,21437.000000,56748.000000
24671.000000,15355.000000,21360.000000,56747.000000
24677.000000,15322.000000,21385.000000,56720.000000
24649.000000,15394.000000,21386.000000,56763.000000
24641.000000,15338.000000,21327.000000,56727.000000
24645.000000,15329.000000,21304.000000,56727.000000
24621.000000,15303.000000,21334.000000,56688.000000
24554.000000,15310.000000,21291.000000,56704.000000
24567.000000,15296.000000,21285.000000,56698.000000
24591.000000,15278.000000,21282.000000,56692.000000
24559.000000,15291.000000,21264.000000,56689.000000
24553.000000,15243.000000,21249.000000,56653.000000
24517.000000,15281.000000,21224.000000,56708.000000
24511.000000,15222.000000,21204.000000,56640.000000
24507.000000,15295.000000,21242.000000,56681.000000
24508.000000,15265.000000,21192.000000,56641.000000
24498.000000,15218.000000,21188.000000,56617.000000
24516.000000,15218.000000,21168.000000,56630.000000
24488.000000,15257.000000,21163.000000,56621.000000
24476.000000,15178.000000,21169.000000,56607.000000
24473.000000,15218.000000,21140.000000,56628.000000
24456.000000,15214.000000,21131.000000,56622.000000
24483.000000,15194.000000,21145.000000,56568.000000
24461.000000,15178.000000,21101.000000,56574.000000
24434.000000,15134.000000,21103.000000,56599.000000
24448.000000,15153.000000,21094.000000,56573.000000
24434.000000,15184.000000,21072.000000,56559.000000
24355.000000,15153.000000,21048.000000,56564.000000
24345.000000,15111.000000,21002.000000,56555.000000
24382.000000,15090.000000,21001.000000,56495.000000
24356.000000,15101.000000,20967.000000,56519.000000
24338.000000,15099.000000,20958.000000,56530.000000
24362.000000,15079.000000,20968.000000,56492.000000
24327.000000,15089.000000,20941.000000,56517.000000
24339.000000,15053.000000,20912.000000,56507.000000
24341.000000,15061.000000,20924.000000,56481.000000
24303.000000,15060.000000,20897.000000,56496.000000
24312.000000,15045.000000,20900.000000,56468.000000
24320.000000,15022.000000,20911.000000,56456.000000
24294.000000,15087.000000,20886.000000,56502.000000
24267.000000,15033.000000,20852.000000,56463.000000
24290.000000,15032.000000,20867.000000,56436.000000
24271.000000,15003.000000,20809.000000,56408.000000
24223.000000,15009.000000,20824.000000,56448.000000
24276.000000,15019.000000,20833.000000,56397.000000
24174.000000,15028.000000,20796.000000,56396.000000
24217.000000,14967.000000,20781.000000,56414.000000
24202.000000,14975.000000,20744.000000,56388.000000
24175.000000,14962.000000,20712.000000,56383.000000
24229.000000,14959.000000,20729.000000,56381.000000
24194.000000,14953.000000,20703.000000,56373.000000
24140.000000,14959.000000,20641.000000,56355.000000
24153.000000,14919.000000,20703.000000,56308.000000
24166.000000,14907.000000,20644.000000,56308.000000
24110.000000,14912.000000,20637.000000,56306.000000
24103.000000,14903.000000,20629.000000,56295.000000
24078.000000,14888.000000,20625.000000,56313.000000
24105.000000,14887.000000,20574.000000,56255.000000
24096.000000,14909.000000,20568.000000,56283.000000
24064.000000,14865.000000,20568.000000,56287.000000
24051.000000,14838.000000,20531.000000,56269.000000
24063.000000,14856.000000,20566.000000,56231.000000
23997.000000,14851.000000,20512.000000,56259.000000
24020.000000,14850.000000,20487.000000,56245.000000
24022.000000,14831.000000,20500.000000,56237.000000
24021.000000,14814.000000,20484.000000,56228.000000
23997.000000,14806.000000,20490.000000,56237.000000
24005.000000,14785.000000,20486.000000,56222.000000
23981.000000,14795.000000,20469.000000,56230.000000
23959.000000,14774.000000,20426.000000,56239.000000
23931.000000,14738.000000,20437.000000,56198.000000
23907.000000,14760.000000,20414.000000,56179.000000
23945.000000,14810.000000,20395.000000,56207.000000
23946.000000,14797.000000,20419.000000,56182.000000
23911.000000,14753.000000,20428.000000,56199.000000
23969.000000,14725.000000,20402.000000,56205.000000
23931.000000,14745.000000,20380.000000,56195.000000
23857.000000,14741.000000,20347.000000,56162.000000
23942.000000,14694.000000,20385.000000,56185.000000
23915.000000,14742.000000,20390.000000,56150.000000
23878.000000,14712.000000,20327.000000,56134.000000
23886.000000,14725.000000,20354.000000,56164.000000
23870.000000,14731.000000,20358.000000,56170.000000
23876.000000,14719.000000,20323.000000,56144.000000
23863.000000,14709.000000,20304.000000,56142.000000
23792.000000,14675.000000,20290.000000,56142.000000
23899.000000,14667.000000,20339.000000,56137.000000
23845.000000,14691.000000,20312.000000,56096.000000
23823.000000,14669.000000,20277.000000,56128.000000
23817.000000,14631.000000,20223.000000,56106.000000
23793.000000,14644.000000,20221.000000,56128.000000
23748.000000,14638.000000,20228.000000,56066.000000
23724.000000,14595.000000,20174.000000,56046.000000
23743.000000,14621.000000,20165.000000,56026.000000
23709.000000,14589.000000,20150.000000,56054.000000
23659.000000,14584.000000,20176.000000,56033.000000
23686.000000,14566.000000,20165.000000,56066.000000
23710.000000,14595.000000,20142.000000,56050.000000
23734.000000,14605.000000,20157.000000,56053.000000
23744.000000,14601.000000,20167.000000,56064.000000
23732.000000,14605.000000,20156.000000,56045.000000
23741.000000,14652.000000,20215.000000,56062.000000
23720.000000,14615.000000,20200.000000,56085.000000
23720.000000,14654.000000,20222.000000,56120.000000
23751.000000,14627.000000,20261.000000,56118.000000
23782.000000,14685.000000,20268.000000,56119.000000
23757.000000,14715.000000,20298.000000,56121.000000
23784.000000,14670.000000,20300.000000,56173.000000
23823.000000,14689.000000,20333.000000,56149.000000
23815.000000,14734.000000,20351.000000,56159.000000
23845.000000,14720.000000,20400.000000,56164.000000
23849.000000,14758.000000,20384.000000,56179.000000
23898.000000,14756.000000,20399.000000,56214.000000
23900.000000,14752.000000,20412.000000,56230.000000
23914.000000,14804.000000,20462.000000,56235.000000
23931.000000,14761.000000,20461.000000,56255.000000
23955.000000,14822.000000,20510.000000,56279.000000
23999.000000,14817.000000,20556.000000,56264.000000
23979.000000,14849.000000,20578.000000,56304.000000
24026.000000,14874.000000,20627.000000,56319.000000
24055.000000,14881.000000,20641.000000,56343.000000
24084.000000,14899.000000,20710.000000,56379.000000
24080.000000,14904.000000,20737.000000,56411.000000
24142.000000,14915.000000,20780.000000,56418.000000
24140.000000,14961.000000,20819.000000,56473.000000
24202.000000,14991.000000,20886.000000,56513.000000
24348.000000,15141.000000,21081.000000,56606.000000
24438.000000,15141.000000,21197.000000,56642.000000
24488.000000,15183.000000,21220.000000,56689.000000
24562.000000,15278.000000,21323.000000,56721.000000
24692.000000,15411.000000,21526.000000,56856.000000
24791.000000,15413.000000,21566.000000,56885.000000
24798.000000,15432.000000,21614.000000,56905.000000
24831.000000,15497.000000,21615.000000,56939.000000
24822.000000,15505.000000,21604.000000,56907.000000
24793.000000,15521.000000,21647.000000,56920.000000
24832.000000,15521.000000,21629.000000,56910.000000
24818.000000,15490.000000,21641.000000,56896.000000
24843.000000,15483.000000,21610.000000,56881.000000
24811.000000,15512.000000,21620.000000,56899.000000
24814.000000,15428.000000,21613.000000,56893.000000
24786.000000,15464.000000,21575.000000,56891.000000
24782.000000,15460.000000,21548.000000,56866.000000
24783.000000,15454.000000,21536.000000,56885.000000
24744.000000,15417.000000,21522.000000,56863.000000
24762.000000,15421.000000,21517.000000,56868.000000
24762.000000,15417.000000,21526.000000,56857.000000
24751.000000,15406.000000,21493.000000,56822.000000
24685.000000,15387.000000,21488.000000,56831.000000
24694.000000,15416.000000,21455.000000,56804.000000
24723.000000,15377.000000,21451.000000,56828.000000
24710.000000,15419.000000,21464.000000,56824.000000
24682.000000,15349.000000,21454.000000,56804.000000
24660.000000,15337.000000,21400.000000,56781.000000
24630.000000,15356.000000,21404.000000,56730.000000
24656.000000,15328.000000,21391.000000,56729.000000
24640.000000,15331.000000,21330.000000,56753.000000
24665.000000,15286.000000,21339.000000,56748.000000
24635.000000,15279.000000,21349.000000,56739.000000
24617.000000,15295.000000,21335.000000,56682.000000
24586.000000,15257.000000,21327.000000,56715.000000
24592.000000,15255.000000,21310.000000,56747.000000
24645.000000,15243.000000,21307.000000,56738.000000
24595.000000,15285.000000,21265.000000,56704.000000
24573.000000,15265.000000,21318.000000,56709.000000
24564.000000,15236.000000,21241.000000,56714.000000
24579.000000,15263.000000,21234.000000,56717.000000
24556.000000,15246.000000,21259.000000,56676.000000
24574.000000,15220.000000,21203.000000,56672.000000
24576.000000,15208.000000,21204.000000,56637.000000
24522.000000,15245.000000,21216.000000,56673.000000
24548.000000,15220.000000,21159.000000,56659.000000
24546.000000,15177.000000,21184.000000,56667.000000
24506.000000,15218.000000,21179.000000,56649.000000
24507.000000,15167.000000,21120.000000,56635.000000
24478.000000,15160.000000,21149.000000,56646.000000
24515.000000,15154.000000,21125.000000,56582.000000
24477.000000,15155.000000,21080.000000,56615.000000
24458.000000,15177.000000,21104.000000,56621.000000
24499.000000,15163.000000,21085.000000,56603.000000
24421.000000,15121.000000,21040.000000,56595.000000
24437.000000,15145.000000,21079.000000,56605.000000
24407.000000,15119.000000,21103.000000,56570.000000
24418.000000,15133.000000,21050.000000,56552.000000
24430.000000,15101.000000,21029.000000,56569.000000
24391.000000,15124.000000,21020.000000,56552.000000
24414.000000,15085.000000,20978.000000,56549.000000
24387.000000,15052.000000,20964.000000,56539.000000
24323.000000,15075.000000,20952.000000,56547.000000
24343.000000,15025.000000,20931.000000,56522.000000
24398.000000,15040.000000,20979.000000,56513.000000
24323.000000,15044.000000,20929.000000,56469.000000
24329.000000,15056.000000,20887.000000,56513.000000
24352.000000,15048.000000,20871.000000,56478.000000
24320.000000,15050.000000,20898.000000,56515.000000
24360.000000,15042.000000,20854.000000,56477.000000
24321.000000,15002.000000,20878.000000,56453.000000
24287.000000,15026.000000,20846.000000,56483.000000
24334.000000,14986.000000,20874.000000,56452.000000
24292.000000,15018.000000,20860.000000,56473.000000
24273.000000,14991.000000,20856.000000,56456.000000
24270.000000,15020.000000,20784.000000,56452.000000
24269.000000,14980.000000,20802.000000,56418.000000
24241.000000,14945.000000,20789.000000,56414.000000
24265.000000,14994.000000,20789.000000,56410.000000
24219.000000,14982.000000,20769.000000,56426.000000
24245.000000,14944.000000,20753.000000,56385.000000
24241.000000,14914.000000,20721.000000,56432.000000
24201.000000,14978.000000,20713.000000,56364.000000
24192.000000,14928.000000,20728.000000,56377.000000
24195.000000,14937.000000,20662.000000,56392.000000
24183.000000,14914.000000,20667.000000,56362.000000
24174.000000,14888.000000,20675.000000,56366.000000
24170.000000,14903.000000,20654.000000,56335.000000
24141.000000,14956.000000,20622.000000,56336.000000
24155.000000,14897.000000,20565.000000,56347.000000
24161.000000,14899.000000,20598.000000,56328.000000
24111.000000,14890.000000,20616.000000,56343.000000
24119.000000,14878.000000,20554.000000,56288.000000
24115.000000,14858.000000,20534.000000,56283.000000
24081.000000,14894.000000,20512.000000,56259.000000
24090.000000,14825.000000,20518.000000,56301.000000
24091.000000,14849.000000,20491.000000,56276.000000
24056.000000,14805.000000,20508.000000,56242.000000
24072.000000,14797.000000,20471.000000,56246.000000
24039.000000,14814.000000,20438.000000,56246.000000
24032.000000,14784.000000,20456.000000,56215.000000
23996.000000,14776.000000,20415.000000,56214.000000
23993.000000,14761.000000,20399.000000,56175.000000
23943.000000,14726.000000,20416.000000,56181.000000
23958.000000,14734.000000,20366.000000,56191.000000
23948.000000,14727.000000,20359.000000,56191.000000
23962.000000,14711.000000,20361.000000,56158.000000
23936.000000,14731.000000,20353.000000,56163.000000
23959.000000,14683.000000,20341.000000,56166.000000
23907.000000,14735.000000,20335.000000,56182.000000
23916.000000,14678.000000,20328.000000,56127.000000
23905.000000,14725.000000,20335.000000,56134.000000
23894.000000,14685.000000,20319.000000,56148.000000
23914.000000,14679.000000,20305.000000,56168.000000
23882.000000,14658.000000,20289.000000,56139.000000
23888.000000,14653.000000,20273.000000,56139.000000
23895.000000,14658.000000,20292.000000,56155.000000
23865.000000,14668.000000,20293.000000,56101.000000
23892.000000,14633.000000,20240.000000,56105.000000
23864.000000,14699.000000,20251.000000,56154.000000
23857.000000,14654.000000,20282.000000,56114.000000
23870.000000,14669.000000,20230.000000,56129.000000
23856.000000,14639.000000,20220.000000,56108.000000
23845.000000,14627.000000,20218.000000,56085.000000
23811.000000,14595.000000,20188.000000,56098.000000
23818.000000,14569.000000,20185.000000,56045.000000
23813.000000,14598.000000,20175.000000,56046.000000
23780.000000,14572.000000,20151.000000,56048.000000
23739.000000,14534.000000,20069.000000,56033.000000
23718.000000,14574.000000,20098.000000,56044.000000
23720.000000,14542.000000,20075.000000,56016.000000
23698.000000,14551.000000,20073.000000,55978.000000
23696.000000,14519.000000,20040.000000,56009.000000
23693.000000,14521.000000,20035.000000,56017.000000
23677.000000,14510.000000,20065.000000,56026.000000
23684.000000,14478.000000,20034.000000,56000.000000
23638.000000,14491.000000,20027.000000,55990.000000
23654.000000,14491.000000,20035.000000,55954.000000
23675.000000,14501.000000,20069.000000,55984.000000
23659.000000,14506.000000,20037.000000,56020.000000
23644.000000,14481.000000,20081.000000,56024.000000
23704.000000,14529.000000,20109.000000,56029.000000
23699.000000,14553.000000,20134.000000,56085.000000
23732.000000,14548.000000,20133.000000,56031.000000
23742.000000,14592.000000,20188.000000,56108.000000
23723.000000,14588.000000,20180.000000,56125.000000
23771.000000,14589.000000,20219.000000,56107.000000
23806.000000,14649.000000,20239.000000,56140.000000
23823.000000,14639.000000,20282.000000,56134.000000
23850.000000,14664.000000,20283.000000,56115.000000
23801.000000,14669.000000,20338.000000,56191.000000
23853.000000,14634.000000,20307.000000,56180.000000
23876.000000,14654.000000,20351.000000,56191.000000
23834.000000,14678.000000,20329.000000,56226.000000
23863.000000,14712.000000,20376.000000,56216.000000
23879.000000,14733.000000,20415.000000,56203.000000
23921.000000,14748.000000,20452.000000,56237.000000
23924.000000,14707.000000,20465.000000,56236.000000
23944.000000,14779.000000,20494.000000,56279.000000
23972.000000,14745.000000,20540.000000,56280.000000
24035.000000,14778.000000,20558.000000,56306.000000
24021.000000,14827.000000,20573.000000,56347.000000
24075.000000,14857.000000,20673.000000,56364.000000
24116.000000,14872.000000,20685.000000,56376.000000
24106.000000,14902.000000,20740.000000,56429.000000
24289.000000,14957.000000,20893.000000,56527.000000
24305.000000,15047.000000,20987.000000,56580.000000
24338.000000,15090.000000,21015.000000,56635.000000
24416.000000,15128.000000,21109.000000,56660.000000
24462.000000,15183.000000,21194.000000,56682.000000
24535.000000,15183.000000,21276.000000,56711.000000
24591.000000,15240.000000,21307.000000,56762.000000
