660nm,730nm,850nm,940nm
28512.000000,17213.000000,20689.000000,54767.000000
28539.000000,17238.000000,20676.000000,54799.000000
28514.000000,17185.000000,20694.000000,54725.000000
28468.000000,17180.000000,20627.000000,54762.000000
28468.000000,17195.000000,20614.000000,54766.000000
28470.000000,17200.000000,20593.000000,54746.000000
28439.000000,17178.000000,20615.000000,54720.000000
28455.000000,17158.000000,20543.000000,54713.000000
28426.000000,17151.000000,20546.000000,54685.000000
28328.000000,17080.000000,20538.000000,54717.000000
28336.000000,17134.000000,20531.000000,54684.000000
28326.000000,17119.000000,20521.000000,54669.000000
28334.000000,17075.000000,20524.000000,54688.000000
28342.000000,17106.000000,20522.000000,54643.000000
28328.000000,17116.000000,20498.000000,54584.000000
28309.000000,17064.000000,20439.000000,54644.000000
28292.000000,17061.000000,20447.000000,54635.000000
28266.000000,17056.000000,20419.000000,54636.000000
28242.000000,17065.000000,20420.000000,54596.000000
28260.000000,17063.000000,20420.000000,54642.000000
28246.000000,17067.000000,20367.000000,54626.000000
28253.000000,17061.000000,20446.000000,54580.000000
28211.000000,17029.000000,20411.000000,54576.000000
28206.000000,16988.000000,20392.000000,54582.000000
28207.000000,16998.000000,20367.000000,54564.000000
28167.000000,17002.000000,20365.000000,54552.000000
28174.000000,17009.000000,20337.000000,54554.000000
28110.000000,16975.000000,20274.000000,54559.000000
28092.000000,16962.000000,20263.000000,54525.000000
28131.000000,16978.000000,20290.000000,54527.000000
28112.000000,16964.000000,20286.000000,54514.000000
28114.000000,16934.000000,20291.000000,54545.000000
28068.000000,16929.000000,20241.000000,54512.000000
28084.000000,16936.000000,20215.000000,54508.000000
28031.000000,16906.000000,20207.000000,54534.000000
28011.000000,16934.000000,20216.000000,54502.000000
28018.000000,16908.000000,20204.000000,54502.000000
28027.000000,16902.000000,20199.000000,54465.000000
28040.000000,16891.000000,20156.000000,54476.000000
28065.000000,16870.000000,20164.000000,54463.000000
27973.000000,16889.000000,20168.000000,54486.000000
27969.000000,16896.000000,20141.000000,54421.000000
27891.000000,16855.000000,20076.000000,54454.000000
27917.000000,16793.000000,20115.000000,54405.000000
27876.000000,16820.000000,20103.000000,54371.000000
27881.000000,16853.000000,20070.000000,54412.000000
27888.000000,16852.000000,20054.000000,54424.000000
27868.000000,16835.000000,20017.000000,54418.000000
27856.000000,16785.000000,20044.000000,54399.000000
27841.000000,16800.000000,20103.000000,54393.000000
27847.000000,16829.000000,20086.000000,54385.000000
27905.000000,16780.000000,20132.000000,54427.000000
27868.000000,16828.000000,20128.000000,54446.000000
27919.000000,16883.000000,20120.000000,54412.000000
27899.000000,16860.000000,20186.000000,54461.000000
27910.000000,16873.000000,20191.000000,54487.000000
27955.000000,16914.000000,20245.000000,54486.000000
28010.000000,16985.000000,20341.000000,54559.000000
28013.000000,16979.000000,20296.000000,54552.000000
28056.000000,16997.000000,20373.000000,54548.000000
28075.000000,17008.000000,20414.000000,54572.000000
28069.000000,17060.000000,20454.000000,54624.000000
28351.000000,17230.000000,20687.000000,54731.000000
28415.000000,17224.000000,20736.000000,54756.000000
28458.000000,17295.000000,20809.000000,54769.000000
28553.000000,17402.000000,20947.000000,54881.000000
28563.000000,17428.000000,21022.000000,54932.000000
28666.000000,17448.000000,21124.000000,54947.000000
28654.000000,17452.000000,21069.000000,54963.000000
28651.000000,17468.000000,21091.000000,54943.000000
28680.000000,17488.000000,21098.000000,54924.000000
28627.000000,17452.000000,21053.000000,54877.000000
28624.000000,17401.000000,21054.000000,54863.000000
28613.000000,17403.000000,21043.000000,54886.000000
28601.000000,17428.000000,20984.000000,54914.000000
28536.000000,17357.000000,20961.000000,54878.000000
28522.000000,17377.000000,20918.000000,54817.000000
28520.000000,17343.000000,20903.000000,54800.000000
28527.000000,17307.000000,20946.000000,54837.000000
28441.000000,17324.000000,20819.000000,54801.000000
28466.000000,17271.000000,20818.000000,54783.000000
28467.000000,17290.000000,20789.000000,54762.000000
28379.000000,17295.000000,20744.000000,54782.000000
28347.000000,17225.000000,20675.000000,54748.000000
28337.000000,17227.000000,20666.000000,54683.000000
28308.000000,17184.000000,20695.000000,54703.000000
28322.000000,17213.000000,20645.000000,54709.000000
28292.000000,17206.000000,20643.000000,54695.000000
28231.000000,17139.000000,20524.000000,54609.000000
28214.000000,17136.000000,20520.000000,54631.000000
28210.000000,17147.000000,20500.000000,54644.000000
28192.000000,17087.000000,20495.000000,54616.000000
28184.000000,17078.000000,20507.000000,54588.000000
28116.000000,17057.000000,20373.000000,54549.000000
28098.000000,17040.000000,20379.000000,54569.000000
28146.000000,16991.000000,20348.000000,54537.000000
28093.000000,17023.000000,20336.000000,54530.000000
28081.000000,16975.000000,20287.000000,54517.000000
28045.000000,17003.000000,20289.000000,54510.000000
27950.000000,16898.000000,20190.000000,54481.000000
27965.000000,16914.000000,20182.000000,54466.000000
27959.000000,16874.000000,20210.000000,54475.000000
27929.000000,16848.000000,20169.000000,54446.000000
27910.000000,16864.000000,20136.000000,54456.000000
27883.000000,16828.000000,20086.000000,54374.000000
27849.000000,16846.000000,20083.000000,54367.000000
27856.000000,16826.000000,20036.000000,54323.000000
27823.000000,16775.000000,20027.000000,54371.000000
27822.000000,16818.000000,20030.000000,54387.000000
27796.000000,16783.000000,20024.000000,54381.000000
27801.000000,16805.000000,19987.000000,54347.000000
27789.000000,16767.000000,20028.000000,54354.000000
27814.000000,16804.000000,20010.000000,54363.000000
27816.000000,16786.000000,20021.000000,54352.000000
27817.000000,16756.000000,20010.000000,54356.000000
27766.000000,16743.000000,19994.000000,54333.000000
27751.000000,16713.000000,19965.000000,54308.000000
27743.000000,16726.000000,19982.000000,54304.000000
27734.000000,16716.000000,19923.000000,54321.000000
27661.000000,16707.000000,19918.000000,54301.000000
27648.000000,16680.000000,19953.000000,54292.000000
27681.000000,16697.000000,19940.000000,54312.000000
27655.000000,16691.000000,19909.000000,54307.000000
27702.000000,16688.000000,19915.000000,54324.000000
27656.000000,16674.000000,19938.000000,54283.000000
27685.000000,16713.000000,19958.000000,54328.000000
27722.000000,16739.000000,19959.000000,54359.000000
27787.000000,16808.000000,20020.000000,54344.000000
27746.000000,16789.000000,20046.000000,54410.000000
27795.000000,16794.000000,20022.000000,54373.000000
27811.000000,16791.000000,20088.000000,54390.000000
27901.000000,16865.000000,20196.000000,54447.000000
27885.000000,16889.000000,20209.000000,54465.000000
27917.000000,16842.000000,20263.000000,54515.000000
27946.000000,16909.000000,20294.000000,54483.000000
28176.000000,17072.000000,20492.000000,54633.000000
28160.000000,17149.000000,20600.000000,54673.000000
28220.000000,17110.000000,20650.000000,54713.000000
28280.000000,17182.000000,20727.000000,54738.000000
28362.000000,17220.000000,20817.000000,54768.000000
28546.000000,17332.000000,21029.000000,54874.000000
28663.000000,17473.000000,21168.000000,54951.000000
28704.000000,17434.000000,21185.000000,54964.000000
28705.000000,17453.000000,21143.000000,55020.000000
28683.000000,17482.000000,21164.000000,54969.000000
28668.000000,17472.000000,21150.000000,54934.000000
28653.000000,17485.000000,21102.000000,54962.000000
28637.000000,17443.000000,21109.000000,54939.000000
28588.000000,17413.000000,21124.000000,54957.000000
28626.000000,17441.000000,21103.000000,54984.000000
28630.000000,17433.000000,21049.000000,54926.000000
28607.000000,17393.000000,21057.000000,54902.000000
28558.000000,17418.000000,21019.000000,54911.000000
28595.000000,17353.000000,21046.000000,54902.000000
28539.000000,17381.000000,20956.000000,54873.000000
28522.000000,17337.000000,20979.000000,54875.000000
28554.000000,17335.000000,20921.000000,54887.000000
28499.000000,17317.000000,20954.000000,54834.000000
28461.000000,17304.000000,20900.000000,54831.000000
28445.000000,17317.000000,20871.000000,54847.000000
28428.000000,17306.000000,20846.000000,54821.000000
28462.000000,17291.000000,20817.000000,54776.000000
28446.000000,17289.000000,20795.000000,54790.000000
28333.000000,17224.000000,20721.000000,54753.000000
28331.000000,17195.000000,20724.000000,54737.000000
28280.000000,17193.000000,20700.000000,54770.000000
28305.000000,17149.000000,20682.000000,54708.000000
28260.000000,17155.000000,20670.000000,54689.000000
28222.000000,17141.000000,20571.000000,54674.000000
28218.000000,17140.000000,20549.000000,54651.000000
28171.000000,17123.000000,20534.000000,54647.000000
28197.000000,17120.000000,20547.000000,54647.000000
28108.000000,17000.000000,20445.000000,54570.000000
28110.000000,17046.000000,20437.000000,54595.000000
28107.000000,17022.000000,20416.000000,54602.000000
28113.000000,16997.000000,20428.000000,54586.000000
28029.000000,17008.000000,20356.000000,54524.000000
28036.000000,16981.000000,20315.000000,54525.000000
27994.000000,16953.000000,20323.000000,54538.000000
27985.000000,16917.000000,20275.000000,54549.000000
27969.000000,16909.000000,20333.000000,54518.000000
27982.000000,16915.000000,20284.000000,54491.000000
27980.000000,16942.000000,20296.000000,54479.000000
27906.000000,16895.000000,20220.000000,54461.000000
27886.000000,16861.000000,20243.000000,54475.000000
27952.000000,16911.000000,20188.000000,54473.000000
27896.000000,16882.000000,20188.000000,54430.000000
27888.000000,16846.000000,20166.000000,54465.000000
27864.000000,16876.000000,20190.000000,54434.000000
27867.000000,16846.000000,20180.000000,54447.000000
27852.000000,16811.000000,20176.000000,54422.000000
27822.000000,16824.000000,20101.000000,54376.000000
27805.000000,16808.000000,20070.000000,54376.000000
27772.000000,16804.000000,20047.000000,54360.000000
27760.000000,16770.000000,20061.000000,54355.000000
27726.000000,16736.000000,19997.000000,54372.000000
27714.000000,16719.000000,20009.000000,54355.000000
27682.000000,16756.000000,19983.000000,54334.000000
27702.000000,16718.000000,20038.000000,54335.000000
27713.000000,16738.000000,20032.000000,54358.000000
27709.000000,16770.000000,20037.000000,54375.000000
27798.000000,16780.000000,20089.000000,54383.000000
27791.000000,16783.000000,20114.000000,54366.000000
27777.000000,16812.000000,20118.000000,54424.000000
27800.000000,16771.000000,20117.000000,54405.000000
27846.000000,16872.000000,20198.000000,54475.000000
27870.000000,16886.000000,20192.000000,54468.000000
27920.000000,16912.000000,20326.000000,54547.000000
27961.000000,16955.000000,20358.000000,54569.000000
27988.000000,16982.000000,20387.000000,54597.000000
28035.000000,16974.000000,20445.000000,54582.000000
28205.000000,17161.000000,20658.000000,54745.000000
28299.000000,17214.000000,20730.000000,54751.000000
28373.000000,17214.000000,20843.000000,54812.000000
28537.000000,17358.000000,21010.000000,54886.000000
28635.000000,17442.000000,21147.000000,54994.000000
28668.000000,17482.000000,21219.000000,55019.000000
28691.000000,17495.000000,21188.000000,55032.000000
28692.000000,17510.000000,21153.000000,54996.000000
28641.000000,17441.000000,21172.000000,54948.000000
28654.000000,17442.000000,21122.000000,54967.000000
28668.000000,17436.000000,21126.000000,54971.000000
28675.000000,17444.000000,21108.000000,54944.000000
28576.000000,17390.000000,21055.000000,54909.000000
28545.000000,17365.000000,21006.000000,54964.000000
28526.000000,17391.000000,21031.000000,54926.000000
28530.000000,17366.000000,20999.000000,54918.000000
28534.000000,17331.000000,20918.000000,54871.000000
28488.000000,17320.000000,20950.000000,54840.000000
28473.000000,17329.000000,20914.000000,54845.000000
28428.000000,17294.000000,20911.000000,54883.000000
28458.000000,17277.000000,20925.000000,54832.000000
28428.000000,17266.000000,20878.000000,54840.000000
28420.000000,17275.000000,20870.000000,54827.000000
28372.000000,17230.000000,20792.000000,54786.000000
28395.000000,17231.000000,20797.000000,54776.000000
28348.000000,17216.000000,20785.000000,54770.000000
28343.000000,17232.000000,20737.000000,54752.000000
28333.000000,17217.000000,20761.000000,54744.000000
28307.000000,17206.000000,20730.000000,54743.000000
28231.000000,17170.000000,20658.000000,54696.000000
28256.000000,17107.000000,20659.000000,54717.000000
28260.000000,17124.000000,20618.000000,54680.000000
28197.000000,17146.000000,20632.000000,54670.000000
28232.000000,17120.000000,20586.000000,54688.000000
28194.000000,17119.000000,20557.000000,54615.000000
28156.000000,17076.000000,20520.000000,54647.000000
28134.000000,17098.000000,20494.000000,54651.000000
28116.000000,17029.000000,20454.000000,54575.000000
28075.000000,17026.000000,20410.000000,54588.000000
28069.000000,16989.000000,20437.000000,54544.000000
28066.000000,16996.000000,20393.000000,54587.000000
28012.000000,16993.000000,20390.000000,54552.000000
28036.000000,16984.000000,20407.000000,54553.000000
28006.000000,16968.000000,20344.000000,54547.000000
27983.000000,16947.000000,20350.000000,54551.000000
27968.000000,16922.000000,20314.000000,54498.000000
27972.000000,16941.000000,20307.000000,54488.000000
27906.000000,16863.000000,20229.000000,54485.000000
27939.000000,16885.000000,20247.000000,54456.000000
27912.000000,16892.000000,20252.000000,54461.000000
27907.000000,16880.000000,20217.000000,54483.000000
27874.000000,16857.000000,20212.000000,54473.000000
27830.000000,16803.000000,20139.000000,54440.000000
27831.000000,16788.000000,20148.000000,54397.000000
27788.000000,16836.000000,20107.000000,54423.000000
27775.000000,16791.000000,20130.000000,54405.000000
27734.000000,16793.000000,20051.000000,54342.000000
27768.000000,16783.000000,20033.000000,54376.000000
27714.000000,16758.000000,20048.000000,54334.000000
27728.000000,16724.000000,20023.000000,54349.000000
27717.000000,16745.000000,20016.000000,54363.000000
27735.000000,16710.000000,20001.000000,54350.000000
27716.000000,16729.000000,20062.000000,54349.000000
27702.000000,16744.000000,20053.000000,54366.000000
27763.000000,16750.000000,20035.000000,54358.000000
27782.000000,16770.000000,20088.000000,54420.000000
27773.000000,16751.000000,20074.000000,54424.000000
27727.000000,16788.000000,20146.000000,54431.000000
27781.000000,16796.000000,20144.000000,54453.000000
27900.000000,16843.000000,20255.000000,54461.000000
27902.000000,16851.000000,20278.000000,54516.000000
27940.000000,16859.000000,20266.000000,54526.000000
27951.000000,16931.000000,20339.000000,54572.000000
28136.000000,17060.000000,20514.000000,54665.000000
28160.000000,17084.000000,20592.000000,54677.000000
28220.000000,17120.000000,20615.000000,54721.000000
28290.000000,17174.000000,20707.000000,54761.000000
28578.000000,17305.000000,20983.000000,54908.000000
28504.000000,17338.000000,20982.000000,54907.000000
28546.000000,17348.000000,21049.000000,54898.000000
28553.000000,17396.000000,21026.000000,54942.000000
28597.000000,17362.000000,21079.000000,54921.000000
28588.000000,17373.000000,21038.000000,54898.000000
28614.000000,17374.000000,20992.000000,54908.000000
28495.000000,17336.000000,20955.000000,54905.000000
28528.000000,17368.000000,20981.000000,54905.000000
28529.000000,17344.000000,20982.000000,54880.000000
28503.000000,17300.000000,20972.000000,54850.000000
28458.000000,17313.000000,20893.000000,54841.000000
28463.000000,17266.000000,20906.000000,54856.000000
28489.000000,17295.000000,20891.000000,54840.000000
28421.000000,17229.000000,20886.000000,54828.000000
28399.000000,17240.000000,20856.000000,54798.000000
28384.000000,17208.000000,20784.000000,54775.000000
28347.000000,17218.000000,20784.000000,54780.000000
28382.000000,17194.000000,20785.000000,54745.000000
28390.000000,17199.000000,20787.000000,54750.000000
28350.000000,17200.000000,20735.000000,54758.000000
28260.000000,17195.000000,20663.000000,54762.000000
28270.000000,17142.000000,20684.000000,54748.000000
28220.000000,17130.000000,20667.000000,54709.000000
28239.000000,17157.000000,20659.000000,54729.000000
28187.000000,17090.000000,20599.000000,54673.000000
28187.000000,17098.000000,20613.000000,54654.000000
28180.000000,17095.000000,20579.000000,54653.000000
28176.000000,17015.000000,20488.000000,54629.000000
28132.000000,17075.000000,20472.000000,54610.000000
28144.000000,17060.000000,20484.000000,54596.000000
28088.000000,17009.000000,20420.000000,54631.000000
28092.000000,17017.000000,20439.000000,54582.000000
28119.000000,17036.000000,20436.000000,54564.000000
28003.000000,16946.000000,20373.000000,54557.000000
28034.000000,16952.000000,20332.000000,54572.000000
28030.000000,16953.000000,20348.000000,54552.000000
28025.000000,16946.000000,20327.000000,54545.000000
28038.000000,16915.000000,20294.000000,54524.000000
27943.000000,16909.000000,20256.000000,54513.000000
27882.000000,16894.000000,20256.000000,54482.000000
27907.000000,16906.000000,20235.000000,54473.000000
27901.000000,16891.000000,20209.000000,54446.000000
27896.000000,16885.000000,20191.000000,54453.000000
27867.000000,16784.000000,20188.000000,54447.000000
27843.000000,16857.000000,20161.000000,54433.000000
27828.000000,16855.000000,20156.000000,54414.000000
27824.000000,16806.000000,20126.000000,54446.000000
27800.000000,16825.000000,20065.000000,54413.000000
27761.000000,16777.000000,20051.000000,54415.000000
27728.000000,16780.000000,20078.000000,54359.000000
27683.000000,16726.000000,20030.000000,54343.000000
27689.000000,16753.000000,20017.000000,54366.000000
27686.000000,16718.000000,20007.000000,54357.000000
27686.000000,16698.000000,19946.000000,54363.000000
27691.000000,16715.000000,19957.000000,54298.000000
27636.000000,16708.000000,19936.000000,54319.000000
27643.000000,16673.000000,19954.000000,54312.000000
27624.000000,16654.000000,19984.000000,54326.000000
27633.000000,16708.000000,19956.000000,54311.000000
27706.000000,16724.000000,20005.000000,54348.000000
27699.000000,16709.000000,20015.000000,54348.000000
27712.000000,16750.000000,20016.000000,54354.000000
27684.000000,16749.000000,20054.000000,54384.000000
27669.000000,16725.000000,20101.000000,54376.000000
27701.000000,16761.000000,20114.000000,54399.000000
27816.000000,16829.000000,20200.000000,54429.000000
27813.000000,16806.000000,20203.000000,54485.000000
27804.000000,16824.000000,20188.000000,54482.000000
27881.000000,16866.000000,20305.000000,54504.000000
28022.000000,17024.000000,20455.000000,54604.000000
28079.000000,17014.000000,20485.000000,54649.000000
28139.000000,17042.000000,20560.000000,54683.000000
28152.000000,17097.000000,20662.000000,54706.000000
28232.000000,17157.000000,20685.000000,54781.000000
28378.000000,17275.000000,20873.000000,54832.000000
28414.000000,17259.000000,20893.000000,54850.000000
28437.000000,17280.000000,20870.000000,54846.000000
28416.000000,17258.000000,20909.000000,54856.000000
28413.000000,17281.000000,20861.000000,54846.000000
28416.000000,17265.000000,20899.000000,54815.000000
28418.000000,17281.000000,20835.000000,54837.000000
28381.000000,17209.000000,20848.000000,54796.000000
28396.000000,17194.000000,20855.000000,54828.000000
28379.000000,17216.000000,20786.000000,54774.000000
28388.000000,17238.000000,20828.000000,54780.000000
28359.000000,17243.000000,20805.000000,54806.000000
28315.000000,17195.000000,20720.000000,54795.000000
28330.000000,17150.000000,20742.000000,54787.000000
28331.000000,17178.000000,20761.000000,54774.000000
28295.000000,17177.000000,20716.000000,54746.000000
28312.000000,17144.000000,20727.000000,54748.000000
28311.000000,17183.000000,20668.000000,54736.000000
28261.000000,17150.000000,20667.000000,54749.000000
28225.000000,17099.000000,20659.000000,54717.000000
28259.000000,17155.000000,20679.000000,54696.000000
28220.000000,17100.000000,20608.000000,54675.000000
28192.000000,17087.000000,20595.000000,54658.000000
28195.000000,17075.000000,20539.000000,54682.000000
28189.000000,17038.000000,20552.000000,54662.000000
28166.000000,17044.000000,20478.000000,54639.000000
28133.000000,17016.000000,20452.000000,54632.000000
28131.000000,16983.000000,20478.000000,54637.000000
28125.000000,16970.000000,20458.000000,54629.000000
28059.000000,16908.000000,20364.000000,54556.000000
28041.000000,16920.000000,20379.000000,54543.000000
28058.000000,16918.000000,20332.000000,54567.000000
28027.000000,16908.000000,20358.000000,54524.000000
28016.000000,16861.000000,20355.000000,54545.000000
27979.000000,16888.000000,20241.000000,54528.000000
27986.000000,16879.000000,20244.000000,54492.000000
27937.000000,16839.000000,20251.000000,54485.000000
27911.000000,16856.000000,20223.000000,54481.000000
27931.000000,16809.000000,20178.000000,54444.000000
27908.000000,16816.000000,20179.000000,54473.000000
27923.000000,16810.000000,20132.000000,54451.000000
27883.000000,16807.000000,20148.000000,54473.000000
27874.000000,16749.000000,20165.000000,54454.000000
27889.000000,16792.000000,20110.000000,54469.000000
27874.000000,16823.000000,20122.000000,54487.000000
27889.000000,16766.000000,20141.000000,54481.000000
27910.000000,16779.000000,20125.000000,54458.000000
27834.000000,16772.000000,20079.000000,54462.000000
27846.000000,16798.000000,20113.000000,54435.000000
27869.000000,16746.000000,20127.000000,54429.000000
27904.000000,16780.000000,20137.000000,54410.000000
27858.000000,16818.000000,20155.000000,54444.000000
27871.000000,16775.000000,20149.000000,54421.000000
27837.000000,16783.000000,20107.000000,54455.000000
27822.000000,16795.000000,20152.000000,54457.000000
27822.000000,16830.000000,20150.000000,54446.000000
27832.000000,16840.000000,20155.000000,54448.000000
27899.000000,16785.000000,20196.000000,54470.000000
27863.000000,16870.000000,20222.000000,54506.000000
27867.000000,16809.000000,20261.000000,54440.000000
27876.000000,16867.000000,20259.000000,54499.000000
27898.000000,16869.000000,20228.000000,54573.000000
27926.000000,16909.000000,20303.000000,54555.000000
27939.000000,16901.000000,20319.000000,54533.000000
27975.000000,16967.000000,20429.000000,54602.000000
27993.000000,17012.000000,20453.000000,54570.000000
28004.000000,16969.000000,20466.000000,54612.000000
28033.000000,17045.000000,20490.000000,54637.000000
28203.000000,17114.000000,20644.000000,54724.000000
28209.000000,17161.000000,20694.000000,54761.000000
28304.000000,17202.000000,20768.000000,54796.000000
28492.000000,17320.000000,21008.000000,54932.000000
28563.000000,17383.000000,21079.000000,54976.000000
28591.000000,17411.000000,21145.000000,55020.000000
28637.000000,17438.000000,21201.000000,54982.000000
28671.000000,17508.000000,21232.000000,55031.000000
28789.000000,17584.000000,21307.000000,55094.000000
28746.000000,17522.000000,21308.000000,55066.000000
28743.000000,17548.000000,21288.000000,55131.000000
28771.000000,17540.000000,21305.000000,55095.000000
28687.000000,17522.000000,21266.000000,55065.000000
28693.000000,17493.000000,21268.000000,55071.000000
28686.000000,17474.000000,21259.000000,55046.000000
28683.000000,17489.000000,21228.000000,55003.000000
28668.000000,17501.000000,21231.000000,55007.000000
28668.000000,17453.000000,21183.000000,54968.000000
28631.000000,17413.000000,21179.000000,54986.000000
28614.000000,17374.000000,21109.000000,54966.000000
28610.000000,17404.000000,21078.000000,54985.000000
28536.000000,17430.000000,21109.000000,54980.000000
28585.000000,17428.000000,21072.000000,54965.000000
28583.000000,17375.000000,21036.000000,54960.000000
28553.000000,17340.000000,21047.000000,54937.000000
28541.000000,17341.000000,21059.000000,54908.000000
28536.000000,17363.000000,20984.000000,54915.000000
28521.000000,17349.000000,21035.000000,54921.000000
28517.000000,17324.000000,20976.000000,54893.000000
28460.000000,17339.000000,20991.000000,54889.000000
28449.000000,17348.000000,20947.000000,54907.000000
28476.000000,17307.000000,20937.000000,54867.000000
28466.000000,17298.000000,20924.000000,54865.000000
28395.000000,17262.000000,20882.000000,54824.000000
28364.000000,17238.000000,20839.000000,54821.000000
28343.000000,17220.000000,20835.000000,54809.000000
28338.000000,17237.000000,20791.000000,54768.000000
28334.000000,17202.000000,20774.000000,54780.000000
28311.000000,17164.000000,20700.000000,54738.000000
28261.000000,17165.000000,20689.000000,54734.000000
28268.000000,17142.000000,20698.000000,54741.000000
28209.000000,17143.000000,20654.000000,54702.000000
28239.000000,17134.000000,20645.000000,54718.000000
28183.000000,17149.000000,20588.000000,54737.000000
28176.000000,17073.000000,20571.000000,54726.000000
28087.000000,17045.000000,20540.000000,54623.000000
28111.000000,17023.000000,20477.000000,54623.000000
28099.000000,17078.000000,20488.000000,54592.000000
28093.000000,17002.000000,20470.000000,54623.000000
28059.000000,16988.000000,20419.000000,54562.000000
28030.000000,16979.000000,20387.000000,54557.000000
28044.000000,16975.000000,20409.000000,54546.000000
28025.000000,16971.000000,20371.000000,54557.000000
27994.000000,16929.000000,20355.000000,54554.000000
28013.000000,16928.000000,20351.000000,54552.000000
27985.000000,16913.000000,20303.000000,54517.000000
27993.000000,16901.000000,20310.000000,54576.000000
27982.000000,16933.000000,20330.000000,54523.000000
27909.000000,16856.000000,20251.000000,54505.000000
27893.000000,16828.000000,20172.000000,54463.000000
27872.000000,16811.000000,20124.000000,54451.000000
27831.000000,16835.000000,20146.000000,54408.000000
27826.000000,16785.000000,20138.000000,54449.000000
27821.000000,16778.000000,20140.000000,54438.000000
27813.000000,16754.000000,20138.000000,54473.000000
27854.000000,16806.000000,20128.000000,54449.000000
27852.000000,16811.000000,20142.000000,54449.000000
27846.000000,16806.000000,20204.000000,54457.000000
27867.000000,16845.000000,20190.000000,54447.000000
27880.000000,16858.000000,20233.000000,54543.000000
27867.000000,16890.000000,20194.000000,54496.000000
27878.000000,16888.000000,20284.000000,54527.000000
27934.000000,16894.000000,20319.000000,54516.000000
27958.000000,16911.000000,20304.000000,54521.000000
28048.000000,16971.000000,20430.000000,54616.000000
28069.000000,17014.000000,20473.000000,54644.000000
28136.000000,17065.000000,20498.000000,54694.000000
28151.000000,17062.000000,20547.000000,54646.000000
28407.000000,17252.000000,20819.000000,54838.000000
28407.000000,17234.000000,20881.000000,54879.000000
28478.000000,17304.000000,20949.000000,54903.000000
28473.000000,17377.000000,21023.000000,54919.000000
28598.000000,17415.000000,21109.000000,54970.000000
28640.000000,17418.000000,21097.000000,54961.000000
28644.000000,17413.000000,21099.000000,55011.000000
28635.000000,17409.000000,21092.000000,55002.000000
28642.000000,17380.000000,21101.000000,54963.000000
28638.000000,17386.000000,21092.000000,54962.000000
28622.000000,17403.000000,21095.000000,54949.000000
28587.000000,17353.000000,20988.000000,54970.000000
28571.000000,17334.000000,20994.000000,54904.000000
28528.000000,17332.000000,20989.000000,54910.000000
28529.000000,17378.000000,20993.000000,54917.000000
28550.000000,17303.000000,20972.000000,54895.000000
28528.000000,17323.000000,20935.000000,54875.000000
28501.000000,17299.000000,20897.000000,54847.000000
28523.000000,17296.000000,20911.000000,54897.000000
28447.000000,17280.000000,20879.000000,54903.000000
28481.000000,17296.000000,20849.000000,54843.000000
28472.000000,17264.000000,20910.000000,54864.000000
28421.000000,17293.000000,20823.000000,54784.000000
28429.000000,17260.000000,20825.000000,54811.000000
28413.000000,17272.000000,20830.000000,54833.000000
28422.000000,17262.000000,20832.000000,54822.000000
28425.000000,17224.000000,20775.000000,54777.000000
28414.000000,17227.000000,20788.000000,54801.000000
28347.000000,17211.000000,20781.000000,54772.000000
28337.000000,17187.000000,20751.000000,54773.000000
28318.000000,17199.000000,20718.000000,54758.000000
28303.000000,17206.000000,20718.000000,54719.000000
28284.000000,17178.000000,20699.000000,54736.000000
28300.000000,17133.000000,20678.000000,54748.000000
28239.000000,17186.000000,20629.000000,54727.000000
28218.000000,17134.000000,20560.000000,54692.000000
28239.000000,17146.000000,20599.000000,54701.000000
28159.000000,17085.000000,20537.000000,54632.000000
28118.000000,17104.000000,20522.000000,54668.000000
28156.000000,17033.000000,20518.000000,54660.000000
28192.000000,17046.000000,20483.000000,54617.000000
28131.000000,17091.000000,20484.000000,54620.000000
28028.000000,17043.000000,20416.000000,54619.000000
28058.000000,17037.000000,20426.000000,54604.000000
28058.000000,16994.000000,20410.000000,54577.000000
28023.000000,16988.000000,20414.000000,54584.000000
28024.000000,16997.000000,20356.000000,54554.000000
28015.000000,16933.000000,20362.000000,54562.000000
28053.000000,16939.000000,20372.000000,54553.000000
27995.000000,16953.000000,20371.000000,54534.000000
28013.000000,16933.000000,20339.000000,54532.000000
27998.000000,16930.000000,20348.000000,54524.000000
27980.000000,16944.000000,20333.000000,54525.000000
27950.000000,16918.000000,20290.000000,54549.000000
27957.000000,16904.000000,20298.000000,54505.000000
27925.000000,16889.000000,20241.000000,54487.000000
27913.000000,16911.000000,20193.000000,54512.000000
27844.000000,16850.000000,20225.000000,54481.000000
27843.000000,16833.000000,20211.000000,54451.000000
27869.000000,16827.000000,20156.000000,54455.000000
27842.000000,16800.000000,20184.000000,54428.000000
27819.000000,16837.000000,20146.000000,54440.000000
27797.000000,16778.000000,20133.000000,54460.000000
27837.000000,16856.000000,20187.000000,54466.000000
27841.000000,16834.000000,20216.000000,54467.000000
27860.000000,16848.000000,20238.000000,54469.000000
27856.000000,16849.000000,20206.000000,54467.000000
27856.000000,16906.000000,20278.000000,54547.000000
27910.000000,16914.000000,20295.000000,54528.000000
27928.000000,16938.000000,20300.000000,54519.000000
27948.000000,16892.000000,20343.000000,54524.000000
28012.000000,16953.000000,20405.000000,54599.000000
28033.000000,16998.000000,20447.000000,54625.000000
28040.000000,16997.000000,20496.000000,54593.000000
28092.000000,17022.000000,20562.000000,54655.000000
28229.000000,17133.000000,20671.000000,54749.000000
28250.000000,17205.000000,20739.000000,54771.000000
28445.000000,17338.000000,20963.000000,54899.000000
28492.000000,17374.000000,21015.000000,54888.000000
28499.000000,17335.000000,21045.000000,54900.000000
28522.000000,17364.000000,21034.000000,54928.000000
28566.000000,17355.000000,21008.000000,54935.000000
28551.000000,17383.000000,21007.000000,54916.000000
28540.000000,17394.000000,21059.000000,54920.000000
28491.000000,17331.000000,21030.000000,54860.000000
28528.000000,17350.000000,21019.000000,54856.000000
28462.000000,17323.000000,20991.000000,54871.000000
28518.000000,17306.000000,20940.000000,54856.000000
28466.000000,17320.000000,20955.000000,54888.000000
28430.000000,17267.000000,20920.000000,54848.000000
28445.000000,17297.000000,20928.000000,54857.000000
28390.000000,17244.000000,20888.000000,54806.000000
28422.000000,17249.000000,20898.000000,54869.000000
28371.000000,17251.000000,20827.000000,54817.000000
28387.000000,17253.000000,20838.000000,54848.000000
28390.000000,17262.000000,20839.000000,54792.000000
28385.000000,17213.000000,20835.000000,54792.000000
28349.000000,17232.000000,20821.000000,54791.000000
28379.000000,17209.000000,20805.000000,54768.000000
28339.000000,17242.000000,20783.000000,54780.000000
28280.000000,17181.000000,20716.000000,54779.000000
28298.000000,17196.000000,20759.000000,54718.000000
28297.000000,17182.000000,20730.000000,54725.000000
28232.000000,17151.000000,20693.000000,54746.000000
28253.000000,17162.000000,20701.000000,54724.000000
28204.000000,17186.000000,20649.000000,54730.000000
28256.000000,17134.000000,20653.000000,54691.000000
28154.000000,17093.000000,20575.000000,54681.000000
28180.000000,17098.000000,20544.000000,54663.000000
28104.000000,17088.000000,20482.000000,54650.000000
28098.000000,17080.000000,20487.000000,54586.000000
28083.000000,17035.000000,20493.000000,54584.000000
28074.000000,17015.000000,20448.000000,54589.000000
28073.000000,16977.000000,20442.000000,54566.000000
28013.000000,16969.000000,20395.000000,54536.000000
28010.000000,16989.000000,20352.000000,54551.000000
27965.000000,16955.000000,20295.000000,54486.000000
27931.000000,16965.000000,20307.000000,54519.000000
27982.000000,16906.000000,20298.000000,54477.000000
27933.000000,16893.000000,20294.000000,54472.000000
27925.000000,16856.000000,20249.000000,54491.000000
27889.000000,16892.000000,20256.000000,54446.000000
27925.000000,16902.000000,20214.000000,54420.000000
27804.000000,16842.000000,20165.000000,54423.000000
27840.000000,16812.000000,20142.000000,54464.000000
27875.000000,16814.000000,20137.000000,54439.000000
27854.000000,16819.000000,20149.000000,54428.000000
27773.000000,16792.000000,20126.000000,54423.000000
27810.000000,16780.000000,20068.000000,54414.000000
27747.000000,16727.000000,20064.000000,54361.000000
27728.000000,16743.000000,19995.000000,54357.000000
27709.000000,16715.000000,19967.000000,54347.000000
27707.000000,16700.000000,19961.000000,54334.000000
27656.000000,16681.000000,19963.000000,54361.000000
27686.000000,16712.000000,19953.000000,54331.000000
27671.000000,16667.000000,19951.000000,54301.000000
27652.000000,16691.000000,19934.000000,54348.000000
27684.000000,16682.000000,19962.000000,54327.000000
27662.000000,16708.000000,19957.000000,54369.000000
27734.000000,16736.000000,20008.000000,54373.000000
27712.000000,16728.000000,20019.000000,54382.000000
27729.000000,16706.000000,20029.000000,54398.000000
27735.000000,16762.000000,20072.000000,54390.000000
27747.000000,16724.000000,20090.000000,54396.000000
27826.000000,16801.000000,20180.000000,54491.000000
27875.000000,16813.000000,20209.000000,54492.000000
27872.000000,16880.000000,20228.000000,54456.000000
27895.000000,16880.000000,20303.000000,54535.000000
28048.000000,17023.000000,20495.000000,54621.000000
28095.000000,17063.000000,20494.000000,54693.000000
28130.000000,17068.000000,20589.000000,54693.000000
28202.000000,17132.000000,20677.000000,54754.000000
28410.000000,17266.000000,20942.000000,54832.000000
28444.000000,17272.000000,20927.000000,54883.000000
28479.000000,17278.000000,20930.000000,54893.000000
28447.000000,17302.000000,20959.000000,54910.000000
28484.000000,17297.000000,20922.000000,54833.000000
28466.000000,17269.000000,20941.000000,54844.000000
28435.000000,17255.000000,20893.000000,54866.000000
28445.000000,17293.000000,20899.000000,54838.000000
28422.000000,17283.000000,20875.000000,54853.000000
28391.000000,17286.000000,20850.000000,54846.000000
28351.000000,17232.000000,20772.000000,54782.000000
28335.000000,17268.000000,20764.000000,54810.000000
28356.000000,17242.000000,20763.000000,54823.000000
28320.000000,17201.000000,20780.000000,54756.000000
28310.000000,17230.000000,20741.000000,54768.000000
28304.000000,17180.000000,20738.000000,54775.000000
28283.000000,17175.000000,20697.000000,54754.000000
28292.000000,17150.000000,20736.000000,54734.000000
28261.000000,17156.000000,20666.000000,54712.000000
28207.000000,17156.000000,20626.000000,54729.000000
28211.000000,17133.000000,20633.000000,54710.000000
28200.000000,17119.000000,20624.000000,54688.000000
28196.000000,17121.000000,20625.000000,54704.000000
28184.000000,17170.000000,20590.000000,54676.000000
28154.000000,17063.000000,20574.000000,54652.000000
28119.000000,17063.000000,20518.000000,54663.000000
28096.000000,17050.000000,20487.000000,54596.000000
28074.000000,17055.000000,20478.000000,54617.000000
28058.000000,16985.000000,20381.000000,54573.000000
27992.000000,17002.000000,20355.000000,54576.000000
28016.000000,16960.000000,20347.000000,54566.000000
27979.000000,16931.000000,20341.000000,54549.000000
27984.000000,16885.000000,20318.000000,54524.000000
27973.000000,16926.000000,20334.000000,54523.000000
27899.000000,16940.000000,20275.000000,54512.000000
27911.000000,16873.000000,20253.000000,54491.000000
27887.000000,16890.000000,20246.000000,54494.000000
27846.000000,16844.000000,20219.000000,54467.000000
27842.000000,16838.000000,20199.000000,54467.000000
27814.000000,16846.000000,20113.000000,54435.000000
27824.000000,16804.000000,20126.000000,54458.000000
27790.000000,16756.000000,20083.000000,54382.000000
27748.000000,16772.000000,20032.000000,54362.000000
27753.000000,16722.000000,20039.000000,54376.000000
27728.000000,16729.000000,20015.000000,54376.000000
27709.000000,16707.000000,20056.000000,54331.000000
27708.000000,16739.000000,20002.000000,54360.000000
27716.000000,16719.000000,20012.000000,54332.000000
27677.000000,16705.000000,20020.000000,54367.000000
27638.000000,16715.000000,19923.000000,54360.000000
27634.000000,16652.000000,19934.000000,54330.000000
27651.000000,16668.000000,19938.000000,54279.000000
27608.000000,16653.000000,19899.000000,54281.000000
27567.000000,16683.000000,19867.000000,54279.000000
27566.000000,16615.000000,19842.000000,54263.000000
27545.000000,16617.000000,19864.000000,54255.000000
27541.000000,16608.000000,19799.000000,54241.000000
27510.000000,16582.000000,19786.000000,54260.000000
27498.000000,16549.000000,19799.000000,54234.000000
27515.000000,16566.000000,19804.000000,54219.000000
27495.000000,16601.000000,19814.000000,54235.000000
27482.000000,16603.000000,19793.000000,54246.000000
27545.000000,16604.000000,19859.000000,54251.000000
27526.000000,16613.000000,19881.000000,54266.000000
27542.000000,16609.000000,19882.000000,54320.000000
27541.000000,16642.000000,19891.000000,54293.000000
27600.000000,16659.000000,19961.000000,54352.000000
27644.000000,16710.000000,19987.000000,54390.000000
27654.000000,16679.000000,20023.000000,54351.000000
27626.000000,16694.000000,20054.000000,54343.000000
27762.000000,16812.000000,20174.000000,54456.000000
27804.000000,16873.000000,20200.000000,54507.000000
27859.000000,16842.000000,20251.000000,54507.000000
27866.000000,16874.000000,20304.000000,54548.000000
28064.000000,17054.000000,20540.000000,54693.000000
28115.000000,17081.000000,20628.000000,54697.000000
28154.000000,17124.000000,20666.000000,54720.000000
28232.000000,17163.000000,20725.000000,54777.000000
28319.000000,17224.000000,20845.000000,54803.000000
28333.000000,17257.000000,20849.000000,54834.000000
28330.000000,17229.000000,20822.000000,54828.000000
28322.000000,17259.000000,20853.000000,54809.000000
28265.000000,17221.000000,20784.000000,54772.000000
28288.000000,17233.000000,20793.000000,54803.000000
28269.000000,17224.000000,20796.000000,54785.000000
28292.000000,17161.000000,20752.000000,54783.000000
28258.000000,17168.000000,20736.000000,54760.000000
28239.000000,17174.000000,20751.000000,54738.000000
28213.000000,17172.000000,20746.000000,54777.000000
28213.000000,17173.000000,20720.000000,54747.000000
28227.000000,17135.000000,20702.000000,54729.000000
28230.000000,17125.000000,20643.000000,54762.000000
28185.000000,17134.000000,20692.000000,54741.000000
28156.000000,17117.000000,20657.000000,54727.000000
28189.000000,17127.000000,20648.000000,54693.000000
28167.000000,17107.000000,20638.000000,54666.000000
28135.000000,17102.000000,20592.000000,54707.000000
28114.000000,17128.000000,20580.000000,54719.000000
28143.000000,17101.000000,20599.000000,54699.000000
28155.000000,17077.000000,20552.000000,54677.000000
28073.000000,17020.000000,20498.000000,54603.000000
28058.000000,16990.000000,20470.000000,54627.000000
28060.000000,17021.000000,20481.000000,54619.000000
28032.000000,16999.000000,20448.000000,54641.000000
28008.000000,16995.000000,20417.000000,54621.000000
27935.000000,16948.000000,20369.000000,54568.000000
27922.000000,16914.000000,20378.000000,54564.000000
27929.000000,16964.000000,20375.000000,54544.000000
27933.000000,16928.000000,20360.000000,54560.000000
27941.000000,16943.000000,20326.000000,54530.000000
27852.000000,16868.000000,20273.000000,54499.000000
27867.000000,16886.000000,20256.000000,54511.000000
27845.000000,16839.000000,20250.000000,54492.000000
27810.000000,16811.000000,20174.000000,54451.000000
27807.000000,16828.000000,20225.000000,54462.000000
27804.000000,16838.000000,20252.000000,54443.000000
27787.000000,16820.000000,20159.000000,54501.000000
27754.000000,16796.000000,20129.000000,54453.000000
27773.000000,16817.000000,20192.000000,54418.000000
27726.000000,16832.000000,20137.000000,54418.000000
27734.000000,16782.000000,20137.000000,54404.000000
27678.000000,16734.000000,20074.000000,54376.000000
27671.000000,16737.000000,20078.000000,54356.000000
27678.000000,16722.000000,20082.000000,54403.000000
27656.000000,16743.000000,20031.000000,54368.000000
27707.000000,16719.000000,20023.000000,54373.000000
27562.000000,16706.000000,19959.000000,54386.000000
27591.000000,16694.000000,19935.000000,54347.000000
27590.000000,16673.000000,19912.000000,54334.000000
27586.000000,16612.000000,19881.000000,54342.000000
27518.000000,16624.000000,19895.000000,54321.000000
27512.000000,16582.000000,19895.000000,54285.000000
27516.000000,16589.000000,19889.000000,54265.000000
27499.000000,16598.000000,19884.000000,54303.000000
27534.000000,16635.000000,19891.000000,54284.000000
27537.000000,16638.000000,19917.000000,54311.000000
27545.000000,16637.000000,19890.000000,54321.000000
27558.000000,16663.000000,19997.000000,54351.000000
27569.000000,16717.000000,20014.000000,54352.000000
27578.000000,16698.000000,20029.000000,54342.000000
27616.000000,16724.000000,19992.000000,54393.000000
27636.000000,16720.000000,20059.000000,54391.000000
27636.000000,16711.000000,20063.000000,54429.000000
27670.000000,16747.000000,20113.000000,54440.000000
27764.000000,16844.000000,20214.000000,54494.000000
27804.000000,16859.000000,20291.000000,54478.000000
27828.000000,16862.000000,20303.000000,54528.000000
27859.000000,16870.000000,20318.000000,54562.000000
28059.000000,17046.000000,20599.000000,54682.000000
28086.000000,17044.000000,20639.000000,54690.000000
28154.000000,17144.000000,20716.000000,54788.000000
28281.000000,17226.000000,20863.000000,54831.000000
28374.000000,17286.000000,20933.000000,54877.000000
28382.000000,17306.000000,20936.000000,54884.000000
28380.000000,17302.000000,20955.000000,54866.000000
28364.000000,17272.000000,20965.000000,54897.000000
28362.000000,17267.000000,20939.000000,54856.000000
28381.000000,17260.000000,20893.000000,54848.000000
28355.000000,17252.000000,20883.000000,54843.000000
28341.000000,17208.000000,20892.000000,54862.000000
28260.000000,17199.000000,20847.000000,54794.000000
28313.000000,17206.000000,20804.000000,54813.000000
28302.000000,17214.000000,20812.000000,54802.000000
28218.000000,17185.000000,20808.000000,54815.000000
28239.000000,17157.000000,20814.000000,54757.000000
28267.000000,17182.000000,20758.000000,54784.000000
28191.000000,17159.000000,20722.000000,54773.000000
28181.000000,17171.000000,20719.000000,54738.000000
28154.000000,17151.000000,20735.000000,54745.000000
28195.000000,17159.000000,20681.000000,54752.000000
28128.000000,17128.000000,20673.000000,54728.000000
28124.000000,17131.000000,20686.000000,54735.000000
28106.000000,17116.000000,20614.000000,54709.000000
28103.000000,17099.000000,20655.000000,54686.000000
28093.000000,17088.000000,20586.000000,54690.000000
28047.000000,17045.000000,20531.000000,54661.000000
28024.000000,16985.000000,20547.000000,54638.000000
28018.000000,17080.000000,20554.000000,54654.000000
28024.000000,17051.000000,20530.000000,54650.000000
27997.000000,16974.000000,20513.000000,54604.000000
27987.000000,16985.000000,20487.000000,54643.000000
27954.000000,16974.000000,20433.000000,54590.000000
27931.000000,16993.000000,20418.000000,54584.000000
27868.000000,16903.000000,20342.000000,54555.000000
27901.000000,16915.000000,20339.000000,54538.000000
27876.000000,16915.000000,20333.000000,54506.000000
27835.000000,16903.000000,20284.000000,54521.000000
27805.000000,16853.000000,20253.000000,54506.000000
27809.000000,16835.000000,20308.000000,54493.000000
27755.000000,16877.000000,20227.000000,54485.000000
27750.000000,16830.000000,20243.000000,54484.000000
27750.000000,16799.000000,20179.000000,54459.000000
27733.000000,16820.000000,20165.000000,54478.000000
27730.000000,16822.000000,20125.000000,54434.000000
27744.000000,16781.000000,20153.000000,54444.000000
27701.000000,16762.000000,20133.000000,54443.000000
27736.000000,16776.000000,20135.000000,54429.000000
27694.000000,16746.000000,20058.000000,54408.000000
27662.000000,16735.000000,20071.000000,54375.000000
27665.000000,16766.000000,20060.000000,54406.000000
27618.000000,16721.000000,20041.000000,54412.000000
27590.000000,16692.000000,20016.000000,54383.000000
27598.000000,16708.000000,20022.000000,54374.000000
27583.000000,16663.000000,19957.000000,54350.000000
27504.000000,16678.000000,19948.000000,54323.000000
27521.000000,16657.000000,19929.000000,54285.000000
27537.000000,16686.000000,19901.000000,54299.000000
27523.000000,16642.000000,19909.000000,54313.000000
27500.000000,16603.000000,19918.000000,54304.000000
27524.000000,16621.000000,19934.000000,54297.000000
27556.000000,16632.000000,19934.000000,54327.000000
27555.000000,16651.000000,19971.000000,54363.000000
27557.000000,16685.000000,19974.000000,54371.000000
27562.000000,16679.000000,19975.000000,54362.000000
27643.000000,16705.000000,20049.000000,54394.000000
27630.000000,16703.000000,20093.000000,54368.000000
27653.000000,16726.000000,20069.000000,54405.000000
27656.000000,16775.000000,20129.000000,54421.000000
27754.000000,16831.000000,20261.000000,54537.000000
27811.000000,16880.000000,20235.000000,54516.000000
27833.000000,16852.000000,20285.000000,54533.000000
27832.000000,16882.000000,20339.000000,54567.000000
27933.000000,16962.000000,20508.000000,54655.000000
28002.000000,17001.000000,20512.000000,54653.000000
28134.000000,17162.000000,20729.000000,54756.000000
28221.000000,17150.000000,20790.000000,54798.000000
28332.000000,17273.000000,21014.000000,54891.000000
28417.000000,17353.000000,21004.000000,54901.000000
28361.000000,17303.000000,21029.000000,54880.000000
28394.000000,17285.000000,21048.000000,54895.000000
28399.000000,17296.000000,20994.000000,54920.000000
28377.000000,17299.000000,20998.000000,54901.000000
28344.000000,17257.000000,20961.000000,54899.000000
28303.000000,17269.000000,20981.000000,54854.000000
28333.000000,17287.000000,20940.000000,54878.000000
28292.000000,17231.000000,20921.000000,54906.000000
28246.000000,17224.000000,20901.000000,54813.000000
28245.000000,17270.000000,20848.000000,54824.000000
28246.000000,17229.000000,20818.000000,54827.000000
28272.000000,17224.000000,20808.000000,54792.000000
28298.000000,17194.000000,20810.000000,54800.000000
28218.000000,17169.000000,20813.000000,54776.000000
28205.000000,17178.000000,20797.000000,54792.000000
28176.000000,17124.000000,20741.000000,54761.000000
28125.000000,17142.000000,20715.000000,54742.000000
28124.000000,17088.000000,20681.000000,54732.000000
28113.000000,17133.000000,20658.000000,54738.000000
28118.000000,17127.000000,20633.000000,54698.000000
28141.000000,17113.000000,20634.000000,54694.000000
28045.000000,17024.000000,20604.000000,54694.000000
28044.000000,17036.000000,20558.000000,54692.000000
28030.000000,17036.000000,20548.000000,54645.000000
28049.000000,17054.000000,20534.000000,54674.000000
27976.000000,16973.000000,20453.000000,54629.000000
27987.000000,16943.000000,20451.000000,54636.000000
28007.000000,16944.000000,20404.000000,54588.000000
27959.000000,16995.000000,20433.000000,54567.000000
27877.000000,16918.000000,20367.000000,54538.000000
27898.000000,16900.000000,20318.000000,54563.000000
27871.000000,16883.000000,20355.000000,54540.000000
27883.000000,16868.000000,20324.000000,54513.000000
27867.000000,16885.000000,20283.000000,54481.000000
27849.000000,16871.000000,20240.000000,54515.000000
27844.000000,16798.000000,20258.000000,54499.000000
27827.000000,16827.000000,20209.000000,54492.000000
27804.000000,16773.000000,20237.000000,54473.000000
27758.000000,16802.000000,20187.000000,54433.000000
27738.000000,16778.000000,20110.000000,54474.000000
27758.000000,16761.000000,20125.000000,54416.000000
27695.000000,16751.000000,20077.000000,54427.000000
27684.000000,16726.000000,20116.000000,54402.000000
27686.000000,16758.000000,20099.000000,54398.000000
27711.000000,16702.000000,20032.000000,54380.000000
27678.000000,16712.000000,20083.000000,54388.000000
27689.000000,16779.000000,20061.000000,54403.000000
27637.000000,16687.000000,20058.000000,54399.000000
27642.000000,16737.000000,20052.000000,54393.000000
27616.000000,16713.000000,20018.000000,54347.000000
27579.000000,16697.000000,20027.000000,54324.000000
27613.000000,16697.000000,20017.000000,54346.000000
27542.000000,16639.000000,19956.000000,54318.000000
27501.000000,16652.000000,19919.000000,54325.000000
27471.000000,16581.000000,19869.000000,54330.000000
27524.000000,16616.000000,19920.000000,54270.000000
27487.000000,16628.000000,19885.000000,54314.000000
27516.000000,16627.000000,19873.000000,54294.000000
27473.000000,16622.000000,19928.000000,54331.000000
27513.000000,16655.000000,19960.000000,54345.000000
27547.000000,16679.000000,19994.000000,54354.000000
27564.000000,16708.000000,20026.000000,54395.000000
27605.000000,16701.000000,20103.000000,54418.000000
27611.000000,16689.000000,20112.000000,54379.000000
27625.000000,16738.000000,20108.000000,54426.000000
27773.000000,16798.000000,20227.000000,54494.000000
27757.000000,16809.000000,20262.000000,54531.000000
27769.000000,16824.000000,20231.000000,54565.000000
27797.000000,16848.000000,20280.000000,54583.000000
27945.000000,17038.000000,20516.000000,54664.000000
28019.000000,17050.000000,20555.000000,54669.000000
28095.000000,17067.000000,20630.000000,54719.000000
28262.000000,17190.000000,20868.000000,54871.000000
28266.000000,17249.000000,20921.000000,54883.000000
28360.000000,17247.000000,20962.000000,54882.000000
28370.000000,17286.000000,20982.000000,54932.000000
28413.000000,17313.000000,20971.000000,54918.000000
28401.000000,17304.000000,21006.000000,54899.000000
28413.000000,17272.000000,20999.000000,54939.000000
28376.000000,17270.000000,20989.000000,54895.000000
28390.000000,17256.000000,20947.000000,54876.000000
28359.000000,17282.000000,20948.000000,54895.000000
28350.000000,17280.000000,20961.000000,54872.000000
28330.000000,17272.000000,20873.000000,54872.000000
28312.000000,17250.000000,20910.000000,54876.000000
28283.000000,17221.000000,20900.000000,54837.000000
28298.000000,17236.000000,20891.000000,54835.000000
28280.000000,17177.000000,20842.000000,54797.000000
28218.000000,17223.000000,20784.000000,54818.000000
28257.000000,17201.000000,20799.000000,54794.000000
28218.000000,17183.000000,20765.000000,54767.000000
28160.000000,17175.000000,20741.000000,54806.000000
28176.000000,17168.000000,20747.000000,54813.000000
28171.000000,17141.000000,20799.000000,54766.000000
28131.000000,17095.000000,20684.000000,54717.000000
28129.000000,17118.000000,20646.000000,54745.000000
28092.000000,17106.000000,20665.000000,54737.000000
28051.000000,17084.000000,20613.000000,54703.000000
28092.000000,17088.000000,20635.000000,54711.000000
28058.000000,17034.000000,20629.000000,54682.000000
28047.000000,17029.000000,20585.000000,54669.000000
28021.000000,17044.000000,20543.000000,54665.000000
28037.000000,17009.000000,20544.000000,54670.000000
28001.000000,16993.000000,20496.000000,54696.000000
27959.000000,17021.000000,20478.000000,54596.000000
27998.000000,17020.000000,20457.000000,54632.000000
27929.000000,16957.000000,20411.000000,54572.000000
27942.000000,16961.000000,20396.000000,54570.000000
27900.000000,16952.000000,20372.000000,54600.000000
27909.000000,16893.000000,20380.000000,54566.000000
27855.000000,16921.000000,20377.000000,54515.000000
27884.000000,16921.000000,20380.000000,54551.000000
27855.000000,16857.000000,20310.000000,54533.000000
27846.000000,16910.000000,20286.000000,54510.000000
27790.000000,16821.000000,20264.000000,54526.000000
27785.000000,16861.000000,20257.000000,54514.000000
27785.000000,16848.000000,20254.000000,54519.000000
27792.000000,16853.000000,20203.000000,54475.000000
27775.000000,16834.000000,20224.000000,54470.000000
27727.000000,16822.000000,20201.000000,54491.000000
27753.000000,16783.000000,20205.000000,54444.000000
27730.000000,16789.000000,20192.000000,54456.000000
27725.000000,16776.000000,20143.000000,54468.000000
27703.000000,16784.000000,20170.000000,54467.000000
27696.000000,16760.000000,20157.000000,54422.000000
27625.000000,16704.000000,20050.000000,54375.000000
27587.000000,16684.000000,20082.000000,54356.000000
27551.000000,16677.000000,20026.000000,54386.000000
27575.000000,16685.000000,20003.000000,54361.000000
27560.000000,16689.000000,20034.000000,54369.000000
27570.000000,16700.000000,20047.000000,54403.000000
27604.000000,16772.000000,20061.000000,54370.000000
27631.000000,16726.000000,20081.000000,54404.000000
27637.000000,16715.000000,20086.000000,54375.000000
27631.000000,16742.000000,20089.000000,54433.000000
27682.000000,16828.000000,20178.000000,54481.000000
27732.000000,16786.000000,20241.000000,54485.000000
27772.000000,16790.000000,20251.000000,54513.000000
27783.000000,16862.000000,20272.000000,54522.000000
27800.000000,16882.000000,20330.000000,54538.000000
27940.000000,16958.000000,20397.000000,54623.000000
27945.000000,16972.000000,20493.000000,54626.000000
27937.000000,16982.000000,20521.000000,54674.000000
28027.000000,16999.000000,20534.000000,54681.000000
28273.000000,17221.000000,20851.000000,54860.000000
28284.000000,17240.000000,20958.000000,54864.000000
28397.000000,17288.000000,20970.000000,54891.000000
28388.000000,17292.000000,21042.000000,54880.000000
28423.000000,17325.000000,21035.000000,54940.000000
28456.000000,17319.000000,21080.000000,54963.000000
28433.000000,17321.000000,21071.000000,54956.000000
28439.000000,17331.000000,21071.000000,54943.000000
28411.000000,17321.000000,21034.000000,54912.000000
28475.000000,17305.000000,21047.000000,54930.000000
28411.000000,17358.000000,21031.000000,54936.000000
28408.000000,17294.000000,20996.000000,54908.000000
28405.000000,17264.000000,20973.000000,54882.000000
28339.000000,17292.000000,20924.000000,54870.000000
28356.000000,17268.000000,20932.000000,54906.000000
28351.000000,17259.000000,20900.000000,54834.000000
28354.000000,17297.000000,20881.000000,54850.000000
28326.000000,17225.000000,20862.000000,54851.000000
28361.000000,17248.000000,20872.000000,54853.000000
28309.000000,17198.000000,20842.000000,54817.000000
28317.000000,17219.000000,20860.000000,54824.000000
28268.000000,17202.000000,20799.000000,54811.000000
28272.000000,17214.000000,20818.000000,54800.000000
28253.000000,17206.000000,20778.000000,54837.000000
28213.000000,17156.000000,20771.000000,54774.000000
28208.000000,17178.000000,20769.000000,54773.000000
28204.000000,17151.000000,20707.000000,54735.000000
28209.000000,17138.000000,20743.000000,54779.000000
28133.000000,17111.000000,20687.000000,54784.000000
28182.000000,17145.000000,20697.000000,54721.000000
28127.000000,17088.000000,20621.000000,54716.000000
28111.000000,17083.000000,20655.000000,54703.000000
28141.000000,17108.000000,20567.000000,54700.000000
28066.000000,17013.000000,20574.000000,54686.000000
28081.000000,17027.000000,20592.000000,54654.000000
28060.000000,16984.000000,20526.000000,54654.000000
28043.000000,17024.000000,20507.000000,54655.000000
28030.000000,17028.000000,20502.000000,54640.000000
28028.000000,16992.000000,20509.000000,54636.000000
28024.000000,17004.000000,20481.000000,54605.000000
27949.000000,16969.000000,20431.000000,54631.000000
27985.000000,16969.000000,20456.000000,54618.000000
27947.000000,16953.000000,20386.000000,54580.000000
27913.000000,16974.000000,20421.000000,54579.000000
27919.000000,16912.000000,20325.000000,54515.000000
27875.000000,16886.000000,20327.000000,54564.000000
27909.000000,16910.000000,20321.000000,54530.000000
27898.000000,16857.000000,20301.000000,54525.000000
27861.000000,16886.000000,20298.000000,54551.000000
27846.000000,16874.000000,20267.000000,54518.000000
27850.000000,16882.000000,20266.000000,54555.000000
27841.000000,16840.000000,20272.000000,54515.000000
27832.000000,16835.000000,20255.000000,54495.000000
27804.000000,16800.000000,20248.000000,54457.000000
27775.000000,16830.000000,20216.000000,54499.000000
27758.000000,16834.000000,20167.000000,54470.000000
27681.000000,16770.000000,20112.000000,54414.000000
27675.000000,16739.000000,20103.000000,54423.000000
27678.000000,16737.000000,20125.000000,54380.000000
27698.000000,16776.000000,20114.000000,54457.000000
27684.000000,16704.000000,20071.000000,54426.000000
27705.000000,16769.000000,20074.000000,54464.000000
27729.000000,16766.000000,20102.000000,54446.000000
27682.000000,16751.000000,20129.000000,54411.000000
27713.000000,16779.000000,20149.000000,54473.000000
27729.000000,16810.000000,20140.000000,54470.000000
27723.000000,16823.000000,20191.000000,54474.000000
27798.000000,16826.000000,20219.000000,54519.000000
27805.000000,16825.000000,20190.000000,54496.000000
27849.000000,16899.000000,20303.000000,54582.000000
27835.000000,16933.000000,20362.000000,54599.000000
27920.000000,16905.000000,20390.000000,54598.000000
27958.000000,16984.000000,20418.000000,54565.000000
27999.000000,16970.000000,20440.000000,54627.000000
28182.000000,17152.000000,20669.000000,54798.000000
28187.000000,17157.000000,20737.000000,54831.000000
28288.000000,17210.000000,20801.000000,54809.000000
28335.000000,17202.000000,20860.000000,54824.000000
28427.000000,17311.000000,20947.000000,54924.000000
28425.000000,17292.000000,21003.000000,54955.000000
28431.000000,17326.000000,21047.000000,54931.000000
28457.000000,17338.000000,21078.000000,54965.000000
28447.000000,17358.000000,21023.000000,54922.000000
28459.000000,17344.000000,21042.000000,54916.000000
28430.000000,17345.000000,21000.000000,54921.000000
28445.000000,17344.000000,21023.000000,54918.000000
28419.000000,17294.000000,20978.000000,54873.000000
28441.000000,17310.000000,20975.000000,54896.000000
28392.000000,17294.000000,20983.000000,54916.000000
28383.000000,17275.000000,20925.000000,54895.000000
28368.000000,17274.000000,20905.000000,54875.000000
28362.000000,17288.000000,20905.000000,54848.000000
28354.000000,17296.000000,20905.000000,54895.000000
28322.000000,17211.000000,20869.000000,54859.000000
28319.000000,17238.000000,20854.000000,54839.000000
28290.000000,17183.000000,20849.000000,54789.000000
28295.000000,17243.000000,20803.000000,54830.000000
28272.000000,17197.000000,20771.000000,54775.000000
28275.000000,17208.000000,20743.000000,54771.000000
28275.000000,17183.000000,20735.000000,54778.000000
28218.000000,17186.000000,20729.000000,54761.000000
28200.000000,17157.000000,20695.000000,54745.000000
28155.000000,17152.000000,20641.000000,54767.000000
28180.000000,17169.000000,20668.000000,54742.000000
28158.000000,17093.000000,20619.000000,54730.000000
28101.000000,17096.000000,20604.000000,54704.000000
28117.000000,17090.000000,20605.000000,54682.000000
28158.000000,17107.000000,20605.000000,54666.000000
28097.000000,17072.000000,20570.000000,54656.000000
28124.000000,17067.000000,20505.000000,54631.000000
28048.000000,17009.000000,20474.000000,54652.000000
28012.000000,16992.000000,20487.000000,54636.000000
28032.000000,16989.000000,20485.000000,54638.000000
28021.000000,16983.000000,20480.000000,54629.000000
27966.000000,16930.000000,20369.000000,54606.000000
27955.000000,16935.000000,20349.000000,54593.000000
27948.000000,16962.000000,20367.000000,54562.000000
27922.000000,16888.000000,20359.000000,54544.000000
27944.000000,16938.000000,20348.000000,54515.000000
27932.000000,16874.000000,20355.000000,54552.000000
27916.000000,16904.000000,20293.000000,54539.000000
27871.000000,16877.000000,20249.000000,54511.000000
27830.000000,16843.000000,20278.000000,54512.000000
27853.000000,16845.000000,20251.000000,54518.000000
27861.000000,16845.000000,20230.000000,54506.000000
27791.000000,16806.000000,20210.000000,54506.000000
27847.000000,16851.000000,20201.000000,54452.000000
27839.000000,16818.000000,20228.000000,54460.000000
27791.000000,16832.000000,20206.000000,54465.000000
27807.000000,16823.000000,20139.000000,54485.000000
27752.000000,16792.000000,20129.000000,54440.000000
27771.000000,16766.000000,20094.000000,54441.000000
27717.000000,16745.000000,20092.000000,54403.000000
27705.000000,16750.000000,20069.000000,54427.000000
27661.000000,16718.000000,20058.000000,54406.000000
27710.000000,16738.000000,20053.000000,54429.000000
27688.000000,16758.000000,20092.000000,54432.000000
27723.000000,16791.000000,20125.000000,54413.000000
27751.000000,16757.000000,20110.000000,54428.000000
27753.000000,16767.000000,20151.000000,54478.000000
27755.000000,16800.000000,20145.000000,54450.000000
27758.000000,16820.000000,20162.000000,54474.000000
27781.000000,16807.000000,20240.000000,54486.000000
27806.000000,16824.000000,20245.000000,54510.000000
27875.000000,16891.000000,20281.000000,54566.000000
27982.000000,16969.000000,20474.000000,54641.000000
28013.000000,17002.000000,20488.000000,54660.000000
28025.000000,17034.000000,20528.000000,54662.000000
28085.000000,17029.000000,20558.000000,54687.000000
28111.000000,17081.000000,20655.000000,54719.000000
28242.000000,17154.000000,20774.000000,54816.000000
28335.000000,17225.000000,20833.000000,54832.000000
28522.000000,17351.000000,21096.000000,54961.000000
28504.000000,17379.000000,21078.000000,55005.000000
28564.000000,17392.000000,21115.000000,54985.000000
28558.000000,17370.000000,21134.000000,55002.000000
28564.000000,17381.000000,21087.000000,54989.000000
28548.000000,17365.000000,21110.000000,54980.000000
28497.000000,17347.000000,21091.000000,54973.000000
28531.000000,17340.000000,21048.000000,54930.000000
28479.000000,17342.000000,21022.000000,54932.000000
28482.000000,17287.000000,20974.000000,54937.000000
28431.000000,17315.000000,20954.000000,54924.000000
28420.000000,17315.000000,20963.000000,54910.000000
28430.000000,17279.000000,20983.000000,54901.000000
28397.000000,17250.000000,20938.000000,54877.000000
28389.000000,17276.000000,20891.000000,54888.000000
28369.000000,17270.000000,20888.000000,54862.000000
28358.000000,17253.000000,20902.000000,54882.000000
28402.000000,17257.000000,20883.000000,54837.000000
28355.000000,17233.000000,20817.000000,54860.000000
28308.000000,17211.000000,20793.000000,54801.000000
28303.000000,17216.000000,20767.000000,54815.000000
28292.000000,17174.000000,20798.000000,54780.000000
28260.000000,17207.000000,20786.000000,54801.000000
28263.000000,17154.000000,20717.000000,54795.000000
28261.000000,17129.000000,20728.000000,54795.000000
28278.000000,17168.000000,20725.000000,54777.000000
28233.000000,17146.000000,20726.000000,54766.000000
28156.000000,17100.000000,20647.000000,54743.000000
28168.000000,17114.000000,20648.000000,54691.000000
28154.000000,17085.000000,20657.000000,54711.000000
28152.000000,17098.000000,20625.000000,54706.000000
28171.000000,17059.000000,20601.000000,54675.000000
28112.000000,17078.000000,20578.000000,54674.000000
28093.000000,17057.000000,20545.000000,54659.000000
28072.000000,17061.000000,20506.000000,54654.000000
28060.000000,16987.000000,20478.000000,54650.000000
28047.000000,16975.000000,20447.000000,54649.000000
28048.000000,17012.000000,20464.000000,54632.000000
28019.000000,16926.000000,20446.000000,54607.000000
27987.000000,16934.000000,20418.000000,54595.000000
27982.000000,16968.000000,20386.000000,54583.000000
27981.000000,16974.000000,20414.000000,54588.000000
27915.000000,16891.000000,20342.000000,54546.000000
27922.000000,16927.000000,20339.000000,54559.000000
27876.000000,16882.000000,20324.000000,54531.000000
27886.000000,16888.000000,20311.000000,54518.000000
27822.000000,16873.000000,20287.000000,54505.000000
27874.000000,16838.000000,20265.000000,54501.000000
27854.000000,16881.000000,20246.000000,54510.000000
27844.000000,16890.000000,20188.000000,54511.000000
27807.000000,16780.000000,20199.000000,54491.000000
27822.000000,16815.000000,20201.000000,54467.000000
27782.000000,16773.000000,20171.000000,54447.000000
27763.000000,16780.000000,20137.000000,54431.000000
27680.000000,16769.000000,20110.000000,54435.000000
27676.000000,16787.000000,20067.000000,54416.000000
27719.000000,16741.000000,20094.000000,54405.000000
27698.000000,16709.000000,20095.000000,54418.000000
27716.000000,16766.000000,20149.000000,54477.000000
27750.000000,16779.000000,20158.000000,54443.000000
27758.000000,16808.000000,20148.000000,54477.000000
27754.000000,16763.000000,20170.000000,54491.000000
27813.000000,16859.000000,20249.000000,54520.000000
27871.000000,16853.000000,20273.000000,54506.000000
27876.000000,16891.000000,20282.000000,54548.000000
27862.000000,16882.000000,20294.000000,54558.000000
27981.000000,16996.000000,20477.000000,54638.000000
28027.000000,16961.000000,20462.000000,54680.000000
28098.000000,17048.000000,20506.000000,54673.000000
28079.000000,17059.000000,20539.000000,54710.000000
28142.000000,17044.000000,20615.000000,54744.000000
28421.000000,17283.000000,20890.000000,54860.000000
28412.000000,17312.000000,20985.000000,54934.000000
28472.000000,17290.000000,20984.000000,54944.000000
28497.000000,17376.000000,21023.000000,54969.000000
28604.000000,17390.000000,21167.000000,54977.000000
28555.000000,17407.000000,21141.000000,55026.000000
28569.000000,17404.000000,21141.000000,54993.000000
28570.000000,17390.000000,21139.000000,55022.000000
28557.000000,17381.000000,21143.000000,55008.000000
28609.000000,17392.000000,21120.000000,54974.000000
28515.000000,17353.000000,21073.000000,54958.000000
28524.000000,17345.000000,21051.000000,54939.000000
28508.000000,17338.000000,21046.000000,54965.000000
28563.000000,17309.000000,21051.000000,54931.000000
28498.000000,17298.000000,20982.000000,54903.000000
28466.000000,17340.000000,20976.000000,54919.000000
28426.000000,17318.000000,20975.000000,54898.000000
28462.000000,17318.000000,20957.000000,54900.000000
28462.000000,17272.000000,20949.000000,54925.000000
28403.000000,17257.000000,20927.000000,54892.000000
28418.000000,17252.000000,20954.000000,54869.000000
28445.000000,17258.000000,20898.000000,54858.000000
28386.000000,17255.000000,20866.000000,54876.000000
28364.000000,17249.000000,20866.000000,54846.000000
28351.000000,17215.000000,20836.000000,54810.000000
28355.000000,17203.000000,20817.000000,54834.000000
28329.000000,17219.000000,20793.000000,54853.000000
28321.000000,17228.000000,20756.000000,54780.000000
28305.000000,17182.000000,20777.000000,54794.000000
28307.000000,17156.000000,20741.000000,54810.000000
28293.000000,17139.000000,20708.000000,54795.000000
28177.000000,17159.000000,20659.000000,54752.000000
28225.000000,17094.000000,20674.000000,54719.000000
28167.000000,17130.000000,20633.000000,54732.000000
28192.000000,17105.000000,20620.000000,54716.000000
28113.000000,17043.000000,20528.000000,54663.000000
28093.000000,17045.000000,20527.000000,54690.000000
28131.000000,17059.000000,20511.000000,54685.000000
28075.000000,17061.000000,20504.000000,54681.000000
28095.000000,16996.000000,20487.000000,54659.000000
28049.000000,17000.000000,20468.000000,54593.000000
28030.000000,16958.000000,20440.000000,54595.000000
28003.000000,16988.000000,20445.000000,54624.000000
28010.000000,16946.000000,20409.000000,54573.000000
27999.000000,16958.000000,20383.000000,54557.000000
27982.000000,16943.000000,20374.000000,54576.000000
27954.000000,16881.000000,20331.000000,54540.000000
27887.000000,16906.000000,20371.000000,54574.000000
27955.000000,16882.000000,20295.000000,54565.000000
27944.000000,16895.000000,20304.000000,54502.000000
27921.000000,16891.000000,20256.000000,54512.000000
27878.000000,16874.000000,20300.000000,54542.000000
27853.000000,16861.000000,20287.000000,54510.000000
27874.000000,16857.000000,20234.000000,54521.000000
27839.000000,16839.000000,20181.000000,54496.000000
27853.000000,16811.000000,20184.000000,54499.000000
27769.000000,16764.000000,20153.000000,54475.000000
27780.000000,16771.000000,20118.000000,54430.000000
27773.000000,16772.000000,20124.000000,54423.000000
27791.000000,16745.000000,20156.000000,54488.000000
27799.000000,16753.000000,20161.000000,54451.000000
27800.000000,16778.000000,20142.000000,54467.000000
27797.000000,16785.000000,20203.000000,54459.000000
27809.000000,16805.000000,20152.000000,54458.000000
27777.000000,16805.000000,20168.000000,54516.000000
27810.000000,16801.000000,20245.000000,54513.000000
27842.000000,16847.000000,20203.000000,54482.000000
27840.000000,16847.000000,20278.000000,54530.000000
27876.000000,16853.000000,20303.000000,54553.000000
27894.000000,16896.000000,20305.000000,54537.000000
28045.000000,16993.000000,20452.000000,54658.000000
28076.000000,17028.000000,20487.000000,54689.000000
28115.000000,16985.000000,20546.000000,54676.000000
28228.000000,17156.000000,20680.000000,54789.000000
28265.000000,17191.000000,20747.000000,54827.000000
28346.000000,17212.000000,20825.000000,54844.000000
28469.000000,17300.000000,20966.000000,54920.000000
28496.000000,17322.000000,20967.000000,54931.000000
28504.000000,17323.000000,21022.000000,54927.000000
28548.000000,17359.000000,21049.000000,54954.000000
28583.000000,17333.000000,21074.000000,54964.000000
28562.000000,17339.000000,21032.000000,54971.000000
28550.000000,17371.000000,21039.000000,54972.000000
28550.000000,17318.000000,21025.000000,54946.000000
28495.000000,17339.000000,21046.000000,54944.000000
28509.000000,17317.000000,20991.000000,54905.000000
28514.000000,17310.000000,20942.000000,54901.000000
28457.000000,17306.000000,20982.000000,54909.000000
28429.000000,17275.000000,20882.000000,54869.000000
28445.000000,17276.000000,20874.000000,54883.000000
28415.000000,17276.000000,20890.000000,54874.000000
28420.000000,17236.000000,20841.000000,54850.000000
28379.000000,17228.000000,20812.000000,54839.000000
28369.000000,17212.000000,20799.000000,54848.000000
28391.000000,17211.000000,20813.000000,54842.000000
28325.000000,17173.000000,20785.000000,54810.000000
28289.000000,17140.000000,20722.000000,54765.000000
28339.000000,17157.000000,20743.000000,54780.000000
28273.000000,17138.000000,20723.000000,54783.000000
28258.000000,17146.000000,20731.000000,54767.000000
28237.000000,17076.000000,20681.000000,54758.000000
28230.000000,17110.000000,20643.000000,54778.000000
28273.000000,17101.000000,20645.000000,54742.000000
28243.000000,17116.000000,20647.000000,54687.000000
28230.000000,17114.000000,20597.000000,54763.000000
28176.000000,17044.000000,20572.000000,54699.000000
28150.000000,17049.000000,20564.000000,54719.000000
28132.000000,17050.000000,20541.000000,54711.000000
28128.000000,17077.000000,20543.000000,54662.000000
28122.000000,17044.000000,20543.000000,54683.000000
28162.000000,17000.000000,20474.000000,54660.000000
28089.000000,17003.000000,20429.000000,54646.000000
28097.000000,16965.000000,20436.000000,54676.000000
28084.000000,16967.000000,20426.000000,54635.000000
28006.000000,16910.000000,20369.000000,54615.000000
28010.000000,16982.000000,20350.000000,54625.000000
28000.000000,16958.000000,20363.000000,54607.000000
28023.000000,16898.000000,20347.000000,54555.000000
27997.000000,16875.000000,20322.000000,54556.000000
27979.000000,16910.000000,20340.000000,54502.000000
27954.000000,16865.000000,20298.000000,54556.000000
27936.000000,16833.000000,20290.000000,54564.000000
27937.000000,16843.000000,20292.000000,54538.000000
27883.000000,16845.000000,20272.000000,54521.000000
27908.000000,16860.000000,20252.000000,54541.000000
27899.000000,16862.000000,20219.000000,54524.000000
27851.000000,16792.000000,20231.000000,54515.000000
27871.000000,16835.000000,20223.000000,54484.000000
27825.000000,16745.000000,20170.000000,54472.000000
27818.000000,16838.000000,20145.000000,54473.000000
27817.000000,16769.000000,20159.000000,54441.000000
27815.000000,16791.000000,20097.000000,54470.000000
27807.000000,16758.000000,20076.000000,54458.000000
27779.000000,16758.000000,20070.000000,54452.000000
27754.000000,16783.000000,20095.000000,54444.000000
27770.000000,16763.000000,20120.000000,54482.000000
27793.000000,16732.000000,20118.000000,54469.000000
27800.000000,16766.000000,20174.000000,54494.000000
27866.000000,16829.000000,20187.000000,54512.000000
27816.000000,16803.000000,20201.000000,54527.000000
27850.000000,16817.000000,20218.000000,54515.000000
27929.000000,16910.000000,20281.000000,54552.000000
27903.000000,16905.000000,20296.000000,54578.000000
27940.000000,16877.000000,20346.000000,54583.000000
27938.000000,16936.000000,20423.000000,54609.000000
27988.000000,16889.000000,20385.000000,54574.000000
28108.000000,17038.000000,20570.000000,54713.000000
28121.000000,17075.000000,20610.000000,54736.000000
28187.000000,17059.000000,20653.000000,54725.000000
28243.000000,17101.000000,20726.000000,54755.000000
28369.000000,17233.000000,20874.000000,54853.000000
28510.000000,17344.000000,21008.000000,54950.000000
28523.000000,17373.000000,21057.000000,54956.000000
28569.000000,17359.000000,21081.000000,54982.000000
28588.000000,17376.000000,21128.000000,54981.000000
28598.000000,17423.000000,21142.000000,54988.000000
28625.000000,17368.000000,21151.000000,55012.000000
28568.000000,17392.000000,21106.000000,55043.000000
28595.000000,17414.000000,21117.000000,55037.000000
28605.000000,17354.000000,21049.000000,54991.000000
28553.000000,17348.000000,21067.000000,54977.000000
28543.000000,17352.000000,21044.000000,55014.000000
28554.000000,17367.000000,21063.000000,54991.000000
28493.000000,17312.000000,20971.000000,54941.000000
28478.000000,17317.000000,20995.000000,54951.000000
28463.000000,17336.000000,20974.000000,54929.000000
28491.000000,17309.000000,20985.000000,54921.000000
28472.000000,17285.000000,21010.000000,54916.000000
28435.000000,17298.000000,20878.000000,54902.000000
28421.000000,17248.000000,20898.000000,54893.000000
28384.000000,17283.000000,20865.000000,54884.000000
28392.000000,17256.000000,20851.000000,54872.000000
28424.000000,17257.000000,20837.000000,54868.000000
28408.000000,17285.000000,20862.000000,54866.000000
28382.000000,17249.000000,20806.000000,54855.000000
28347.000000,17194.000000,20776.000000,54836.000000
28359.000000,17198.000000,20804.000000,54804.000000
28278.000000,17155.000000,20794.000000,54809.000000
28314.000000,17160.000000,20767.000000,54765.000000
28305.000000,17154.000000,20733.000000,54789.000000
28322.000000,17187.000000,20717.000000,54781.000000
28257.000000,17130.000000,20630.000000,54763.000000
28217.000000,17132.000000,20636.000000,54809.000000
28207.000000,17089.000000,20643.000000,54760.000000
28191.000000,17123.000000,20654.000000,54752.000000
28188.000000,17135.000000,20633.000000,54741.000000
28126.000000,17074.000000,20573.000000,54713.000000
28114.000000,17017.000000,20559.000000,54636.000000
28121.000000,17056.000000,20524.000000,54728.000000
28109.000000,17041.000000,20497.000000,54698.000000
28049.000000,16980.000000,20489.000000,54667.000000
28037.000000,16973.000000,20483.000000,54619.000000
28085.000000,16998.000000,20442.000000,54588.000000
28038.000000,16938.000000,20412.000000,54599.000000
27954.000000,16954.000000,20413.000000,54614.000000
27998.000000,16957.000000,20372.000000,54623.000000
27997.000000,16935.000000,20365.000000,54598.000000
27969.000000,16951.000000,20344.000000,54545.000000
27999.000000,16922.000000,20360.000000,54622.000000
27962.000000,16938.000000,20326.000000,54591.000000
27932.000000,16874.000000,20319.000000,54577.000000
27980.000000,16885.000000,20329.000000,54535.000000
27930.000000,16897.000000,20265.000000,54564.000000
27931.000000,16866.000000,20257.000000,54552.000000
27896.000000,16880.000000,20223.000000,54533.000000
27843.000000,16776.000000,20214.000000,54484.000000
27857.000000,16809.000000,20205.000000,54505.000000
27834.000000,16819.000000,20170.000000,54478.000000
27798.000000,16789.000000,20153.000000,54487.000000
27793.000000,16831.000000,20167.000000,54507.000000
27828.000000,16824.000000,20171.000000,54461.000000
27826.000000,16813.000000,20184.000000,54488.000000
27850.000000,16842.000000,20219.000000,54524.000000
27820.000000,16845.000000,20188.000000,54511.000000
27860.000000,16824.000000,20215.000000,54558.000000
27849.000000,16885.000000,20264.000000,54531.000000
27877.000000,16888.000000,20283.000000,54535.000000
27929.000000,16905.000000,20345.000000,54630.000000
28004.000000,16988.000000,20400.000000,54620.000000
27982.000000,16937.000000,20416.000000,54618.000000
28004.000000,16984.000000,20453.000000,54615.000000
28070.000000,17033.000000,20515.000000,54662.000000
28126.000000,17050.000000,20567.000000,54694.000000
28255.000000,17190.000000,20811.000000,54813.000000
28341.000000,17244.000000,20850.000000,54880.000000
28409.000000,17259.000000,20948.000000,54878.000000
28428.000000,17280.000000,20930.000000,54903.000000
28481.000000,17285.000000,20978.000000,54932.000000
28572.000000,17360.000000,21103.000000,54959.000000
28528.000000,17385.000000,21090.000000,54988.000000
28536.000000,17374.000000,21108.000000,55000.000000
28579.000000,17358.000000,21102.000000,54985.000000
28532.000000,17356.000000,21092.000000,54968.000000
28555.000000,17361.000000,21118.000000,54975.000000
28556.000000,17396.000000,21091.000000,54981.000000
28527.000000,17347.000000,21055.000000,54955.000000
28522.000000,17354.000000,21041.000000,54985.000000
28511.000000,17315.000000,21018.000000,54940.000000
28473.000000,17348.000000,21014.000000,54975.000000
28495.000000,17304.000000,20955.000000,54892.000000
28472.000000,17299.000000,20919.000000,54918.000000
28446.000000,17319.000000,20958.000000,54897.000000
28456.000000,17307.000000,20908.000000,54891.000000
28453.000000,17294.000000,20939.000000,54885.000000
28433.000000,17291.000000,20890.000000,54926.000000
28416.000000,17248.000000,20898.000000,54841.000000
28397.000000,17254.000000,20878.000000,54865.000000
28389.000000,17263.000000,20837.000000,54859.000000
28365.000000,17249.000000,20842.000000,54871.000000
28398.000000,17221.000000,20829.000000,54795.000000
28394.000000,17256.000000,20836.000000,54834.000000
28370.000000,17224.000000,20799.000000,54861.000000
28328.000000,17215.000000,20830.000000,54822.000000
28337.000000,17201.000000,20738.000000,54786.000000
28267.000000,17178.000000,20757.000000,54756.000000
28277.000000,17186.000000,20722.000000,54795.000000
28277.000000,17172.000000,20674.000000,54717.000000
28230.000000,17116.000000,20672.000000,54730.000000
28296.000000,17130.000000,20718.000000,54746.000000
28199.000000,17149.000000,20652.000000,54805.000000
28245.000000,17104.000000,20639.000000,54706.000000
28202.000000,17087.000000,20600.000000,54733.000000
28173.000000,17063.000000,20570.000000,54657.000000
28145.000000,17066.000000,20532.000000,54696.000000
28096.000000,17002.000000,20456.000000,54657.000000
28099.000000,17000.000000,20474.000000,54653.000000
28089.000000,17001.000000,20477.000000,54674.000000
28114.000000,17013.000000,20441.000000,54678.000000
28071.000000,16997.000000,20428.000000,54627.000000
28026.000000,17007.000000,20436.000000,54665.000000
28033.000000,17021.000000,20410.000000,54621.000000
28048.000000,16994.000000,20402.000000,54614.000000
28019.000000,16943.000000,20413.000000,54616.000000
28018.000000,16945.000000,20367.000000,54600.000000
28006.000000,16909.000000,20383.000000,54615.000000
27988.000000,16968.000000,20320.000000,54603.000000
28009.000000,16906.000000,20349.000000,54552.000000
27952.000000,16882.000000,20296.000000,54545.000000
27923.000000,16916.000000,20252.000000,54514.000000
27930.000000,16872.000000,20259.000000,54545.000000
27864.000000,16844.000000,20218.000000,54497.000000
27845.000000,16799.000000,20195.000000,54465.000000
27830.000000,16795.000000,20195.000000,54481.000000
27839.000000,16819.000000,20184.000000,54514.000000
27836.000000,16816.000000,20190.000000,54502.000000
27839.000000,16831.000000,20195.000000,54499.000000
27834.000000,16843.000000,20243.000000,54492.000000
27883.000000,16846.000000,20218.000000,54522.000000
27863.000000,16838.000000,20219.000000,54528.000000
27896.000000,16857.000000,20290.000000,54530.000000
27928.000000,16880.000000,20299.000000,54535.000000
27906.000000,16895.000000,20306.000000,54550.000000
27924.000000,16901.000000,20352.000000,54598.000000
28037.000000,16988.000000,20447.000000,54595.000000
28051.000000,16978.000000,20455.000000,54634.000000
28055.000000,16965.000000,20506.000000,54684.000000
28156.000000,17055.000000,20590.000000,54733.000000
28158.000000,17086.000000,20641.000000,54721.000000
28211.000000,17140.000000,20626.000000,54780.000000
28277.000000,17144.000000,20716.000000,54777.000000
28372.000000,17297.000000,20870.000000,54880.000000
28424.000000,17271.000000,20914.000000,54915.000000
28576.000000,17354.000000,21106.000000,54997.000000
28586.000000,17398.000000,21126.000000,55019.000000
28635.000000,17419.000000,21188.000000,55042.000000
28677.000000,17439.000000,21194.000000,55064.000000
28665.000000,17400.000000,21138.000000,55034.000000
28674.000000,17404.000000,21164.000000,55041.000000
28679.000000,17407.000000,21183.000000,55001.000000
28625.000000,17412.000000,21125.000000,55017.000000
28610.000000,17418.000000,21112.000000,55013.000000
28644.000000,17371.000000,21125.000000,54980.000000
28658.000000,17343.000000,21073.000000,54987.000000
28573.000000,17338.000000,21093.000000,54965.000000
28570.000000,17373.000000,21064.000000,55006.000000
28572.000000,17367.000000,21040.000000,54987.000000
28598.000000,17356.000000,21036.000000,54999.000000
28537.000000,17358.000000,21005.000000,54953.000000
28537.000000,17313.000000,20931.000000,54944.000000
28528.000000,17287.000000,21011.000000,54913.000000
28505.000000,17311.000000,20958.000000,54930.000000
28453.000000,17290.000000,20962.000000,54867.000000
28454.000000,17305.000000,20905.000000,54912.000000
28475.000000,17255.000000,20923.000000,54872.000000
28428.000000,17297.000000,20895.000000,54860.000000
28396.000000,17252.000000,20823.000000,54872.000000
28417.000000,17242.000000,20871.000000,54843.000000
28409.000000,17251.000000,20819.000000,54833.000000
28328.000000,17215.000000,20814.000000,54798.000000
28314.000000,17210.000000,20789.000000,54814.000000
28343.000000,17197.000000,20775.000000,54864.000000
28319.000000,17187.000000,20759.000000,54797.000000
28257.000000,17131.000000,20680.000000,54791.000000
28268.000000,17177.000000,20644.000000,54726.000000
28247.000000,17181.000000,20653.000000,54732.000000
28213.000000,17124.000000,20603.000000,54710.000000
28184.000000,17097.000000,20609.000000,54716.000000
28194.000000,17076.000000,20603.000000,54710.000000
28169.000000,17103.000000,20580.000000,54739.000000
28105.000000,17039.000000,20552.000000,54663.000000
28147.000000,17062.000000,20494.000000,54668.000000
28159.000000,17006.000000,20507.000000,54647.000000
28101.000000,17022.000000,20491.000000,54662.000000
28115.000000,17022.000000,20488.000000,54621.000000
28053.000000,17005.000000,20489.000000,54640.000000
28063.000000,16963.000000,20494.000000,54637.000000
28045.000000,16989.000000,20468.000000,54645.000000
28061.000000,16992.000000,20435.000000,54600.000000
28041.000000,16916.000000,20386.000000,54591.000000
28001.000000,16946.000000,20350.000000,54596.000000
28002.000000,16930.000000,20349.000000,54578.000000
27990.000000,16927.000000,20320.000000,54610.000000
27918.000000,16855.000000,20265.000000,54563.000000
27910.000000,16846.000000,20277.000000,54532.000000
27908.000000,16864.000000,20253.000000,54529.000000
27868.000000,16864.000000,20249.000000,54519.000000
27879.000000,16849.000000,20188.000000,54493.000000
27851.000000,16834.000000,20200.000000,54496.000000
27866.000000,16824.000000,20178.000000,54494.000000
27834.000000,16800.000000,20179.000000,54488.000000
27908.000000,16850.000000,20237.000000,54497.000000
27884.000000,16850.000000,20226.000000,54481.000000
27905.000000,16841.000000,20198.000000,54537.000000
27935.000000,16844.000000,20255.000000,54498.000000
27945.000000,16866.000000,20318.000000,54581.000000
27967.000000,16863.000000,20321.000000,54565.000000
27988.000000,16940.000000,20423.000000,54640.000000
28009.000000,16972.000000,20424.000000,54671.000000
28045.000000,16956.000000,20471.000000,54669.000000
28118.000000,16999.000000,20536.000000,54685.000000
28121.000000,17064.000000,20497.000000,54730.000000
28159.000000,17057.000000,20549.000000,54736.000000
28179.000000,17067.000000,20625.000000,54733.000000
28378.000000,17215.000000,20800.000000,54876.000000
28387.000000,17244.000000,20899.000000,54891.000000
28483.000000,17267.000000,20964.000000,54904.000000
28517.000000,17338.000000,21024.000000,54959.000000
28640.000000,17411.000000,21151.000000,55055.000000
28703.000000,17388.000000,21170.000000,55048.000000
28681.000000,17413.000000,21187.000000,55051.000000
28730.000000,17466.000000,21222.000000,55099.000000
28739.000000,17484.000000,21240.000000,55076.000000
28686.000000,17447.000000,21185.000000,55112.000000
28677.000000,17450.000000,21242.000000,55031.000000
28704.000000,17454.000000,21200.000000,55068.000000
28662.000000,17411.000000,21173.000000,55028.000000
28661.000000,17450.000000,21171.000000,55046.000000
28670.000000,17407.000000,21153.000000,55024.000000
28633.000000,17416.000000,21157.000000,55015.000000
28635.000000,17406.000000,21089.000000,55026.000000
28603.000000,17397.000000,21086.000000,55000.000000
28567.000000,17326.000000,21029.000000,54999.000000
28574.000000,17346.000000,21035.000000,54939.000000
28567.000000,17367.000000,21051.000000,54985.000000
28575.000000,17369.000000,20987.000000,54961.000000
28526.000000,17331.000000,21044.000000,54947.000000
28522.000000,17293.000000,20953.000000,54971.000000
28488.000000,17279.000000,20971.000000,54911.000000
28499.000000,17303.000000,20988.000000,54952.000000
28484.000000,17282.000000,20918.000000,54933.000000
28484.000000,17303.000000,20919.000000,54915.000000
28496.000000,17257.000000,20915.000000,54911.000000
28465.000000,17292.000000,20913.000000,54909.000000
28458.000000,17292.000000,20899.000000,54896.000000
28398.000000,17284.000000,20879.000000,54876.000000
28398.000000,17240.000000,20855.000000,54863.000000
28380.000000,17223.000000,20835.000000,54863.000000
28334.000000,17188.000000,20804.000000,54828.000000
28294.000000,17203.000000,20751.000000,54811.000000
28274.000000,17178.000000,20763.000000,54763.000000
28260.000000,17202.000000,20758.000000,54826.000000
28275.000000,17154.000000,20692.000000,54716.000000
28260.000000,17182.000000,20668.000000,54777.000000
28212.000000,17106.000000,20672.000000,54771.000000
28185.000000,17132.000000,20633.000000,54713.000000
28201.000000,17096.000000,20614.000000,54747.000000
28167.000000,17121.000000,20628.000000,54731.000000
28172.000000,17158.000000,20604.000000,54747.000000
28183.000000,17095.000000,20600.000000,54717.000000
28172.000000,17077.000000,20587.000000,54701.000000
28154.000000,17096.000000,20566.000000,54726.000000
28166.000000,17063.000000,20609.000000,54737.000000
28141.000000,17114.000000,20594.000000,54717.000000
28132.000000,17062.000000,20552.000000,54687.000000
28168.000000,17037.000000,20552.000000,54695.000000
28106.000000,17046.000000,20568.000000,54687.000000
28105.000000,17052.000000,20527.000000,54711.000000
28123.000000,17047.000000,20521.000000,54662.000000
28037.000000,16995.000000,20497.000000,54647.000000
28069.000000,17014.000000,20445.000000,54668.000000
28034.000000,17053.000000,20475.000000,54650.000000
28034.000000,16990.000000,20435.000000,54610.000000
28021.000000,16981.000000,20429.000000,54577.000000
28003.000000,16945.000000,20414.000000,54584.000000
28019.000000,16990.000000,20407.000000,54598.000000
28033.000000,16973.000000,20415.000000,54604.000000
28000.000000,17000.000000,20445.000000,54601.000000
28069.000000,17009.000000,20492.000000,54632.000000
28063.000000,17015.000000,20501.000000,54650.000000
28013.000000,17030.000000,20483.000000,54669.000000
28047.000000,17013.000000,20477.000000,54688.000000
28146.000000,17065.000000,20584.000000,54693.000000
28179.000000,17083.000000,20614.000000,54715.000000
28192.000000,17141.000000,20650.000000,54741.000000
28223.000000,17149.000000,20638.000000,54757.000000
28242.000000,17134.000000,20676.000000,54771.000000
28320.000000,17208.000000,20796.000000,54848.000000
28430.000000,17264.000000,20982.000000,54912.000000
28560.000000,17369.000000,21115.000000,55018.000000
28636.000000,17410.000000,21197.000000,55031.000000
28646.000000,17445.000000,21226.000000,55051.000000
28702.000000,17483.000000,21278.000000,55056.000000
28821.000000,17547.000000,21428.000000,55174.000000
28808.000000,17565.000000,21406.000000,55150.000000
28819.000000,17547.000000,21396.000000,55130.000000
28820.000000,17547.000000,21418.000000,55155.000000
28841.000000,17591.000000,21356.000000,55146.000000
28806.000000,17558.000000,21350.000000,55135.000000
28820.000000,17578.000000,21382.000000,55115.000000
28767.000000,17507.000000,21346.000000,55094.000000
28764.000000,17547.000000,21305.000000,55121.000000
28759.000000,17515.000000,21316.000000,55130.000000
28707.000000,17493.000000,21302.000000,55096.000000
28669.000000,17494.000000,21280.000000,55055.000000
28728.000000,17490.000000,21278.000000,55049.000000
28744.000000,17460.000000,21234.000000,55077.000000
28745.000000,17482.000000,21213.000000,55022.000000
28706.000000,17455.000000,21218.000000,55086.000000
28670.000000,17481.000000,21175.000000,55052.000000
28673.000000,17422.000000,21175.000000,55037.000000
28652.000000,17451.000000,21159.000000,55034.000000
28654.000000,17414.000000,21171.000000,54990.000000
28588.000000,17394.000000,21131.000000,54998.000000
28554.000000,17363.000000,21153.000000,54999.000000
28549.000000,17422.000000,21117.000000,54979.000000
28562.000000,17365.000000,21067.000000,54980.000000
28573.000000,17387.000000,21027.000000,54961.000000
28557.000000,17392.000000,21043.000000,54927.000000
28496.000000,17327.000000,20995.000000,54951.000000
28452.000000,17345.000000,20976.000000,54961.000000
28467.000000,17314.000000,20997.000000,54888.000000
28426.000000,17324.000000,20949.000000,54887.000000
28457.000000,17304.000000,20936.000000,54866.000000
28404.000000,17276.000000,20939.000000,54895.000000
28401.000000,17252.000000,20890.000000,54852.000000
28389.000000,17206.000000,20856.000000,54862.000000
28346.000000,17235.000000,20836.000000,54855.000000
28325.000000,17233.000000,20800.000000,54844.000000
28337.000000,17201.000000,20814.000000,54817.000000
28299.000000,17248.000000,20753.000000,54807.000000
28293.000000,17188.000000,20774.000000,54779.000000
28262.000000,17168.000000,20721.000000,54763.000000
28244.000000,17132.000000,20705.000000,54760.000000
28238.000000,17145.000000,20655.000000,54755.000000
28200.000000,17152.000000,20647.000000,54709.000000
28196.000000,17127.000000,20642.000000,54754.000000
28245.000000,17138.000000,20663.000000,54723.000000
28170.000000,17146.000000,20638.000000,54738.000000
28159.000000,17130.000000,20616.000000,54744.000000
28193.000000,17081.000000,20601.000000,54718.000000
28177.000000,17061.000000,20607.000000,54723.000000
28143.000000,17110.000000,20606.000000,54665.000000
28176.000000,17047.000000,20598.000000,54682.000000
28108.000000,17028.000000,20550.000000,54699.000000
28085.000000,17073.000000,20530.000000,54676.000000
28026.000000,17026.000000,20450.000000,54633.000000
28018.000000,17001.000000,20484.000000,54636.000000
28036.000000,17026.000000,20452.000000,54625.000000
28036.000000,17014.000000,20440.000000,54618.000000
28018.000000,17010.000000,20433.000000,54645.000000
28051.000000,16996.000000,20461.000000,54615.000000
28054.000000,17035.000000,20458.000000,54633.000000
28054.000000,17019.000000,20470.000000,54664.000000
28074.000000,17029.000000,20476.000000,54603.000000
28084.000000,17033.000000,20495.000000,54659.000000
28054.000000,17025.000000,20556.000000,54642.000000
28101.000000,17061.000000,20548.000000,54709.000000
28116.000000,17053.000000,20553.000000,54706.000000
28200.000000,17136.000000,20661.000000,54755.000000
28207.000000,17175.000000,20729.000000,54773.000000
28237.000000,17172.000000,20725.000000,54807.000000
28254.000000,17219.000000,20794.000000,54802.000000
28391.000000,17265.000000,20922.000000,54888.000000
28462.000000,17307.000000,20988.000000,54928.000000
28585.000000,17412.000000,21155.000000,55021.000000
28645.000000,17433.000000,21251.000000,55076.000000
28683.000000,17493.000000,21299.000000,55093.000000
28774.000000,17559.000000,21397.000000,55122.000000
28799.000000,17563.000000,21433.000000,55176.000000
28807.000000,17545.000000,21415.000000,55125.000000
28786.000000,17606.000000,21409.000000,55141.000000
28799.000000,17556.000000,21349.000000,55106.000000
28762.000000,17569.000000,21352.000000,55134.000000
28730.000000,17524.000000,21375.000000,55134.000000
28735.000000,17526.000000,21360.000000,55107.000000
28735.000000,17536.000000,21315.000000,55067.000000
28724.000000,17513.000000,21308.000000,55067.000000
28691.000000,17459.000000,21290.000000,55074.000000
28722.000000,17463.000000,21250.000000,55066.000000
28666.000000,17475.000000,21235.000000,55040.000000
28684.000000,17440.000000,21205.000000,55032.000000
28650.000000,17423.000000,21189.000000,55044.000000
28649.000000,17414.000000,21178.000000,55027.000000
28633.000000,17431.000000,21164.000000,55034.000000
28579.000000,17398.000000,21122.000000,55004.000000
28605.000000,17416.000000,21144.000000,54964.000000
28609.000000,17377.000000,21101.000000,54948.000000
28611.000000,17385.000000,21089.000000,54987.000000
28558.000000,17378.000000,21095.000000,54960.000000
28561.000000,17354.000000,21088.000000,54960.000000
28536.000000,17373.000000,21065.000000,54947.000000
28482.000000,17348.000000,21014.000000,54931.000000
28531.000000,17345.000000,21028.000000,54917.000000
28519.000000,17336.000000,21006.000000,54897.000000
28454.000000,17271.000000,21001.000000,54867.000000
28431.000000,17272.000000,20898.000000,54844.000000
28442.000000,17283.000000,20878.000000,54850.000000
28406.000000,17262.000000,20885.000000,54855.000000
28382.000000,17249.000000,20847.000000,54841.000000
28361.000000,17227.000000,20808.000000,54836.000000
28332.000000,17179.000000,20813.000000,54829.000000
28302.000000,17184.000000,20783.000000,54802.000000
28284.000000,17165.000000,20732.000000,54808.000000
28251.000000,17162.000000,20678.000000,54763.000000
28253.000000,17176.000000,20687.000000,54769.000000
28215.000000,17109.000000,20668.000000,54698.000000
28231.000000,17120.000000,20647.000000,54736.000000
28189.000000,17075.000000,20575.000000,54708.000000
28203.000000,17077.000000,20543.000000,54722.000000
28171.000000,17052.000000,20567.000000,54688.000000
28133.000000,17069.000000,20551.000000,54704.000000
28121.000000,17030.000000,20488.000000,54672.000000
28141.000000,17056.000000,20508.000000,54672.000000
28102.000000,17011.000000,20509.000000,54638.000000
28112.000000,16991.000000,20480.000000,54631.000000
28089.000000,17017.000000,20452.000000,54628.000000
28039.000000,17001.000000,20408.000000,54645.000000
28056.000000,16964.000000,20442.000000,54589.000000
28024.000000,16987.000000,20385.000000,54635.000000
27962.000000,16929.000000,20341.000000,54570.000000
27990.000000,16931.000000,20317.000000,54568.000000
27940.000000,16916.000000,20337.000000,54618.000000
27971.000000,16898.000000,20302.000000,54559.000000
27927.000000,16945.000000,20335.000000,54560.000000
27958.000000,16902.000000,20361.000000,54561.000000
27949.000000,16944.000000,20298.000000,54587.000000
27961.000000,16901.000000,20344.000000,54590.000000
27988.000000,16933.000000,20349.000000,54555.000000
28006.000000,16926.000000,20413.000000,54588.000000
27971.000000,16945.000000,20418.000000,54607.000000
28010.000000,16984.000000,20411.000000,54633.000000
28074.000000,17034.000000,20455.000000,54634.000000
28075.000000,16999.000000,20474.000000,54644.000000
28144.000000,17096.000000,20621.000000,54713.000000
28146.000000,17066.000000,20641.000000,54730.000000
28187.000000,17103.000000,20655.000000,54758.000000
28365.000000,17256.000000,20846.000000,54896.000000
28423.000000,17255.000000,20910.000000,54914.000000
28452.000000,17326.000000,20995.000000,54921.000000
28490.000000,17356.000000,21060.000000,54961.000000
28585.000000,17332.000000,21110.000000,54998.000000
28688.000000,17445.000000,21274.000000,55074.000000
28702.000000,17474.000000,21285.000000,55043.000000
28795.000000,17497.000000,21334.000000,55131.000000
28770.000000,17550.000000,21298.000000,55110.000000
28775.000000,17487.000000,21343.000000,55108.000000
28765.000000,17498.000000,21296.000000,55120.000000
28730.000000,17452.000000,21275.000000,55109.000000
28720.000000,17471.000000,21276.000000,55073.000000
28690.000000,17457.000000,21237.000000,55074.000000
28725.000000,17439.000000,21225.000000,55051.000000
28675.000000,17418.000000,21171.000000,55067.000000
28634.000000,17445.000000,21169.000000,55030.000000
28665.000000,17434.000000,21161.000000,55013.000000
28650.000000,17384.000000,21178.000000,55005.000000
28598.000000,17386.000000,21087.000000,54967.000000
28575.000000,17384.000000,21086.000000,54990.000000
28563.000000,17346.000000,21048.000000,54967.000000
28596.000000,17347.000000,21088.000000,54950.000000
28565.000000,17337.000000,21085.000000,54920.000000
28575.000000,17304.000000,21001.000000,54962.000000
28583.000000,17373.000000,20990.000000,54928.000000
28522.000000,17317.000000,20982.000000,54889.000000
28494.000000,17313.000000,20969.000000,54922.000000
28530.000000,17299.000000,20936.000000,54910.000000
28473.000000,17283.000000,20925.000000,54881.000000
28446.000000,17269.000000,20909.000000,54873.000000
28428.000000,17249.000000,20885.000000,54842.000000
28392.000000,17249.000000,20865.000000,54855.000000
28385.000000,17245.000000,20853.000000,54846.000000
28397.000000,17224.000000,20840.000000,54853.000000
28382.000000,17216.000000,20811.000000,54831.000000
28363.000000,17236.000000,20781.000000,54818.000000
28306.000000,17199.000000,20799.000000,54824.000000
28301.000000,17185.000000,20755.000000,54826.000000
28306.000000,17194.000000,20689.000000,54795.000000
28274.000000,17171.000000,20706.000000,54820.000000
28227.000000,17151.000000,20699.000000,54753.000000
28272.000000,17116.000000,20664.000000,54761.000000
28202.000000,17131.000000,20595.000000,54745.000000
28181.000000,17104.000000,20596.000000,54702.000000
28168.000000,17050.000000,20563.000000,54695.000000
28171.000000,17091.000000,20541.000000,54705.000000
28133.000000,17019.000000,20564.000000,54677.000000
28145.000000,17047.000000,20543.000000,54674.000000
28128.000000,17040.000000,20497.000000,54672.000000
28116.000000,17024.000000,20490.000000,54629.000000
28104.000000,17024.000000,20456.000000,54663.000000
28126.000000,17038.000000,20518.000000,54667.000000
28046.000000,17011.000000,20442.000000,54643.000000
28083.000000,17001.000000,20405.000000,54621.000000
28020.000000,16989.000000,20403.000000,54635.000000
28019.000000,16963.000000,20400.000000,54611.000000
28011.000000,17002.000000,20410.000000,54599.000000
27939.000000,16933.000000,20370.000000,54592.000000
27941.000000,16904.000000,20348.000000,54606.000000
27958.000000,16917.000000,20380.000000,54574.000000
27985.000000,16935.000000,20362.000000,54558.000000
27975.000000,16930.000000,20429.000000,54599.000000
27977.000000,16953.000000,20403.000000,54558.000000
27999.000000,16933.000000,20401.000000,54608.000000
27990.000000,17000.000000,20414.000000,54573.000000
28061.000000,17011.000000,20472.000000,54664.000000
28061.000000,17039.000000,20500.000000,54677.000000
28088.000000,17071.000000,20548.000000,54677.000000
28084.000000,17038.000000,20538.000000,54720.000000
28199.000000,17125.000000,20687.000000,54754.000000
28178.000000,17138.000000,20730.000000,54738.000000
28226.000000,17128.000000,20780.000000,54826.000000
28324.000000,17259.000000,20892.000000,54885.000000
28364.000000,17275.000000,20910.000000,54870.000000
28422.000000,17282.000000,20950.000000,54905.000000
28670.000000,17447.000000,21191.000000,55054.000000
28695.000000,17492.000000,21260.000000,55056.000000
28697.000000,17508.000000,21267.000000,55123.000000
28735.000000,17546.000000,21343.000000,55118.000000
28834.000000,17580.000000,21455.000000,55162.000000
28852.000000,17623.000000,21429.000000,55180.000000
28803.000000,17590.000000,21434.000000,55155.000000
28809.000000,17577.000000,21443.000000,55116.000000
28818.000000,17588.000000,21437.000000,55168.000000
28767.000000,17544.000000,21419.000000,55144.000000
28746.000000,17573.000000,21437.000000,55169.000000
28790.000000,17575.000000,21421.000000,55137.000000
28738.000000,17526.000000,21351.000000,55132.000000
28750.000000,17535.000000,21348.000000,55094.000000
28740.000000,17479.000000,21339.000000,55056.000000
28708.000000,17495.000000,21323.000000,55078.000000
28687.000000,17512.000000,21269.000000,55088.000000
28733.000000,17488.000000,21284.000000,55052.000000
28684.000000,17469.000000,21271.000000,55062.000000
28695.000000,17424.000000,21251.000000,55067.000000
28653.000000,17458.000000,21238.000000,55035.000000
28663.000000,17430.000000,21195.000000,54998.000000
28639.000000,17460.000000,21184.000000,55027.000000
28626.000000,17452.000000,21156.000000,55006.000000
28617.000000,17439.000000,21158.000000,55021.000000
28585.000000,17406.000000,21138.000000,54999.000000
28619.000000,17428.000000,21131.000000,55017.000000
28579.000000,17396.000000,21117.000000,54965.000000
28549.000000,17368.000000,21065.000000,54954.000000
28547.000000,17344.000000,21082.000000,54915.000000
28556.000000,17365.000000,21042.000000,54960.000000
28495.000000,17330.000000,21039.000000,54929.000000
28536.000000,17362.000000,21024.000000,54933.000000
28404.000000,17339.000000,20942.000000,54906.000000
28424.000000,17291.000000,20946.000000,54912.000000
28459.000000,17272.000000,20946.000000,54895.000000
28418.000000,17320.000000,20931.000000,54840.000000
28388.000000,17312.000000,20879.000000,54863.000000
28399.000000,17251.000000,20889.000000,54866.000000
28371.000000,17253.000000,20862.000000,54841.000000
28321.000000,17227.000000,20819.000000,54846.000000
28369.000000,17242.000000,20761.000000,54806.000000
28308.000000,17205.000000,20773.000000,54754.000000
28329.000000,17189.000000,20786.000000,54782.000000
28279.000000,17214.000000,20771.000000,54807.000000
28252.000000,17178.000000,20722.000000,54784.000000
28256.000000,17195.000000,20715.000000,54786.000000
28229.000000,17170.000000,20711.000000,54787.000000
28217.000000,17146.000000,20707.000000,54776.000000
28220.000000,17128.000000,20655.000000,54748.000000
28183.000000,17139.000000,20653.000000,54725.000000
28169.000000,17152.000000,20638.000000,54741.000000
28176.000000,17135.000000,20587.000000,54743.000000
28129.000000,17065.000000,20566.000000,54666.000000
28094.000000,17067.000000,20513.000000,54667.000000
28102.000000,17062.000000,20519.000000,54678.000000
28092.000000,17059.000000,20482.000000,54655.000000
28057.000000,17069.000000,20527.000000,54635.000000
28057.000000,17002.000000,20514.000000,54626.000000
28067.000000,17034.000000,20491.000000,54648.000000
28045.000000,17022.000000,20494.000000,54636.000000
28066.000000,16976.000000,20524.000000,54646.000000
28062.000000,17051.000000,20507.000000,54713.000000
28125.000000,17064.000000,20545.000000,54703.000000
28110.000000,17090.000000,20568.000000,54682.000000
28115.000000,17054.000000,20601.000000,54713.000000
28133.000000,17131.000000,20597.000000,54726.000000
28174.000000,17125.000000,20599.000000,54731.000000
28205.000000,17135.000000,20649.000000,54725.000000
28274.000000,17192.000000,20770.000000,54819.000000
28331.000000,17194.000000,20787.000000,54826.000000
28338.000000,17239.000000,20806.000000,54802.000000
28409.000000,17268.000000,20950.000000,54879.000000
28492.000000,17345.000000,21006.000000,54916.000000
28487.000000,17371.000000,21019.000000,54969.000000
28537.000000,17396.000000,21106.000000,54985.000000
28676.000000,17473.000000,21290.000000,55094.000000
28745.000000,17551.000000,21335.000000,55128.000000
28841.000000,17621.000000,21422.000000,55185.000000
28882.000000,17675.000000,21515.000000,55200.000000
28880.000000,17694.000000,21512.000000,55210.000000
28862.000000,17655.000000,21501.000000,55185.000000
28851.000000,17638.000000,21486.000000,55227.000000
28882.000000,17604.000000,21467.000000,55212.000000
28884.000000,17627.000000,21475.000000,55188.000000
28829.000000,17613.000000,21460.000000,55172.000000
28848.000000,17592.000000,21457.000000,55153.000000
28832.000000,17616.000000,21451.000000,55137.000000
28815.000000,17591.000000,21366.000000,55146.000000
28788.000000,17575.000000,21356.000000,55099.000000
28793.000000,17565.000000,21336.000000,55096.000000
28779.000000,17572.000000,21338.000000,55107.000000
28782.000000,17518.000000,21356.000000,55100.000000
28724.000000,17504.000000,21323.000000,55100.000000
28700.000000,17515.000000,21265.000000,55040.000000
28721.000000,17486.000000,21257.000000,55076.000000
28725.000000,17478.000000,21275.000000,55030.000000
28710.000000,17486.000000,21233.000000,55058.000000
28629.000000,17465.000000,21242.000000,55066.000000
28672.000000,17467.000000,21239.000000,55018.000000
28678.000000,17439.000000,21167.000000,55025.000000
28637.000000,17427.000000,21210.000000,55016.000000
28641.000000,17408.000000,21113.000000,55000.000000
28639.000000,17396.000000,21158.000000,55022.000000
28557.000000,17361.000000,21107.000000,54967.000000
28559.000000,17359.000000,21065.000000,54939.000000
28566.000000,17357.000000,21032.000000,54971.000000
28536.000000,17365.000000,21030.000000,54966.000000
28517.000000,17317.000000,20971.000000,54902.000000
28507.000000,17305.000000,20985.000000,54887.000000
28477.000000,17322.000000,20958.000000,54894.000000
28456.000000,17291.000000,20956.000000,54913.000000
28415.000000,17257.000000,20913.000000,54878.000000
28408.000000,17257.000000,20872.000000,54866.000000
28384.000000,17279.000000,20901.000000,54862.000000
28375.000000,17275.000000,20827.000000,54834.000000
28384.000000,17249.000000,20836.000000,54827.000000
28354.000000,17230.000000,20796.000000,54821.000000
28350.000000,17227.000000,20821.000000,54804.000000
28327.000000,17198.000000,20752.000000,54788.000000
28313.000000,17222.000000,20765.000000,54811.000000
28318.000000,17185.000000,20773.000000,54779.000000
28311.000000,17218.000000,20778.000000,54763.000000
28282.000000,17197.000000,20722.000000,54756.000000
28234.000000,17172.000000,20700.000000,54785.000000
28300.000000,17158.000000,20680.000000,54742.000000
28248.000000,17143.000000,20651.000000,54757.000000
28193.000000,17120.000000,20662.000000,54716.000000
28164.000000,17077.000000,20600.000000,54733.000000
28134.000000,17100.000000,20591.000000,54693.000000
28133.000000,17068.000000,20597.000000,54669.000000
28117.000000,17063.000000,20508.000000,54684.000000
28122.000000,17053.000000,20527.000000,54684.000000
28115.000000,17026.000000,20530.000000,54677.000000
28128.000000,17031.000000,20550.000000,54665.000000
28098.000000,17077.000000,20569.000000,54700.000000
28116.000000,17074.000000,20564.000000,54715.000000
28112.000000,17048.000000,20580.000000,54692.000000
28151.000000,17077.000000,20604.000000,54701.000000
28194.000000,17141.000000,20636.000000,54711.000000
28186.000000,17136.000000,20642.000000,54764.000000
28241.000000,17122.000000,20710.000000,54785.000000
28256.000000,17119.000000,20686.000000,54750.000000
28357.000000,17233.000000,20816.000000,54833.000000
28384.000000,17209.000000,20833.000000,54815.000000
28398.000000,17259.000000,20884.000000,54872.000000
28420.000000,17294.000000,20936.000000,54913.000000
28687.000000,17450.000000,21211.000000,55068.000000
28749.000000,17457.000000,21282.000000,55052.000000
28784.000000,17518.000000,21313.000000,55077.000000
28825.000000,17544.000000,21388.000000,55119.000000
28914.000000,17621.000000,21495.000000,55165.000000
28902.000000,17645.000000,21485.000000,55209.000000
28904.000000,17641.000000,21500.000000,55229.000000
28895.000000,17601.000000,21533.000000,55218.000000
28897.000000,17652.000000,21493.000000,55176.000000
28873.000000,17646.000000,21445.000000,55190.000000
28854.000000,17643.000000,21475.000000,55182.000000
28868.000000,17585.000000,21369.000000,55137.000000
28854.000000,17556.000000,21391.000000,55131.000000
28838.000000,17510.000000,21347.000000,55084.000000
28781.000000,17573.000000,21347.000000,55121.000000
28822.000000,17545.000000,21337.000000,55110.000000
28796.000000,17531.000000,21326.000000,55118.000000
28781.000000,17528.000000,21283.000000,55115.000000
28800.000000,17514.000000,21326.000000,55066.000000
28770.000000,17503.000000,21252.000000,55043.000000
28764.000000,17472.000000,21205.000000,55059.000000
28716.000000,17499.000000,21228.000000,55044.000000
28714.000000,17444.000000,21161.000000,55062.000000
28720.000000,17500.000000,21199.000000,55029.000000
28646.000000,17377.000000,21187.000000,55010.000000
28688.000000,17417.000000,21146.000000,55003.000000
28662.000000,17402.000000,21171.000000,54993.000000
28654.000000,17364.000000,21113.000000,54980.000000
28628.000000,17392.000000,21098.000000,54983.000000
28616.000000,17400.000000,21095.000000,54987.000000
28593.000000,17372.000000,21027.000000,54975.000000
28577.000000,17371.000000,21025.000000,54933.000000
28555.000000,17337.000000,21000.000000,54940.000000
28552.000000,17327.000000,20961.000000,54924.000000
28546.000000,17335.000000,20955.000000,54904.000000
28489.000000,17337.000000,20969.000000,54925.000000
28531.000000,17309.000000,20927.000000,54923.000000
28493.000000,17314.000000,20876.000000,54873.000000
28470.000000,17325.000000,20908.000000,54856.000000
28382.000000,17257.000000,20817.000000,54837.000000
28425.000000,17235.000000,20833.000000,54813.000000
28358.000000,17217.000000,20830.000000,54819.000000
28422.000000,17215.000000,20848.000000,54847.000000
28311.000000,17189.000000,20801.000000,54808.000000
28351.000000,17224.000000,20792.000000,54815.000000
28319.000000,17142.000000,20703.000000,54761.000000
28328.000000,17186.000000,20702.000000,54746.000000
28294.000000,17167.000000,20679.000000,54767.000000
28291.000000,17170.000000,20652.000000,54778.000000
28234.000000,17129.000000,20646.000000,54710.000000
28251.000000,17107.000000,20618.000000,54754.000000
28245.000000,17094.000000,20602.000000,54702.000000
28212.000000,17124.000000,20590.000000,54728.000000
28199.000000,17059.000000,20545.000000,54686.000000
28187.000000,17016.000000,20525.000000,54674.000000
28140.000000,17066.000000,20513.000000,54672.000000
28141.000000,17036.000000,20512.000000,54688.000000
28098.000000,17038.000000,20406.000000,54622.000000
28095.000000,17013.000000,20429.000000,54642.000000
28080.000000,16974.000000,20448.000000,54638.000000
28100.000000,16989.000000,20455.000000,54604.000000
28095.000000,16953.000000,20433.000000,54620.000000
28117.000000,17000.000000,20444.000000,54669.000000
28126.000000,17011.000000,20460.000000,54633.000000
28105.000000,16978.000000,20485.000000,54665.000000
28103.000000,17004.000000,20462.000000,54657.000000
28201.000000,17055.000000,20553.000000,54724.000000
28183.000000,17055.000000,20588.000000,54719.000000
28189.000000,17064.000000,20607.000000,54710.000000
28224.000000,17135.000000,20654.000000,54772.000000
28253.000000,17172.000000,20678.000000,54767.000000
28274.000000,17195.000000,20695.000000,54759.000000
28302.000000,17196.000000,20708.000000,54800.000000
28475.000000,17256.000000,20898.000000,54878.000000
28462.000000,17291.000000,20927.000000,54897.000000
28554.000000,17310.000000,20950.000000,54901.000000
28570.000000,17351.000000,21007.000000,54957.000000
28705.000000,17472.000000,21209.000000,55070.000000
28755.000000,17487.000000,21274.000000,55085.000000
28912.000000,17673.000000,21523.000000,55198.000000
28971.000000,17638.000000,21551.000000,55242.000000
28970.000000,17682.000000,21526.000000,55283.000000
28979.000000,17679.000000,21576.000000,55246.000000
28968.000000,17679.000000,21601.000000,55247.000000
29002.000000,17657.000000,21543.000000,55230.000000
28976.000000,17659.000000,21512.000000,55250.000000
28926.000000,17652.000000,21535.000000,55244.000000
28923.000000,17593.000000,21508.000000,55170.000000
28929.000000,17642.000000,21454.000000,55173.000000
28891.000000,17589.000000,21403.000000,55162.000000
28897.000000,17581.000000,21435.000000,55181.000000
28891.000000,17603.000000,21443.000000,55178.000000
28897.000000,17620.000000,21412.000000,55157.000000
28851.000000,17612.000000,21396.000000,55121.000000
28875.000000,17560.000000,21373.000000,55109.000000
28814.000000,17491.000000,21366.000000,55091.000000
28836.000000,17532.000000,21356.000000,55068.000000
28795.000000,17555.000000,21300.000000,55076.000000
28789.000000,17515.000000,21336.000000,55053.000000
28800.000000,17508.000000,21262.000000,55052.000000
28763.000000,17518.000000,21230.000000,55051.000000
28780.000000,17515.000000,21248.000000,55049.000000
28733.000000,17496.000000,21231.000000,55049.000000
28708.000000,17456.000000,21199.000000,55054.000000
28695.000000,17529.000000,21205.000000,55014.000000
28747.000000,17487.000000,21206.000000,55042.000000
28697.000000,17481.000000,21192.000000,55059.000000
28714.000000,17456.000000,21141.000000,54995.000000
28668.000000,17473.000000,21140.000000,55001.000000
28628.000000,17403.000000,21103.000000,54987.000000
28614.000000,17380.000000,21077.000000,54979.000000
28558.000000,17333.000000,20999.000000,54918.000000
28559.000000,17366.000000,21003.000000,54917.000000
28561.000000,17314.000000,21025.000000,54889.000000
28566.000000,17355.000000,20992.000000,54930.000000
28525.000000,17306.000000,20995.000000,54881.000000
28516.000000,17314.000000,20923.000000,54873.000000
28504.000000,17309.000000,20950.000000,54925.000000
28450.000000,17278.000000,20907.000000,54827.000000
28470.000000,17297.000000,20864.000000,54873.000000
28443.000000,17267.000000,20896.000000,54857.000000
28426.000000,17272.000000,20837.000000,54830.000000
28459.000000,17259.000000,20842.000000,54850.000000
28419.000000,17236.000000,20814.000000,54839.000000
28399.000000,17261.000000,20791.000000,54795.000000
28365.000000,17229.000000,20772.000000,54787.000000
28359.000000,17179.000000,20777.000000,54790.000000
28370.000000,17189.000000,20763.000000,54790.000000
28325.000000,17191.000000,20721.000000,54802.000000
28297.000000,17159.000000,20701.000000,54774.000000
28253.000000,17135.000000,20645.000000,54730.000000
28293.000000,17128.000000,20671.000000,54726.000000
28253.000000,17130.000000,20614.000000,54763.000000
28206.000000,17115.000000,20591.000000,54705.000000
28226.000000,17126.000000,20613.000000,54675.000000
28182.000000,17112.000000,20647.000000,54700.000000
28197.000000,17130.000000,20592.000000,54685.000000
28248.000000,17149.000000,20612.000000,54697.000000
28243.000000,17125.000000,20662.000000,54686.000000
28238.000000,17121.000000,20660.000000,54743.000000
28246.000000,17119.000000,20678.000000,54707.000000
28307.000000,17170.000000,20726.000000,54754.000000
28309.000000,17179.000000,20734.000000,54784.000000
28332.000000,17183.000000,20743.000000,54795.000000
28350.000000,17191.000000,20787.000000,54821.000000
28383.000000,17192.000000,20790.000000,54805.000000
28416.000000,17208.000000,20821.000000,54826.000000
28551.000000,17329.000000,21008.000000,54928.000000
28595.000000,17420.000000,21038.000000,54974.000000
28608.000000,17391.000000,21100.000000,54998.000000
28658.000000,17429.000000,21175.000000,55010.000000
28721.000000,17500.000000,21243.000000,55035.000000
28787.000000,17499.000000,21270.000000,55081.000000
28927.000000,17594.000000,21498.000000,55144.000000
28950.000000,17700.000000,21512.000000,55229.000000
29035.000000,17777.000000,21618.000000,55228.000000
29089.000000,17746.000000,21675.000000,55234.000000
29077.000000,17784.000000,21661.000000,55288.000000
29070.000000,17752.000000,21653.000000,55225.000000
29042.000000,17744.000000,21618.000000,55257.000000
29007.000000,17732.000000,21567.000000,55232.000000
28968.000000,17696.000000,21570.000000,55228.000000
29027.000000,17686.000000,21562.000000,55203.000000
29005.000000,17697.000000,21557.000000,55231.000000
28963.000000,17655.000000,21503.000000,55168.000000
28961.000000,17625.000000,21514.000000,55177.000000
28945.000000,17638.000000,21513.000000,55179.000000
28944.000000,17661.000000,21489.000000,55149.000000
28944.000000,17647.000000,21471.000000,55158.000000
28934.000000,17644.000000,21441.000000,55167.000000
28926.000000,17633.000000,21457.000000,55161.000000
28917.000000,17593.000000,21424.000000,55126.000000
28896.000000,17594.000000,21410.000000,55064.000000
28920.000000,17617.000000,21439.000000,55107.000000
28882.000000,17597.000000,21424.000000,55116.000000
28872.000000,17612.000000,21399.000000,55090.000000
28859.000000,17590.000000,21368.000000,55095.000000
28837.000000,17573.000000,21389.000000,55070.000000
28803.000000,17554.000000,21334.000000,55080.000000
28787.000000,17568.000000,21327.000000,55070.000000
28797.000000,17529.000000,21284.000000,55042.000000
28812.000000,17533.000000,21295.000000,55080.000000
28765.000000,17509.000000,21266.000000,55041.000000
28760.000000,17505.000000,21235.000000,54995.000000
28726.000000,17528.000000,21228.000000,55033.000000
28753.000000,17499.000000,21212.000000,55030.000000
28729.000000,17457.000000,21188.000000,55027.000000
28702.000000,17496.000000,21164.000000,55032.000000
28659.000000,17447.000000,21154.000000,54959.000000
28674.000000,17433.000000,21170.000000,54962.000000
28603.000000,17356.000000,21053.000000,54907.000000
28609.000000,17381.000000,21071.000000,54932.000000
28612.000000,17361.000000,21051.000000,54956.000000
28594.000000,17373.000000,21046.000000,54902.000000
28571.000000,17394.000000,21018.000000,54914.000000
28529.000000,17354.000000,20979.000000,54857.000000
28528.000000,17310.000000,20949.000000,54860.000000
28523.000000,17350.000000,20925.000000,54893.000000
28528.000000,17317.000000,20952.000000,54852.000000
28519.000000,17320.000000,20914.000000,54861.000000
28488.000000,17287.000000,20881.000000,54853.000000
28493.000000,17277.000000,20865.000000,54815.000000
28464.000000,17260.000000,20845.000000,54777.000000
28451.000000,17258.000000,20834.000000,54822.000000
28383.000000,17217.000000,20777.000000,54776.000000
28357.000000,17235.000000,20777.000000,54766.000000
28336.000000,17181.000000,20701.000000,54753.000000
28344.000000,17174.000000,20706.000000,54741.000000
28283.000000,17156.000000,20683.000000,54715.000000
28286.000000,17183.000000,20691.000000,54716.000000
28297.000000,17140.000000,20703.000000,54747.000000
28294.000000,17160.000000,20697.000000,54713.000000
28347.000000,17222.000000,20756.000000,54744.000000
28333.000000,17223.000000,20730.000000,54761.000000
28334.000000,17204.000000,20719.000000,54758.000000
28368.000000,17201.000000,20732.000000,54778.000000
28401.000000,17241.000000,20797.000000,54797.000000
28390.000000,17232.000000,20812.000000,54823.000000
28457.000000,17243.000000,20823.000000,54848.000000
28450.000000,17291.000000,20839.000000,54825.000000
28621.000000,17361.000000,21035.000000,54934.000000
28649.000000,17405.000000,21074.000000,54946.000000
28688.000000,17437.000000,21132.000000,54985.000000
28734.000000,17460.000000,21246.000000,55012.000000
28967.000000,17669.000000,21441.000000,55152.000000
29011.000000,17670.000000,21503.000000,55123.000000
29015.000000,17666.000000,21545.000000,55160.000000
29042.000000,17676.000000,21552.000000,55153.000000
29056.000000,17718.000000,21566.000000,55161.000000
29100.000000,17748.000000,21543.000000,55223.000000
29076.000000,17689.000000,21580.000000,55221.000000
29032.000000,17730.000000,21558.000000,55173.000000
