660nm,730nm,850nm,940nm
23139.000000,16249.000000,25263.000000,58755.000000
23135.000000,16209.000000,25246.000000,58672.000000
23130.000000,16282.000000,25269.000000,58702.000000
23129.000000,16218.000000,25230.000000,58635.000000
23087.000000,16250.000000,25250.000000,58700.000000
23124.000000,16208.000000,25240.000000,58653.000000
23116.000000,16202.000000,25218.000000,58664.000000
23100.000000,16222.000000,25206.000000,58620.000000
23099.000000,16205.000000,25182.000000,58660.000000
23064.000000,16226.000000,25148.000000,58689.000000
23077.000000,16165.000000,25147.000000,58643.000000
23055.000000,16153.000000,25105.000000,58656.000000
23050.000000,16160.000000,25120.000000,58623.000000
23018.000000,16138.000000,25083.000000,58647.000000
22960.000000,16110.000000,25082.000000,58598.000000
22998.000000,16102.000000,25067.000000,58555.000000
22947.000000,16116.000000,25072.000000,58579.000000
22942.000000,16085.000000,25041.000000,58566.000000
22956.000000,16108.000000,25067.000000,58542.000000
22912.000000,16085.000000,25047.000000,58605.000000
22941.000000,16066.000000,25011.000000,58551.000000
22866.000000,16035.000000,25033.000000,58574.000000
22928.000000,16031.000000,25003.000000,58523.000000
22893.000000,16017.000000,24987.000000,58553.000000
22891.000000,16081.000000,24971.000000,58541.000000
22859.000000,16035.000000,24972.000000,58542.000000
22843.000000,16027.000000,24954.000000,58530.000000
22823.000000,16028.000000,24899.000000,58502.000000
22871.000000,16009.000000,24927.000000,58507.000000
22872.000000,15990.000000,24954.000000,58505.000000
22769.000000,15946.000000,24891.000000,58512.000000
22793.000000,15971.000000,24843.000000,58530.000000
22756.000000,15963.000000,24868.000000,58505.000000
22728.000000,15922.000000,24861.000000,58490.000000
22749.000000,15949.000000,24834.000000,58493.000000
22732.000000,15912.000000,24880.000000,58455.000000
22720.000000,15903.000000,24823.000000,58471.000000
22680.000000,15897.000000,24812.000000,58421.000000
22685.000000,15911.000000,24804.000000,58470.000000
22666.000000,15915.000000,24821.000000,58447.000000
22679.000000,15929.000000,24785.000000,58452.000000
22598.000000,15882.000000,24754.000000,58467.000000
22658.000000,15855.000000,24732.000000,58414.000000
22622.000000,15868.000000,24716.000000,58377.000000
22577.000000,15866.000000,24707.000000,58399.000000
22566.000000,15807.000000,24637.000000,58397.000000
22529.000000,15805.000000,24616.000000,58371.000000
22552.000000,15781.000000,24636.000000,58328.000000
22538.000000,15767.000000,24627.000000,58363.000000
22510.000000,15780.000000,24592.000000,58345.000000
22503.000000,15764.000000,24576.000000,58313.000000
22506.000000,15733.000000,24603.000000,58365.000000
22505.000000,15726.000000,24559.000000,58310.000000
22481.000000,15739.000000,24571.000000,58337.000000
22453.000000,15777.000000,24544.000000,58323.000000
22520.000000,15750.000000,24568.000000,58324.000000
22506.000000,15776.000000,24574.000000,58313.000000
22486.000000,15751.000000,24551.000000,58334.000000
22484.000000,15749.000000,24572.000000,58282.000000
22560.000000,15781.000000,24621.000000,58366.000000
22539.000000,15748.000000,24601.000000,58305.000000
22556.000000,15815.000000,24581.000000,58383.000000
22557.000000,15774.000000,24612.000000,58349.000000
22669.000000,15886.000000,24728.000000,58417.000000
22730.000000,15879.000000,24812.000000,58441.000000
22741.000000,15904.000000,24823.000000,58495.000000
22806.000000,15944.000000,24859.000000,58507.000000
22938.000000,16044.000000,24994.000000,58553.000000
23125.000000,16219.000000,25158.000000,58632.000000
23085.000000,16161.000000,25181.000000,58639.000000
23084.000000,16206.000000,25183.000000,58619.000000
23165.000000,16192.000000,25182.000000,58650.000000
23114.000000,16216.000000,25170.000000,58642.000000
23130.000000,16184.000000,25131.000000,58639.000000
23114.000000,16204.000000,25156.000000,58646.000000
23072.000000,16221.000000,25154.000000,58625.000000
23038.000000,16166.000000,25167.000000,58605.000000
23073.000000,16152.000000,25125.000000,58631.000000
23101.000000,16147.000000,25118.000000,58623.000000
23059.000000,16147.000000,25072.000000,58606.000000
23037.000000,16158.000000,25095.000000,58584.000000
23025.000000,16147.000000,25062.000000,58618.000000
23044.000000,16125.000000,25084.000000,58586.000000
23028.000000,16136.000000,25104.000000,58618.000000
23043.000000,16088.000000,25113.000000,58546.000000
22988.000000,16103.000000,25020.000000,58607.000000
23003.000000,16095.000000,25059.000000,58550.000000
23002.000000,16093.000000,25043.000000,58565.000000
22993.000000,16139.000000,25033.000000,58602.000000
22981.000000,16078.000000,25026.000000,58548.000000
22989.000000,16059.000000,25026.000000,58536.000000
22956.000000,16083.000000,24987.000000,58606.000000
22980.000000,16064.000000,24971.000000,58562.000000
22954.000000,16015.000000,24995.000000,58516.000000
22969.000000,16021.000000,24981.000000,58495.000000
22915.000000,16060.000000,24964.000000,58544.000000
22913.000000,16027.000000,24966.000000,58544.000000
22887.000000,16001.000000,24941.000000,58486.000000
22870.000000,16039.000000,24949.000000,58537.000000
22852.000000,16001.000000,24950.000000,58541.000000
22912.000000,16054.000000,24926.000000,58524.000000
22838.000000,15984.000000,24951.000000,58489.000000
22837.000000,15971.000000,24936.000000,58471.000000
22858.000000,15986.000000,24911.000000,58485.000000
22864.000000,16006.000000,24888.000000,58493.000000
22814.000000,15987.000000,24854.000000,58461.000000
22740.000000,15959.000000,24828.000000,58470.000000
22771.000000,15891.000000,24802.000000,58452.000000
22767.000000,15900.000000,24808.000000,58449.000000
22716.000000,15912.000000,24833.000000,58441.000000
22703.000000,15871.000000,24742.000000,58432.000000
22718.000000,15884.000000,24747.000000,58384.000000
22678.000000,15865.000000,24729.000000,58408.000000
22650.000000,15870.000000,24724.000000,58436.000000
22657.000000,15850.000000,24746.000000,58403.000000
22662.000000,15783.000000,24676.000000,58407.000000
22656.000000,15807.000000,24683.000000,58355.000000
22660.000000,15845.000000,24682.000000,58357.000000
22648.000000,15822.000000,24676.000000,58360.000000
22639.000000,15798.000000,24690.000000,58354.000000
22641.000000,15822.000000,24622.000000,58365.000000
22633.000000,15834.000000,24654.000000,58389.000000
22599.000000,15827.000000,24624.000000,58367.000000
22584.000000,15768.000000,24604.000000,58313.000000
22566.000000,15766.000000,24584.000000,58313.000000
22576.000000,15777.000000,24539.000000,58361.000000
22608.000000,15759.000000,24569.000000,58289.000000
22517.000000,15748.000000,24569.000000,58342.000000
22566.000000,15752.000000,24514.000000,58291.000000
22533.000000,15784.000000,24539.000000,58297.000000
22562.000000,15787.000000,24549.000000,58295.000000
22575.000000,15721.000000,24539.000000,58283.000000
22518.000000,15754.000000,24549.000000,58272.000000
22562.000000,15726.000000,24571.000000,58291.000000
22563.000000,15730.000000,24540.000000,58294.000000
22511.000000,15733.000000,24551.000000,58263.000000
22559.000000,15771.000000,24532.000000,58296.000000
22568.000000,15788.000000,24582.000000,58336.000000
22549.000000,15766.000000,24562.000000,58350.000000
22604.000000,15764.000000,24569.000000,58267.000000
22613.000000,15800.000000,24606.000000,58326.000000
22656.000000,15805.000000,24667.000000,58336.000000
22657.000000,15794.000000,24696.000000,58364.000000
22815.000000,15928.000000,24843.000000,58438.000000
22879.000000,15985.000000,24906.000000,58475.000000
22930.000000,16009.000000,24975.000000,58509.000000
23049.000000,16122.000000,25060.000000,58620.000000
23173.000000,16216.000000,25197.000000,58623.000000
23161.000000,16218.000000,25190.000000,58646.000000
23138.000000,16200.000000,25153.000000,58623.000000
23172.000000,16230.000000,25188.000000,58636.000000
23123.000000,16248.000000,25162.000000,58633.000000
23111.000000,16207.000000,25152.000000,58667.000000
23169.000000,16158.000000,25153.000000,58606.000000
23147.000000,16208.000000,25194.000000,58636.000000
23080.000000,16180.000000,25124.000000,58624.000000
23111.000000,16178.000000,25150.000000,58581.000000
23054.000000,16195.000000,25129.000000,58630.000000
23095.000000,16167.000000,25117.000000,58624.000000
23110.000000,16125.000000,25106.000000,58597.000000
23077.000000,16127.000000,25094.000000,58604.000000
23067.000000,16165.000000,25070.000000,58607.000000
23090.000000,16150.000000,25085.000000,58612.000000
23097.000000,16167.000000,25098.000000,58565.000000
23034.000000,16172.000000,25106.000000,58590.000000
23033.000000,16139.000000,25059.000000,58606.000000
23050.000000,16096.000000,25071.000000,58578.000000
23036.000000,16077.000000,25107.000000,58559.000000
23027.000000,16138.000000,25100.000000,58596.000000
23053.000000,16098.000000,25103.000000,58596.000000
23061.000000,16139.000000,25074.000000,58576.000000
23035.000000,16151.000000,25092.000000,58599.000000
23023.000000,16104.000000,25078.000000,58578.000000
22985.000000,16139.000000,25044.000000,58583.000000
22984.000000,16131.000000,25023.000000,58573.000000
23007.000000,16051.000000,25054.000000,58531.000000
22990.000000,16100.000000,25061.000000,58589.000000
22975.000000,16100.000000,25047.000000,58557.000000
22959.000000,16030.000000,25042.000000,58548.000000
23007.000000,16033.000000,25010.000000,58519.000000
22909.000000,16002.000000,24985.000000,58534.000000
22928.000000,16030.000000,24974.000000,58514.000000
22975.000000,16065.000000,24993.000000,58499.000000
22931.000000,16027.000000,24956.000000,58524.000000
22931.000000,15989.000000,24936.000000,58514.000000
22905.000000,16052.000000,24929.000000,58507.000000
22933.000000,15967.000000,24908.000000,58481.000000
22913.000000,15963.000000,24889.000000,58479.000000
22881.000000,16002.000000,24889.000000,58499.000000
22875.000000,16022.000000,24888.000000,58459.000000
22865.000000,15978.000000,24901.000000,58471.000000
22885.000000,15961.000000,24860.000000,58491.000000
22879.000000,15946.000000,24887.000000,58442.000000
22872.000000,15969.000000,24843.000000,58483.000000
22902.000000,15960.000000,24885.000000,58430.000000
22874.000000,15972.000000,24860.000000,58484.000000
22925.000000,15967.000000,24837.000000,58495.000000
22898.000000,15958.000000,24888.000000,58473.000000
22868.000000,15957.000000,24836.000000,58446.000000
22842.000000,15879.000000,24745.000000,58399.000000
22782.000000,15893.000000,24761.000000,58401.000000
22779.000000,15907.000000,24778.000000,58427.000000
22796.000000,15893.000000,24732.000000,58419.000000
22760.000000,15849.000000,24707.000000,58417.000000
22732.000000,15867.000000,24713.000000,58379.000000
22769.000000,15889.000000,24707.000000,58395.000000
22694.000000,15830.000000,24710.000000,58399.000000
22683.000000,15837.000000,24710.000000,58403.000000
22734.000000,15834.000000,24702.000000,58355.000000
22684.000000,15867.000000,24707.000000,58358.000000
22686.000000,15838.000000,24663.000000,58377.000000
22760.000000,15834.000000,24702.000000,58366.000000
22675.000000,15825.000000,24716.000000,58378.000000
22718.000000,15854.000000,24697.000000,58327.000000
22740.000000,15882.000000,24766.000000,58424.000000
22728.000000,15837.000000,24734.000000,58391.000000
22773.000000,15910.000000,24761.000000,58419.000000
22995.000000,15993.000000,24945.000000,58521.000000
22974.000000,16076.000000,25006.000000,58554.000000
23074.000000,16050.000000,25062.000000,58566.000000
23087.000000,16144.000000,25078.000000,58553.000000
23258.000000,16231.000000,25251.000000,58669.000000
23280.000000,16270.000000,25254.000000,58648.000000
23320.000000,16260.000000,25291.000000,58662.000000
23328.000000,16269.000000,25264.000000,58668.000000
23321.000000,16300.000000,25290.000000,58672.000000
23289.000000,16293.000000,25274.000000,58657.000000
23341.000000,16306.000000,25333.000000,58714.000000
23327.000000,16334.000000,25267.000000,58710.000000
23302.000000,16265.000000,25250.000000,58649.000000
23268.000000,16274.000000,25258.000000,58663.000000
23297.000000,16260.000000,25238.000000,58656.000000
23268.000000,16236.000000,25264.000000,58671.000000
23277.000000,16255.000000,25245.000000,58644.000000
23257.000000,16236.000000,25216.000000,58653.000000
23297.000000,16231.000000,25211.000000,58654.000000
23271.000000,16222.000000,25220.000000,58611.000000
23230.000000,16236.000000,25195.000000,58622.000000
23245.000000,16223.000000,25188.000000,58648.000000
23202.000000,16207.000000,25179.000000,58643.000000
23250.000000,16183.000000,25189.000000,58606.000000
23223.000000,16209.000000,25127.000000,58647.000000
23210.000000,16198.000000,25184.000000,58617.000000
23191.000000,16198.000000,25171.000000,58654.000000
23211.000000,16198.000000,25148.000000,58605.000000
23216.000000,16205.000000,25178.000000,58611.000000
23178.000000,16189.000000,25154.000000,58627.000000
23201.000000,16204.000000,25112.000000,58603.000000
23192.000000,16239.000000,25148.000000,58595.000000
23164.000000,16203.000000,25136.000000,58613.000000
23192.000000,16181.000000,25131.000000,58615.000000
23196.000000,16166.000000,25062.000000,58565.000000
23225.000000,16194.000000,25166.000000,58588.000000
23161.000000,16143.000000,25103.000000,58581.000000
23177.000000,16167.000000,25081.000000,58579.000000
23141.000000,16165.000000,25108.000000,58585.000000
23140.000000,16137.000000,25099.000000,58614.000000
23147.000000,16150.000000,25054.000000,58559.000000
23153.000000,16100.000000,25095.000000,58561.000000
23084.000000,16106.000000,25042.000000,58543.000000
23057.000000,16081.000000,25059.000000,58554.000000
23077.000000,16140.000000,25039.000000,58540.000000
23042.000000,16066.000000,25008.000000,58534.000000
22990.000000,16101.000000,24989.000000,58515.000000
22972.000000,16047.000000,25029.000000,58543.000000
22980.000000,16061.000000,24989.000000,58552.000000
22977.000000,16039.000000,24980.000000,58485.000000
22948.000000,16056.000000,24956.000000,58518.000000
22936.000000,16066.000000,24953.000000,58487.000000
22893.000000,16008.000000,24958.000000,58476.000000
22936.000000,16025.000000,24949.000000,58510.000000
22897.000000,16017.000000,24946.000000,58467.000000
22903.000000,16005.000000,24916.000000,58501.000000
22902.000000,16022.000000,24924.000000,58496.000000
22900.000000,16008.000000,24929.000000,58468.000000
22886.000000,15988.000000,24950.000000,58463.000000
22820.000000,15982.000000,24884.000000,58442.000000
22805.000000,15933.000000,24905.000000,58445.000000
22797.000000,15943.000000,24820.000000,58431.000000
22788.000000,15873.000000,24818.000000,58407.000000
22783.000000,15971.000000,24839.000000,58451.000000
22751.000000,15872.000000,24798.000000,58428.000000
22743.000000,15912.000000,24830.000000,58392.000000
22756.000000,15883.000000,24770.000000,58419.000000
22748.000000,15893.000000,24786.000000,58373.000000
22710.000000,15862.000000,24825.000000,58410.000000
22746.000000,15890.000000,24785.000000,58372.000000
22726.000000,15887.000000,24788.000000,58407.000000
22741.000000,15837.000000,24804.000000,58401.000000
22715.000000,15907.000000,24795.000000,58410.000000
22753.000000,15884.000000,24794.000000,58398.000000
22754.000000,15922.000000,24788.000000,58414.000000
22765.000000,15896.000000,24820.000000,58403.000000
22840.000000,15927.000000,24905.000000,58482.000000
22863.000000,15996.000000,24898.000000,58481.000000
22943.000000,16032.000000,24987.000000,58498.000000
22959.000000,16035.000000,24991.000000,58491.000000
23086.000000,16097.000000,25122.000000,58522.000000
23171.000000,16228.000000,25260.000000,58602.000000
23210.000000,16240.000000,25249.000000,58602.000000
23251.000000,16252.000000,25258.000000,58636.000000
23223.000000,16275.000000,25295.000000,58655.000000
23232.000000,16260.000000,25235.000000,58681.000000
23215.000000,16266.000000,25285.000000,58635.000000
23196.000000,16280.000000,25273.000000,58642.000000
23206.000000,16298.000000,25293.000000,58669.000000
23209.000000,16253.000000,25264.000000,58602.000000
23231.000000,16216.000000,25212.000000,58656.000000
23226.000000,16254.000000,25264.000000,58649.000000
23209.000000,16253.000000,25249.000000,58609.000000
23204.000000,16270.000000,25218.000000,58606.000000
23168.000000,16256.000000,25231.000000,58577.000000
23219.000000,16261.000000,25255.000000,58606.000000
23178.000000,16253.000000,25209.000000,58606.000000
23163.000000,16250.000000,25239.000000,58644.000000
23155.000000,16218.000000,25264.000000,58617.000000
23155.000000,16240.000000,25208.000000,58600.000000
23194.000000,16199.000000,25203.000000,58649.000000
23151.000000,16211.000000,25185.000000,58589.000000
23117.000000,16172.000000,25174.000000,58562.000000
23124.000000,16184.000000,25209.000000,58572.000000
23133.000000,16196.000000,25190.000000,58611.000000
23107.000000,16238.000000,25191.000000,58602.000000
23115.000000,16140.000000,25152.000000,58581.000000
23100.000000,16196.000000,25112.000000,58562.000000
23114.000000,16174.000000,25168.000000,58569.000000
23104.000000,16217.000000,25157.000000,58555.000000
23091.000000,16228.000000,25101.000000,58571.000000
23123.000000,16144.000000,25144.000000,58541.000000
23101.000000,16160.000000,25146.000000,58585.000000
23083.000000,16146.000000,25142.000000,58541.000000
23097.000000,16149.000000,25142.000000,58565.000000
23108.000000,16177.000000,25119.000000,58563.000000
23106.000000,16142.000000,25132.000000,58517.000000
23098.000000,16168.000000,25096.000000,58584.000000
23060.000000,16176.000000,25073.000000,58553.000000
23070.000000,16138.000000,25080.000000,58512.000000
23068.000000,16088.000000,25074.000000,58514.000000
23076.000000,16125.000000,25032.000000,58514.000000
23083.000000,16088.000000,25052.000000,58538.000000
23059.000000,16073.000000,25045.000000,58471.000000
23008.000000,16118.000000,25035.000000,58531.000000
22967.000000,16088.000000,24975.000000,58490.000000
23034.000000,16052.000000,25000.000000,58535.000000
23028.000000,16099.000000,25028.000000,58491.000000
22999.000000,16089.000000,24966.000000,58501.000000
23004.000000,16063.000000,24941.000000,58505.000000
23008.000000,16060.000000,24923.000000,58498.000000
22928.000000,16050.000000,24917.000000,58454.000000
22982.000000,15995.000000,24905.000000,58461.000000
22943.000000,15985.000000,24863.000000,58487.000000
22956.000000,16012.000000,24894.000000,58481.000000
22910.000000,16018.000000,24903.000000,58461.000000
22946.000000,15960.000000,24820.000000,58429.000000
22971.000000,16028.000000,24872.000000,58453.000000
22961.000000,15956.000000,24862.000000,58451.000000
22988.000000,16036.000000,24845.000000,58414.000000
22944.000000,15999.000000,24813.000000,58430.000000
22954.000000,15966.000000,24814.000000,58412.000000
22873.000000,15946.000000,24775.000000,58453.000000
22927.000000,15994.000000,24800.000000,58429.000000
22880.000000,15898.000000,24755.000000,58353.000000
22856.000000,15918.000000,24730.000000,58378.000000
22858.000000,15894.000000,24747.000000,58360.000000
22842.000000,15885.000000,24704.000000,58348.000000
22769.000000,15899.000000,24677.000000,58345.000000
22790.000000,15860.000000,24678.000000,58376.000000
22793.000000,15806.000000,24668.000000,58338.000000
22837.000000,15892.000000,24695.000000,58337.000000
22786.000000,15829.000000,24654.000000,58314.000000
22767.000000,15866.000000,24676.000000,58376.000000
22790.000000,15855.000000,24648.000000,58354.000000
22792.000000,15837.000000,24652.000000,58320.000000
22788.000000,15839.000000,24691.000000,58346.000000
22790.000000,15877.000000,24681.000000,58375.000000
22793.000000,15877.000000,24681.000000,58351.000000
22947.000000,15960.000000,24829.000000,58426.000000
22982.000000,15993.000000,24838.000000,58423.000000
23030.000000,16048.000000,24882.000000,58471.000000
23067.000000,16042.000000,24954.000000,58479.000000
23218.000000,16217.000000,25146.000000,58629.000000
23283.000000,16221.000000,25145.000000,58592.000000
23289.000000,16249.000000,25192.000000,58625.000000
23328.000000,16255.000000,25226.000000,58585.000000
23331.000000,16302.000000,25199.000000,58632.000000
23337.000000,16256.000000,25216.000000,58627.000000
23297.000000,16291.000000,25228.000000,58602.000000
23315.000000,16254.000000,25185.000000,58613.000000
23349.000000,16256.000000,25203.000000,58604.000000
23334.000000,16262.000000,25215.000000,58632.000000
23306.000000,16225.000000,25182.000000,58602.000000
23294.000000,16249.000000,25213.000000,58612.000000
23300.000000,16273.000000,25175.000000,58589.000000
23307.000000,16263.000000,25154.000000,58596.000000
23315.000000,16228.000000,25167.000000,58624.000000
23320.000000,16220.000000,25171.000000,58588.000000
23258.000000,16220.000000,25128.000000,58600.000000
23258.000000,16284.000000,25141.000000,58586.000000
23300.000000,16216.000000,25197.000000,58570.000000
23205.000000,16208.000000,25094.000000,58579.000000
23259.000000,16224.000000,25095.000000,58608.000000
23225.000000,16249.000000,25106.000000,58601.000000
23249.000000,16184.000000,25090.000000,58552.000000
23215.000000,16212.000000,25143.000000,58570.000000
23251.000000,16193.000000,25113.000000,58546.000000
23193.000000,16190.000000,25071.000000,58595.000000
23179.000000,16201.000000,25049.000000,58565.000000
23192.000000,16212.000000,25055.000000,58582.000000
23185.000000,16201.000000,25034.000000,58566.000000
23189.000000,16153.000000,25088.000000,58544.000000
23159.000000,16161.000000,25067.000000,58549.000000
23168.000000,16135.000000,25029.000000,58539.000000
23159.000000,16144.000000,25039.000000,58534.000000
23152.000000,16187.000000,25055.000000,58497.000000
23163.000000,16108.000000,25044.000000,58539.000000
23123.000000,16162.000000,25041.000000,58511.000000
23187.000000,16110.000000,25055.000000,58545.000000
23148.000000,16105.000000,25038.000000,58544.000000
23155.000000,16137.000000,25046.000000,58526.000000
23083.000000,16112.000000,25002.000000,58508.000000
23112.000000,16144.000000,25020.000000,58502.000000
23111.000000,16136.000000,24979.000000,58513.000000
23134.000000,16078.000000,24996.000000,58471.000000
23040.000000,16061.000000,24960.000000,58531.000000
23056.000000,16058.000000,24953.000000,58481.000000
23045.000000,16110.000000,24952.000000,58492.000000
23058.000000,16046.000000,24933.000000,58515.000000
23065.000000,16062.000000,24931.000000,58433.000000
23061.000000,16019.000000,24913.000000,58461.000000
23041.000000,16000.000000,24915.000000,58458.000000
23009.000000,16034.000000,24884.000000,58424.000000
23015.000000,16027.000000,24873.000000,58429.000000
22971.000000,16005.000000,24842.000000,58439.000000
23035.000000,16008.000000,24883.000000,58427.000000
22994.000000,15991.000000,24851.000000,58403.000000
22967.000000,16022.000000,24846.000000,58428.000000
22995.000000,15970.000000,24846.000000,58424.000000
22952.000000,16027.000000,24828.000000,58420.000000
22967.000000,15968.000000,24806.000000,58403.000000
22908.000000,16005.000000,24809.000000,58434.000000
22930.000000,15959.000000,24801.000000,58391.000000
22997.000000,15963.000000,24800.000000,58383.000000
22850.000000,15918.000000,24726.000000,58363.000000
22839.000000,15891.000000,24734.000000,58404.000000
22841.000000,15936.000000,24682.000000,58382.000000
22837.000000,15859.000000,24676.000000,58331.000000
22823.000000,15875.000000,24695.000000,58353.000000
22832.000000,15888.000000,24662.000000,58325.000000
22795.000000,15877.000000,24634.000000,58323.000000
22800.000000,15861.000000,24608.000000,58333.000000
22785.000000,15848.000000,24651.000000,58354.000000
22789.000000,15846.000000,24627.000000,58344.000000
22789.000000,15855.000000,24630.000000,58299.000000
22812.000000,15837.000000,24657.000000,58307.000000
22789.000000,15849.000000,24635.000000,58326.000000
22759.000000,15843.000000,24651.000000,58330.000000
22851.000000,15895.000000,24711.000000,58364.000000
22830.000000,15859.000000,24691.000000,58327.000000
22780.000000,15909.000000,24688.000000,58324.000000
22846.000000,15868.000000,24728.000000,58331.000000
22945.000000,16027.000000,24807.000000,58426.000000
23076.000000,16028.000000,24913.000000,58423.000000
23043.000000,16060.000000,24878.000000,58478.000000
23066.000000,16042.000000,24899.000000,58479.000000
23212.000000,16172.000000,25067.000000,58533.000000
23229.000000,16183.000000,25063.000000,58549.000000
23273.000000,16278.000000,25134.000000,58593.000000
23352.000000,16317.000000,25218.000000,58596.000000
23334.000000,16278.000000,25206.000000,58627.000000
23347.000000,16332.000000,25202.000000,58611.000000
23380.000000,16343.000000,25204.000000,58601.000000
23360.000000,16294.000000,25212.000000,58609.000000
23334.000000,16322.000000,25196.000000,58602.000000
23325.000000,16266.000000,25181.000000,58628.000000
23342.000000,16270.000000,25168.000000,58607.000000
23320.000000,16259.000000,25188.000000,58607.000000
23331.000000,16296.000000,25152.000000,58621.000000
23288.000000,16265.000000,25151.000000,58573.000000
23308.000000,16292.000000,25151.000000,58547.000000
23247.000000,16287.000000,25126.000000,58596.000000
23293.000000,16254.000000,25156.000000,58567.000000
23254.000000,16221.000000,25126.000000,58561.000000
23248.000000,16249.000000,25146.000000,58607.000000
23237.000000,16278.000000,25143.000000,58551.000000
23188.000000,16218.000000,25082.000000,58569.000000
23164.000000,16165.000000,25007.000000,58515.000000
23135.000000,16132.000000,25041.000000,58528.000000
23147.000000,16155.000000,25038.000000,58507.000000
23090.000000,16120.000000,25044.000000,58541.000000
23156.000000,16103.000000,25011.000000,58491.000000
23080.000000,16091.000000,25010.000000,58508.000000
23068.000000,16109.000000,25004.000000,58459.000000
23041.000000,16119.000000,24992.000000,58458.000000
22999.000000,16072.000000,24978.000000,58465.000000
23072.000000,16110.000000,24954.000000,58424.000000
23008.000000,16105.000000,24970.000000,58447.000000
22961.000000,16076.000000,24935.000000,58478.000000
23017.000000,16045.000000,24935.000000,58463.000000
23018.000000,16088.000000,24900.000000,58455.000000
22954.000000,16048.000000,24907.000000,58428.000000
22984.000000,15970.000000,24930.000000,58436.000000
22962.000000,16039.000000,24897.000000,58415.000000
22978.000000,16020.000000,24871.000000,58440.000000
22937.000000,15994.000000,24885.000000,58446.000000
22917.000000,15972.000000,24852.000000,58399.000000
22900.000000,15983.000000,24843.000000,58436.000000
22906.000000,15976.000000,24836.000000,58393.000000
22930.000000,15965.000000,24789.000000,58377.000000
22880.000000,15989.000000,24807.000000,58378.000000
22901.000000,15964.000000,24806.000000,58361.000000
22927.000000,15945.000000,24819.000000,58395.000000
22885.000000,15933.000000,24838.000000,58377.000000
22862.000000,15914.000000,24763.000000,58375.000000
22808.000000,15880.000000,24752.000000,58356.000000
22869.000000,15909.000000,24741.000000,58354.000000
22865.000000,15908.000000,24761.000000,58343.000000
22848.000000,15860.000000,24749.000000,58289.000000
22812.000000,15851.000000,24705.000000,58338.000000
22816.000000,15826.000000,24738.000000,58317.000000
22810.000000,15862.000000,24684.000000,58335.000000
22800.000000,15870.000000,24725.000000,58305.000000
22747.000000,15856.000000,24696.000000,58348.000000
22748.000000,15855.000000,24669.000000,58288.000000
22745.000000,15813.000000,24631.000000,58270.000000
22761.000000,15817.000000,24644.000000,58298.000000
22740.000000,15828.000000,24653.000000,58292.000000
22665.000000,15803.000000,24603.000000,58285.000000
22643.000000,15802.000000,24573.000000,58269.000000
22614.000000,15744.000000,24522.000000,58219.000000
22616.000000,15758.000000,24578.000000,58223.000000
22624.000000,15706.000000,24554.000000,58222.000000
22650.000000,15701.000000,24485.000000,58224.000000
22646.000000,15714.000000,24505.000000,58198.000000
22639.000000,15710.000000,24522.000000,58213.000000
22592.000000,15725.000000,24480.000000,58248.000000
22616.000000,15701.000000,24493.000000,58225.000000
22633.000000,15711.000000,24480.000000,58212.000000
22615.000000,15710.000000,24476.000000,58225.000000
22610.000000,15738.000000,24506.000000,58243.000000
22661.000000,15779.000000,24572.000000,58275.000000
22672.000000,15755.000000,24606.000000,58262.000000
22755.000000,15814.000000,24607.000000,58271.000000
22841.000000,15853.000000,24681.000000,58321.000000
22858.000000,15890.000000,24776.000000,58328.000000
23060.000000,15983.000000,24914.000000,58406.000000
23040.000000,16062.000000,24961.000000,58443.000000
23066.000000,16079.000000,24996.000000,58470.000000
23165.000000,16160.000000,25055.000000,58520.000000
23179.000000,16202.000000,25077.000000,58516.000000
23218.000000,16159.000000,25095.000000,58521.000000
23213.000000,16146.000000,25098.000000,58517.000000
23205.000000,16195.000000,25082.000000,58526.000000
23179.000000,16179.000000,25071.000000,58504.000000
23215.000000,16138.000000,25065.000000,58540.000000
23169.000000,16113.000000,25057.000000,58472.000000
23151.000000,16140.000000,25009.000000,58474.000000
23179.000000,16167.000000,25045.000000,58517.000000
23163.000000,16192.000000,25030.000000,58478.000000
23143.000000,16098.000000,25025.000000,58511.000000
23149.000000,16101.000000,25012.000000,58501.000000
23134.000000,16127.000000,25008.000000,58455.000000
23113.000000,16134.000000,24954.000000,58470.000000
23164.000000,16105.000000,25006.000000,58441.000000
23102.000000,16122.000000,25012.000000,58449.000000
23128.000000,16082.000000,25003.000000,58443.000000
23101.000000,16120.000000,24964.000000,58449.000000
23089.000000,16088.000000,24950.000000,58470.000000
23142.000000,16133.000000,24974.000000,58467.000000
23099.000000,16044.000000,24946.000000,58422.000000
23107.000000,16075.000000,24953.000000,58457.000000
23064.000000,16032.000000,24920.000000,58425.000000
23049.000000,16063.000000,24930.000000,58428.000000
23085.000000,16043.000000,24948.000000,58414.000000
23060.000000,16061.000000,24928.000000,58448.000000
23011.000000,16047.000000,24938.000000,58431.000000
23077.000000,16010.000000,24887.000000,58431.000000
22999.000000,16031.000000,24892.000000,58430.000000
23047.000000,16054.000000,24891.000000,58424.000000
22983.000000,16005.000000,24933.000000,58393.000000
23000.000000,15977.000000,24876.000000,58393.000000
22980.000000,16008.000000,24895.000000,58388.000000
22959.000000,15997.000000,24860.000000,58416.000000
23011.000000,16032.000000,24886.000000,58384.000000
23015.000000,15936.000000,24844.000000,58350.000000
22968.000000,15993.000000,24811.000000,58380.000000
22967.000000,15962.000000,24817.000000,58400.000000
22936.000000,15974.000000,24847.000000,58369.000000
22931.000000,15991.000000,24850.000000,58356.000000
22934.000000,15919.000000,24771.000000,58314.000000
22919.000000,15930.000000,24774.000000,58345.000000
22889.000000,15911.000000,24756.000000,58366.000000
22916.000000,15945.000000,24792.000000,58345.000000
22865.000000,15920.000000,24768.000000,58345.000000
22891.000000,15876.000000,24731.000000,58346.000000
22872.000000,15926.000000,24711.000000,58319.000000
22836.000000,15916.000000,24686.000000,58322.000000
22823.000000,15900.000000,24662.000000,58307.000000
22807.000000,15841.000000,24685.000000,58276.000000
22798.000000,15854.000000,24681.000000,58313.000000
22795.000000,15862.000000,24641.000000,58306.000000
22827.000000,15847.000000,24711.000000,58257.000000
22797.000000,15861.000000,24682.000000,58306.000000
22764.000000,15830.000000,24653.000000,58303.000000
22728.000000,15842.000000,24645.000000,58268.000000
22722.000000,15795.000000,24643.000000,58271.000000
22761.000000,15779.000000,24576.000000,58241.000000
22693.000000,15779.000000,24585.000000,58249.000000
22701.000000,15779.000000,24577.000000,58220.000000
22717.000000,15725.000000,24576.000000,58199.000000
22649.000000,15730.000000,24485.000000,58201.000000
22664.000000,15715.000000,24495.000000,58179.000000
22612.000000,15713.000000,24457.000000,58184.000000
22634.000000,15707.000000,24518.000000,58219.000000
22603.000000,15717.000000,24446.000000,58184.000000
22625.000000,15674.000000,24442.000000,58153.000000
22611.000000,15741.000000,24458.000000,58168.000000
22597.000000,15705.000000,24521.000000,58185.000000
22596.000000,15703.000000,24469.000000,58174.000000
22633.000000,15721.000000,24448.000000,58182.000000
22595.000000,15715.000000,24443.000000,58172.000000
22663.000000,15700.000000,24522.000000,58192.000000
22694.000000,15758.000000,24517.000000,58200.000000
22680.000000,15771.000000,24536.000000,58207.000000
22681.000000,15760.000000,24523.000000,58251.000000
22939.000000,15881.000000,24737.000000,58312.000000
22933.000000,15916.000000,24773.000000,58331.000000
22960.000000,16024.000000,24816.000000,58376.000000
23022.000000,16014.000000,24858.000000,58408.000000
23142.000000,16090.000000,24957.000000,58449.000000
23157.000000,16092.000000,24954.000000,58429.000000
23171.000000,16102.000000,25001.000000,58432.000000
23149.000000,16139.000000,25000.000000,58448.000000
23186.000000,16146.000000,25019.000000,58490.000000
23145.000000,16078.000000,24998.000000,58436.000000
23183.000000,16136.000000,25000.000000,58463.000000
23171.000000,16147.000000,25022.000000,58485.000000
23101.000000,16114.000000,24960.000000,58431.000000
23164.000000,16059.000000,25002.000000,58448.000000
23138.000000,16114.000000,24999.000000,58428.000000
23099.000000,16076.000000,24956.000000,58443.000000
23155.000000,16099.000000,24965.000000,58488.000000
23109.000000,16089.000000,24954.000000,58434.000000
23065.000000,16084.000000,24979.000000,58439.000000
23058.000000,16083.000000,24934.000000,58401.000000
23058.000000,16096.000000,24933.000000,58423.000000
23070.000000,16067.000000,24920.000000,58452.000000
23086.000000,16108.000000,24951.000000,58412.000000
23057.000000,16037.000000,24860.000000,58406.000000
23044.000000,16034.000000,24900.000000,58402.000000
23045.000000,16037.000000,24902.000000,58365.000000
23008.000000,16044.000000,24884.000000,58434.000000
23041.000000,16020.000000,24869.000000,58391.000000
23026.000000,16074.000000,24861.000000,58423.000000
23015.000000,16021.000000,24891.000000,58389.000000
23001.000000,16021.000000,24861.000000,58356.000000
22986.000000,16038.000000,24852.000000,58382.000000
23002.000000,16011.000000,24866.000000,58358.000000
22936.000000,16003.000000,24830.000000,58360.000000
22982.000000,15984.000000,24833.000000,58371.000000
22959.000000,15985.000000,24873.000000,58334.000000
22944.000000,15947.000000,24822.000000,58345.000000
22966.000000,15960.000000,24803.000000,58334.000000
22958.000000,15964.000000,24776.000000,58363.000000
22953.000000,15983.000000,24798.000000,58340.000000
22947.000000,15902.000000,24751.000000,58358.000000
22909.000000,15991.000000,24799.000000,58319.000000
22900.000000,15964.000000,24762.000000,58363.000000
22928.000000,15940.000000,24782.000000,58333.000000
22887.000000,15884.000000,24749.000000,58322.000000
22917.000000,15907.000000,24717.000000,58299.000000
22905.000000,15901.000000,24726.000000,58291.000000
22860.000000,15911.000000,24720.000000,58297.000000
22852.000000,15824.000000,24694.000000,58318.000000
22866.000000,15899.000000,24710.000000,58269.000000
22873.000000,15887.000000,24692.000000,58315.000000
22816.000000,15873.000000,24657.000000,58271.000000
22843.000000,15832.000000,24608.000000,58277.000000
22841.000000,15845.000000,24623.000000,58259.000000
22823.000000,15867.000000,24638.000000,58272.000000
22767.000000,15835.000000,24609.000000,58256.000000
22762.000000,15848.000000,24572.000000,58240.000000
22768.000000,15826.000000,24602.000000,58275.000000
22769.000000,15836.000000,24563.000000,58260.000000
22770.000000,15827.000000,24554.000000,58233.000000
22763.000000,15810.000000,24526.000000,58249.000000
22699.000000,15778.000000,24501.000000,58220.000000
22702.000000,15719.000000,24512.000000,58191.000000
22666.000000,15728.000000,24484.000000,58197.000000
22619.000000,15678.000000,24424.000000,58132.000000
22596.000000,15650.000000,24390.000000,58104.000000
22632.000000,15699.000000,24386.000000,58132.000000
22574.000000,15678.000000,24358.000000,58127.000000
22580.000000,15698.000000,24322.000000,58118.000000
22582.000000,15645.000000,24344.000000,58108.000000
22592.000000,15643.000000,24361.000000,58098.000000
22571.000000,15655.000000,24343.000000,58076.000000
22586.000000,15649.000000,24281.000000,58117.000000
22554.000000,15634.000000,24297.000000,58104.000000
22570.000000,15649.000000,24320.000000,58134.000000
22563.000000,15661.000000,24359.000000,58087.000000
22608.000000,15672.000000,24362.000000,58106.000000
22590.000000,15677.000000,24288.000000,58117.000000
22594.000000,15648.000000,24355.000000,58144.000000
22663.000000,15687.000000,24381.000000,58157.000000
22707.000000,15729.000000,24494.000000,58160.000000
22714.000000,15731.000000,24464.000000,58189.000000
22915.000000,15857.000000,24653.000000,58307.000000
22949.000000,15904.000000,24727.000000,58309.000000
23023.000000,15939.000000,24796.000000,58349.000000
23040.000000,15963.000000,24776.000000,58389.000000
23130.000000,16131.000000,24904.000000,58387.000000
23186.000000,16100.000000,24928.000000,58423.000000
23208.000000,16109.000000,24973.000000,58380.000000
23203.000000,16139.000000,24960.000000,58434.000000
23236.000000,16145.000000,24981.000000,58409.000000
23211.000000,16113.000000,24926.000000,58405.000000
23246.000000,16161.000000,24974.000000,58442.000000
23181.000000,16105.000000,24925.000000,58439.000000
23157.000000,16138.000000,24956.000000,58429.000000
23167.000000,16083.000000,24929.000000,58417.000000
23159.000000,16075.000000,24888.000000,58452.000000
23184.000000,16059.000000,24886.000000,58419.000000
23145.000000,16098.000000,24913.000000,58391.000000
23175.000000,16084.000000,24861.000000,58416.000000
23147.000000,16045.000000,24899.000000,58384.000000
23139.000000,16089.000000,24884.000000,58413.000000
23108.000000,16093.000000,24849.000000,58411.000000
23144.000000,16059.000000,24821.000000,58397.000000
23099.000000,16083.000000,24866.000000,58421.000000
23081.000000,16053.000000,24824.000000,58359.000000
23081.000000,16093.000000,24827.000000,58351.000000
23060.000000,16026.000000,24804.000000,58398.000000
23096.000000,16022.000000,24829.000000,58340.000000
23045.000000,16085.000000,24827.000000,58381.000000
23064.000000,15990.000000,24816.000000,58339.000000
23036.000000,15996.000000,24775.000000,58364.000000
23023.000000,16012.000000,24775.000000,58387.000000
23080.000000,16011.000000,24805.000000,58354.000000
23015.000000,15991.000000,24727.000000,58313.000000
23034.000000,15960.000000,24794.000000,58324.000000
22966.000000,15948.000000,24748.000000,58370.000000
23020.000000,15929.000000,24773.000000,58313.000000
22994.000000,15969.000000,24773.000000,58327.000000
22933.000000,15978.000000,24724.000000,58351.000000
22960.000000,15970.000000,24697.000000,58310.000000
22981.000000,15970.000000,24715.000000,58300.000000
22966.000000,15943.000000,24704.000000,58295.000000
22945.000000,15909.000000,24693.000000,58328.000000
22868.000000,15941.000000,24686.000000,58304.000000
22927.000000,15912.000000,24679.000000,58298.000000
22954.000000,15938.000000,24647.000000,58323.000000
22913.000000,15869.000000,24667.000000,58243.000000
22923.000000,15872.000000,24647.000000,58271.000000
22932.000000,15916.000000,24645.000000,58255.000000
22908.000000,15865.000000,24629.000000,58303.000000
22845.000000,15848.000000,24621.000000,58240.000000
22834.000000,15833.000000,24616.000000,58246.000000
22832.000000,15876.000000,24600.000000,58248.000000
22858.000000,15830.000000,24595.000000,58269.000000
22854.000000,15858.000000,24618.000000,58234.000000
22822.000000,15857.000000,24573.000000,58225.000000
22794.000000,15807.000000,24532.000000,58194.000000
22779.000000,15794.000000,24546.000000,58193.000000
22760.000000,15802.000000,24568.000000,58187.000000
22758.000000,15808.000000,24520.000000,58226.000000
22717.000000,15768.000000,24482.000000,58199.000000
22766.000000,15760.000000,24485.000000,58191.000000
22752.000000,15788.000000,24528.000000,58177.000000
22737.000000,15746.000000,24523.000000,58170.000000
22742.000000,15766.000000,24477.000000,58172.000000
22675.000000,15778.000000,24454.000000,58175.000000
22679.000000,15710.000000,24436.000000,58144.000000
22606.000000,15681.000000,24331.000000,58126.000000
22593.000000,15681.000000,24401.000000,58111.000000
22623.000000,15640.000000,24349.000000,58068.000000
22615.000000,15619.000000,24353.000000,58092.000000
22534.000000,15630.000000,24255.000000,58052.000000
22536.000000,15617.000000,24247.000000,58074.000000
22557.000000,15605.000000,24246.000000,58052.000000
22520.000000,15603.000000,24265.000000,58054.000000
22502.000000,15590.000000,24207.000000,58046.000000
22516.000000,15640.000000,24207.000000,58041.000000
22572.000000,15605.000000,24221.000000,58056.000000
22547.000000,15597.000000,24256.000000,58009.000000
22543.000000,15590.000000,24210.000000,58058.000000
22520.000000,15639.000000,24223.000000,58090.000000
22556.000000,15637.000000,24286.000000,58071.000000
22565.000000,15623.000000,24298.000000,58035.000000
22602.000000,15666.000000,24312.000000,58062.000000
22646.000000,15700.000000,24343.000000,58091.000000
22781.000000,15787.000000,24507.000000,58209.000000
22819.000000,15816.000000,24546.000000,58221.000000
22857.000000,15805.000000,24618.000000,58217.000000
22912.000000,15866.000000,24613.000000,58298.000000
23121.000000,16040.000000,24838.000000,58358.000000
23139.000000,16038.000000,24791.000000,58346.000000
23125.000000,16082.000000,24824.000000,58383.000000
23162.000000,16128.000000,24852.000000,58420.000000
23164.000000,16138.000000,24880.000000,58426.000000
23174.000000,16086.000000,24927.000000,58377.000000
23216.000000,16114.000000,24891.000000,58417.000000
23170.000000,16107.000000,24879.000000,58399.000000
23149.000000,16112.000000,24918.000000,58391.000000
23144.000000,16110.000000,24865.000000,58433.000000
23141.000000,16091.000000,24858.000000,58389.000000
23159.000000,16076.000000,24861.000000,58395.000000
23165.000000,16066.000000,24862.000000,58355.000000
23157.000000,16048.000000,24882.000000,58380.000000
23134.000000,16046.000000,24825.000000,58344.000000
23132.000000,16038.000000,24832.000000,58397.000000
23107.000000,16047.000000,24845.000000,58349.000000
23135.000000,16085.000000,24808.000000,58376.000000
23072.000000,15991.000000,24779.000000,58391.000000
23078.000000,16023.000000,24769.000000,58340.000000
23079.000000,16020.000000,24836.000000,58329.000000
23080.000000,16034.000000,24760.000000,58345.000000
23078.000000,16028.000000,24794.000000,58325.000000
23040.000000,16033.000000,24770.000000,58321.000000
23052.000000,16008.000000,24754.000000,58357.000000
23061.000000,16001.000000,24775.000000,58316.000000
23033.000000,15987.000000,24755.000000,58331.000000
23045.000000,15984.000000,24734.000000,58298.000000
22993.000000,15973.000000,24721.000000,58299.000000
23010.000000,15965.000000,24694.000000,58271.000000
23042.000000,15964.000000,24685.000000,58295.000000
23017.000000,15974.000000,24689.000000,58292.000000
23028.000000,15940.000000,24727.000000,58312.000000
23040.000000,15940.000000,24689.000000,58287.000000
22935.000000,15934.000000,24641.000000,58284.000000
23000.000000,15951.000000,24665.000000,58261.000000
22960.000000,15922.000000,24665.000000,58247.000000
22941.000000,15909.000000,24645.000000,58268.000000
22906.000000,15940.000000,24665.000000,58259.000000
22906.000000,15845.000000,24613.000000,58225.000000
22911.000000,15873.000000,24595.000000,58259.000000
22891.000000,15911.000000,24606.000000,58269.000000
22863.000000,15891.000000,24567.000000,58224.000000
22881.000000,15812.000000,24570.000000,58225.000000
22840.000000,15868.000000,24601.000000,58210.000000
22852.000000,15848.000000,24577.000000,58254.000000
22842.000000,15840.000000,24528.000000,58162.000000
22799.000000,15818.000000,24515.000000,58176.000000
22790.000000,15821.000000,24500.000000,58224.000000
22791.000000,15753.000000,24498.000000,58172.000000
22760.000000,15805.000000,24473.000000,58165.000000
22779.000000,15776.000000,24447.000000,58166.000000
22832.000000,15783.000000,24466.000000,58161.000000
22748.000000,15770.000000,24394.000000,58178.000000
22765.000000,15767.000000,24417.000000,58125.000000
22758.000000,15786.000000,24452.000000,58144.000000
22778.000000,15737.000000,24409.000000,58157.000000
22729.000000,15696.000000,24370.000000,58100.000000
22722.000000,15708.000000,24367.000000,58101.000000
22687.000000,15719.000000,24344.000000,58117.000000
22649.000000,15701.000000,24300.000000,58091.000000
22645.000000,15662.000000,24266.000000,58070.000000
22644.000000,15581.000000,24214.000000,58044.000000
22578.000000,15640.000000,24223.000000,58032.000000
22576.000000,15632.000000,24190.000000,58010.000000
22615.000000,15626.000000,24163.000000,58043.000000
22589.000000,15575.000000,24162.000000,58016.000000
22544.000000,15554.000000,24156.000000,58009.000000
22537.000000,15592.000000,24129.000000,58018.000000
22573.000000,15573.000000,24134.000000,57994.000000
22518.000000,15615.000000,24139.000000,58027.000000
22549.000000,15586.000000,24128.000000,58007.000000
22538.000000,15611.000000,24153.000000,58036.000000
22581.000000,15574.000000,24141.000000,58050.000000
22590.000000,15580.000000,24111.000000,58017.000000
22555.000000,15634.000000,24197.000000,58022.000000
22660.000000,15637.000000,24234.000000,58062.000000
22794.000000,15733.000000,24363.000000,58137.000000
22808.000000,15735.000000,24429.000000,58165.000000
22820.000000,15751.000000,24499.000000,58172.000000
22890.000000,15822.000000,24521.000000,58210.000000
23077.000000,15993.000000,24691.000000,58332.000000
23115.000000,15997.000000,24747.000000,58309.000000
23155.000000,16000.000000,24747.000000,58335.000000
23197.000000,16014.000000,24777.000000,58332.000000
23241.000000,16089.000000,24834.000000,58371.000000
23230.000000,16115.000000,24845.000000,58354.000000
23226.000000,16111.000000,24837.000000,58404.000000
23199.000000,16073.000000,24807.000000,58362.000000
23202.000000,16109.000000,24832.000000,58356.000000
23156.000000,16081.000000,24824.000000,58361.000000
23216.000000,16050.000000,24846.000000,58340.000000
23207.000000,16067.000000,24776.000000,58357.000000
23197.000000,16042.000000,24763.000000,58319.000000
23189.000000,16058.000000,24804.000000,58336.000000
23190.000000,16043.000000,24782.000000,58349.000000
23171.000000,16074.000000,24770.000000,58303.000000
23168.000000,16100.000000,24760.000000,58375.000000
23187.000000,16052.000000,24806.000000,58355.000000
23150.000000,16067.000000,24705.000000,58313.000000
23111.000000,16041.000000,24752.000000,58296.000000
23122.000000,16025.000000,24751.000000,58314.000000
23090.000000,16016.000000,24697.000000,58291.000000
23112.000000,16014.000000,24727.000000,58317.000000
23121.000000,15988.000000,24711.000000,58299.000000
23095.000000,15975.000000,24685.000000,58260.000000
23075.000000,15997.000000,24698.000000,58282.000000
23083.000000,15978.000000,24680.000000,58260.000000
23062.000000,15971.000000,24663.000000,58293.000000
23003.000000,15969.000000,24662.000000,58280.000000
23033.000000,15994.000000,24644.000000,58265.000000
23027.000000,15957.000000,24645.000000,58255.000000
22999.000000,15949.000000,24611.000000,58279.000000
23015.000000,15932.000000,24642.000000,58243.000000
23031.000000,15915.000000,24629.000000,58254.000000
23057.000000,15941.000000,24615.000000,58225.000000
23012.000000,15961.000000,24600.000000,58248.000000
23003.000000,15928.000000,24620.000000,58235.000000
23022.000000,15932.000000,24587.000000,58243.000000
22973.000000,15891.000000,24563.000000,58274.000000
22987.000000,15912.000000,24581.000000,58240.000000
22947.000000,15912.000000,24542.000000,58219.000000
22968.000000,15869.000000,24543.000000,58228.000000
22939.000000,15927.000000,24531.000000,58203.000000
22939.000000,15869.000000,24491.000000,58209.000000
22961.000000,15839.000000,24510.000000,58206.000000
22933.000000,15795.000000,24525.000000,58213.000000
22894.000000,15834.000000,24478.000000,58191.000000
22923.000000,15800.000000,24453.000000,58153.000000
22901.000000,15789.000000,24466.000000,58146.000000
22911.000000,15783.000000,24454.000000,58175.000000
22875.000000,15808.000000,24431.000000,58148.000000
22894.000000,15810.000000,24413.000000,58151.000000
22873.000000,15801.000000,24393.000000,58123.000000
22859.000000,15783.000000,24395.000000,58106.000000
22843.000000,15753.000000,24404.000000,58117.000000
22816.000000,15731.000000,24347.000000,58101.000000
22828.000000,15747.000000,24337.000000,58136.000000
22794.000000,15769.000000,24312.000000,58120.000000
22823.000000,15745.000000,24325.000000,58076.000000
22744.000000,15706.000000,24211.000000,58059.000000
22754.000000,15650.000000,24222.000000,58033.000000
22708.000000,15616.000000,24207.000000,58030.000000
22722.000000,15659.000000,24195.000000,58041.000000
22706.000000,15635.000000,24165.000000,58009.000000
22678.000000,15629.000000,24109.000000,58025.000000
22661.000000,15652.000000,24157.000000,58019.000000
22672.000000,15630.000000,24117.000000,58009.000000
22707.000000,15625.000000,24120.000000,57992.000000
22667.000000,15624.000000,24115.000000,57985.000000
22696.000000,15610.000000,24121.000000,58007.000000
22740.000000,15690.000000,24132.000000,58030.000000
22737.000000,15662.000000,24157.000000,58056.000000
22779.000000,15673.000000,24190.000000,58045.000000
22770.000000,15667.000000,24223.000000,58060.000000
22780.000000,15659.000000,24226.000000,58053.000000
22908.000000,15746.000000,24323.000000,58110.000000
23195.000000,15930.000000,24633.000000,58237.000000
23180.000000,16009.000000,24620.000000,58290.000000
23263.000000,16022.000000,24670.000000,58288.000000
23311.000000,16029.000000,24662.000000,58274.000000
23336.000000,16145.000000,24735.000000,58330.000000
23381.000000,16093.000000,24763.000000,58327.000000
23373.000000,16123.000000,24754.000000,58369.000000
23333.000000,16154.000000,24736.000000,58368.000000
23341.000000,16089.000000,24739.000000,58359.000000
23355.000000,16121.000000,24711.000000,58352.000000
23342.000000,16141.000000,24703.000000,58324.000000
23301.000000,16100.000000,24675.000000,58313.000000
23352.000000,16064.000000,24678.000000,58337.000000
23342.000000,16113.000000,24706.000000,58304.000000
23340.000000,16078.000000,24730.000000,58322.000000
23294.000000,16079.000000,24676.000000,58322.000000
23286.000000,16057.000000,24665.000000,58302.000000
23303.000000,16090.000000,24652.000000,58334.000000
23278.000000,16028.000000,24682.000000,58267.000000
23271.000000,16042.000000,24677.000000,58291.000000
23262.000000,16057.000000,24647.000000,58269.000000
23238.000000,16027.000000,24627.000000,58311.000000
23239.000000,16025.000000,24599.000000,58282.000000
23216.000000,16021.000000,24579.000000,58242.000000
23251.000000,16034.000000,24605.000000,58268.000000
23251.000000,15976.000000,24612.000000,58233.000000
23246.000000,15948.000000,24626.000000,58240.000000
23229.000000,15998.000000,24613.000000,58258.000000
23210.000000,15945.000000,24588.000000,58242.000000
23203.000000,15941.000000,24558.000000,58214.000000
23189.000000,15965.000000,24567.000000,58220.000000
23198.000000,15962.000000,24603.000000,58238.000000
23172.000000,15947.000000,24543.000000,58216.000000
23098.000000,15959.000000,24541.000000,58217.000000
23111.000000,15908.000000,24493.000000,58224.000000
23141.000000,15900.000000,24488.000000,58202.000000
23109.000000,15923.000000,24537.000000,58212.000000
23138.000000,15859.000000,24460.000000,58180.000000
23031.000000,15904.000000,24472.000000,58198.000000
23040.000000,15892.000000,24440.000000,58218.000000
23089.000000,15878.000000,24426.000000,58189.000000
23024.000000,15852.000000,24397.000000,58183.000000
23019.000000,15846.000000,24383.000000,58152.000000
23001.000000,15830.000000,24373.000000,58189.000000
23045.000000,15867.000000,24385.000000,58126.000000
22998.000000,15764.000000,24359.000000,58147.000000
22994.000000,15812.000000,24396.000000,58137.000000
22998.000000,15811.000000,24326.000000,58132.000000
22976.000000,15873.000000,24355.000000,58153.000000
22972.000000,15796.000000,24317.000000,58138.000000
22997.000000,15751.000000,24327.000000,58108.000000
23014.000000,15803.000000,24309.000000,58151.000000
22947.000000,15760.000000,24299.000000,58103.000000
22946.000000,15745.000000,24275.000000,58079.000000
22930.000000,15754.000000,24275.000000,58088.000000
22981.000000,15760.000000,24274.000000,58095.000000
22902.000000,15733.000000,24227.000000,58099.000000
22897.000000,15723.000000,24232.000000,58093.000000
22903.000000,15692.000000,24222.000000,58070.000000
22799.000000,15647.000000,24122.000000,58003.000000
22770.000000,15660.000000,24133.000000,57996.000000
22796.000000,15611.000000,24083.000000,58011.000000
22808.000000,15639.000000,24109.000000,57967.000000
22734.000000,15636.000000,24118.000000,57969.000000
22768.000000,15636.000000,24026.000000,57977.000000
22739.000000,15644.000000,24037.000000,58004.000000
22761.000000,15627.000000,24015.000000,57946.000000
22736.000000,15629.000000,24008.000000,57961.000000
22763.000000,15617.000000,24019.000000,57927.000000
22784.000000,15609.000000,24031.000000,57994.000000
22809.000000,15625.000000,24052.000000,57962.000000
22812.000000,15607.000000,24066.000000,57988.000000
22932.000000,15700.000000,24195.000000,58039.000000
22953.000000,15761.000000,24204.000000,58075.000000
22972.000000,15793.000000,24229.000000,58073.000000
23245.000000,15946.000000,24526.000000,58192.000000
23279.000000,15988.000000,24510.000000,58173.000000
23380.000000,16029.000000,24553.000000,58248.000000
23404.000000,16065.000000,24608.000000,58283.000000
23463.000000,16084.000000,24675.000000,58304.000000
23479.000000,16118.000000,24691.000000,58362.000000
23514.000000,16135.000000,24676.000000,58331.000000
23464.000000,16142.000000,24659.000000,58309.000000
23507.000000,16152.000000,24659.000000,58331.000000
23492.000000,16170.000000,24652.000000,58310.000000
23497.000000,16105.000000,24661.000000,58341.000000
23504.000000,16172.000000,24644.000000,58304.000000
23468.000000,16092.000000,24657.000000,58297.000000
23423.000000,16095.000000,24613.000000,58322.000000
23467.000000,16095.000000,24614.000000,58285.000000
23459.000000,16113.000000,24669.000000,58300.000000
23442.000000,16107.000000,24592.000000,58338.000000
23440.000000,16098.000000,24628.000000,58327.000000
23423.000000,16082.000000,24576.000000,58307.000000
23389.000000,16042.000000,24565.000000,58253.000000
23406.000000,16072.000000,24576.000000,58251.000000
23392.000000,16081.000000,24530.000000,58258.000000
23384.000000,16049.000000,24551.000000,58264.000000
23358.000000,16022.000000,24539.000000,58259.000000
23377.000000,16006.000000,24574.000000,58235.000000
23341.000000,16017.000000,24513.000000,58258.000000
23343.000000,16030.000000,24508.000000,58254.000000
23349.000000,15988.000000,24512.000000,58225.000000
23351.000000,16018.000000,24464.000000,58236.000000
23316.000000,16017.000000,24488.000000,58244.000000
23343.000000,16000.000000,24447.000000,58212.000000
23344.000000,15932.000000,24470.000000,58199.000000
23343.000000,15934.000000,24503.000000,58213.000000
23299.000000,15981.000000,24450.000000,58221.000000
23287.000000,15959.000000,24446.000000,58177.000000
23316.000000,15909.000000,24409.000000,58200.000000
23257.000000,15962.000000,24418.000000,58239.000000
23255.000000,15908.000000,24383.000000,58188.000000
23238.000000,15939.000000,24357.000000,58175.000000
23232.000000,15923.000000,24340.000000,58195.000000
23213.000000,15850.000000,24385.000000,58159.000000
23231.000000,15850.000000,24306.000000,58148.000000
23192.000000,15863.000000,24298.000000,58129.000000
23151.000000,15853.000000,24296.000000,58104.000000
23192.000000,15820.000000,24271.000000,58118.000000
23174.000000,15814.000000,24293.000000,58076.000000
23146.000000,15812.000000,24271.000000,58088.000000
23114.000000,15780.000000,24203.000000,58102.000000
23135.000000,15754.000000,24207.000000,58082.000000
23091.000000,15828.000000,24205.000000,58072.000000
23121.000000,15754.000000,24196.000000,58030.000000
23071.000000,15737.000000,24145.000000,58049.000000
23041.000000,15776.000000,24146.000000,58064.000000
23090.000000,15750.000000,24128.000000,58055.000000
23042.000000,15753.000000,24115.000000,58070.000000
23031.000000,15738.000000,24076.000000,58053.000000
23048.000000,15734.000000,24107.000000,58024.000000
23041.000000,15738.000000,24085.000000,58010.000000
23010.000000,15697.000000,24050.000000,57996.000000
22977.000000,15687.000000,24060.000000,57978.000000
22974.000000,15687.000000,24046.000000,57983.000000
22957.000000,15722.000000,23994.000000,57968.000000
22886.000000,15605.000000,23947.000000,57908.000000
22879.000000,15602.000000,23881.000000,57900.000000
22875.000000,15591.000000,23872.000000,57878.000000
22883.000000,15608.000000,23861.000000,57884.000000
22815.000000,15612.000000,23844.000000,57882.000000
22825.000000,15572.000000,23829.000000,57884.000000
22803.000000,15592.000000,23830.000000,57880.000000
22782.000000,15580.000000,23822.000000,57869.000000
22830.000000,15550.000000,23860.000000,57876.000000
22839.000000,15591.000000,23848.000000,57876.000000
22849.000000,15559.000000,23878.000000,57901.000000
22874.000000,15596.000000,23875.000000,57903.000000
22879.000000,15625.000000,23900.000000,57893.000000
22995.000000,15655.000000,23996.000000,57988.000000
23040.000000,15673.000000,24030.000000,57973.000000
22996.000000,15702.000000,24007.000000,58014.000000
23029.000000,15695.000000,24038.000000,58025.000000
23293.000000,15851.000000,24307.000000,58130.000000
23357.000000,15919.000000,24330.000000,58164.000000
23421.000000,15953.000000,24406.000000,58173.000000
23589.000000,16105.000000,24607.000000,58314.000000
23611.000000,16148.000000,24610.000000,58294.000000
23638.000000,16176.000000,24664.000000,58349.000000
23651.000000,16173.000000,24659.000000,58366.000000
23671.000000,16230.000000,24701.000000,58328.000000
23650.000000,16172.000000,24667.000000,58348.000000
23630.000000,16169.000000,24623.000000,58298.000000
23670.000000,16172.000000,24658.000000,58357.000000
23679.000000,16209.000000,24658.000000,58351.000000
23655.000000,16153.000000,24635.000000,58338.000000
23612.000000,16192.000000,24675.000000,58320.000000
23611.000000,16140.000000,24646.000000,58349.000000
23616.000000,16132.000000,24600.000000,58336.000000
23599.000000,16117.000000,24604.000000,58294.000000
23611.000000,16126.000000,24624.000000,58296.000000
23588.000000,16098.000000,24606.000000,58267.000000
23591.000000,16115.000000,24585.000000,58336.000000
23614.000000,16105.000000,24600.000000,58305.000000
23589.000000,16078.000000,24582.000000,58274.000000
23560.000000,16098.000000,24553.000000,58276.000000
23515.000000,16103.000000,24560.000000,58259.000000
23548.000000,16076.000000,24521.000000,58256.000000
23534.000000,16097.000000,24536.000000,58274.000000
23518.000000,16138.000000,24524.000000,58264.000000
23480.000000,16040.000000,24498.000000,58235.000000
23495.000000,16034.000000,24499.000000,58217.000000
23518.000000,16064.000000,24518.000000,58230.000000
23472.000000,16004.000000,24499.000000,58181.000000
23476.000000,16010.000000,24457.000000,58265.000000
23433.000000,16042.000000,24450.000000,58227.000000
23425.000000,16037.000000,24446.000000,58220.000000
23414.000000,16007.000000,24419.000000,58214.000000
23432.000000,16004.000000,24426.000000,58210.000000
23419.000000,15972.000000,24369.000000,58200.000000
23370.000000,15936.000000,24368.000000,58172.000000
23400.000000,15947.000000,24367.000000,58151.000000
23393.000000,15925.000000,24364.000000,58151.000000
23379.000000,15908.000000,24343.000000,58149.000000
23331.000000,15907.000000,24295.000000,58149.000000
23360.000000,15903.000000,24289.000000,58129.000000
23329.000000,15877.000000,24266.000000,58089.000000
23280.000000,15896.000000,24274.000000,58170.000000
23293.000000,15880.000000,24250.000000,58108.000000
23217.000000,15838.000000,24216.000000,58095.000000
23224.000000,15842.000000,24198.000000,58089.000000
23248.000000,15849.000000,24192.000000,58090.000000
23234.000000,15838.000000,24195.000000,58083.000000
23210.000000,15814.000000,24181.000000,58081.000000
23189.000000,15798.000000,24134.000000,58015.000000
23157.000000,15776.000000,24167.000000,58022.000000
23159.000000,15788.000000,24109.000000,58056.000000
23167.000000,15774.000000,24090.000000,58042.000000
23159.000000,15730.000000,24036.000000,58003.000000
23124.000000,15746.000000,24032.000000,58000.000000
23141.000000,15737.000000,24083.000000,57997.000000
23111.000000,15702.000000,24069.000000,57977.000000
23004.000000,15669.000000,23931.000000,57971.000000
23036.000000,15705.000000,23897.000000,57916.000000
22999.000000,15649.000000,23950.000000,57940.000000
22993.000000,15624.000000,23866.000000,57906.000000
22961.000000,15580.000000,23806.000000,57852.000000
22926.000000,15591.000000,23822.000000,57839.000000
22934.000000,15556.000000,23806.000000,57847.000000
22890.000000,15568.000000,23771.000000,57847.000000
22942.000000,15586.000000,23773.000000,57849.000000
22949.000000,15610.000000,23762.000000,57848.000000
22997.000000,15641.000000,23832.000000,57880.000000
22985.000000,15583.000000,23782.000000,57860.000000
23023.000000,15636.000000,23818.000000,57871.000000
23038.000000,15646.000000,23867.000000,57870.000000
23021.000000,15653.000000,23877.000000,57914.000000
23177.000000,15718.000000,23989.000000,57962.000000
23172.000000,15774.000000,23999.000000,58014.000000
23218.000000,15754.000000,24063.000000,58013.000000
23440.000000,15906.000000,24296.000000,58167.000000
23506.000000,16022.000000,24378.000000,58187.000000
23575.000000,16007.000000,24415.000000,58208.000000
23602.000000,16059.000000,24464.000000,58230.000000
23720.000000,16176.000000,24635.000000,58312.000000
23898.000000,16266.000000,24674.000000,58376.000000
23852.000000,16287.000000,24692.000000,58393.000000
23854.000000,16268.000000,24741.000000,58368.000000
23886.000000,16267.000000,24714.000000,58362.000000
23867.000000,16230.000000,24696.000000,58366.000000
23814.000000,16262.000000,24708.000000,58358.000000
23830.000000,16237.000000,24656.000000,58358.000000
23839.000000,16237.000000,24647.000000,58337.000000
23827.000000,16231.000000,24663.000000,58354.000000
23858.000000,16197.000000,24666.000000,58361.000000
23846.000000,16240.000000,24629.000000,58321.000000
23794.000000,16185.000000,24601.000000,58326.000000
23788.000000,16189.000000,24612.000000,58335.000000
23769.000000,16224.000000,24565.000000,58285.000000
23823.000000,16210.000000,24577.000000,58263.000000
23762.000000,16180.000000,24607.000000,58305.000000
23790.000000,16147.000000,24576.000000,58314.000000
23770.000000,16124.000000,24533.000000,58245.000000
23802.000000,16124.000000,24568.000000,58262.000000
23801.000000,16140.000000,24540.000000,58239.000000
23776.000000,16184.000000,24551.000000,58299.000000
23704.000000,16091.000000,24518.000000,58248.000000
23757.000000,16153.000000,24467.000000,58295.000000
23782.000000,16133.000000,24513.000000,58259.000000
23718.000000,16089.000000,24437.000000,58256.000000
23695.000000,16116.000000,24438.000000,58265.000000
23724.000000,16096.000000,24481.000000,58233.000000
23689.000000,16111.000000,24446.000000,58233.000000
23687.000000,16103.000000,24403.000000,58223.000000
23655.000000,16069.000000,24445.000000,58226.000000
23680.000000,16070.000000,24431.000000,58208.000000
23611.000000,16030.000000,24355.000000,58221.000000
23614.000000,16015.000000,24356.000000,58197.000000
23603.000000,16048.000000,24339.000000,58174.000000
23598.000000,15971.000000,24337.000000,58169.000000
23576.000000,16016.000000,24323.000000,58177.000000
23519.000000,15940.000000,24272.000000,58144.000000
23519.000000,15930.000000,24260.000000,58110.000000
23527.000000,15935.000000,24240.000000,58119.000000
23531.000000,15939.000000,24233.000000,58120.000000
23463.000000,15914.000000,24200.000000,58140.000000
23450.000000,15909.000000,24184.000000,58134.000000
23450.000000,15867.000000,24198.000000,58110.000000
23428.000000,15874.000000,24203.000000,58056.000000
23433.000000,15869.000000,24133.000000,58093.000000
23426.000000,15843.000000,24174.000000,58096.000000
23381.000000,15864.000000,24116.000000,58050.000000
23434.000000,15837.000000,24123.000000,58081.000000
23389.000000,15832.000000,24150.000000,58086.000000
23383.000000,15873.000000,24110.000000,58089.000000
23362.000000,15787.000000,24104.000000,58003.000000
23360.000000,15820.000000,24085.000000,57979.000000
23339.000000,15781.000000,24008.000000,58044.000000
23332.000000,15775.000000,24040.000000,58035.000000
23241.000000,15767.000000,23933.000000,57947.000000
23207.000000,15789.000000,23994.000000,57953.000000
23225.000000,15708.000000,23926.000000,57944.000000
23215.000000,15712.000000,23924.000000,57934.000000
23186.000000,15685.000000,23880.000000,57902.000000
23169.000000,15721.000000,23891.000000,57925.000000
23160.000000,15669.000000,23856.000000,57918.000000
23159.000000,15668.000000,23902.000000,57891.000000
23126.000000,15658.000000,23872.000000,57906.000000
23196.000000,15675.000000,23925.000000,57926.000000
23132.000000,15681.000000,23910.000000,57949.000000
23162.000000,15675.000000,23905.000000,57877.000000
23165.000000,15705.000000,23934.000000,57922.000000
23279.000000,15730.000000,24012.000000,57962.000000
23371.000000,15813.000000,24116.000000,58039.000000
23387.000000,15836.000000,24167.000000,58058.000000
23435.000000,15895.000000,24224.000000,58097.000000
23485.000000,15956.000000,24280.000000,58142.000000
23759.000000,16112.000000,24595.000000,58298.000000
23788.000000,16131.000000,24620.000000,58277.000000
23807.000000,16195.000000,24625.000000,58315.000000
23821.000000,16241.000000,24651.000000,58334.000000
23843.000000,16217.000000,24685.000000,58344.000000
23851.000000,16247.000000,24635.000000,58351.000000
23854.000000,16233.000000,24695.000000,58309.000000
23860.000000,16242.000000,24634.000000,58344.000000
23812.000000,16201.000000,24682.000000,58293.000000
23807.000000,16203.000000,24667.000000,58337.000000
23844.000000,16187.000000,24651.000000,58335.000000
23766.000000,16203.000000,24635.000000,58343.000000
23820.000000,16172.000000,24660.000000,58302.000000
23807.000000,16174.000000,24625.000000,58308.000000
23750.000000,16190.000000,24598.000000,58314.000000
23799.000000,16196.000000,24627.000000,58294.000000
23762.000000,16172.000000,24588.000000,58307.000000
23753.000000,16166.000000,24575.000000,58292.000000
23731.000000,16153.000000,24555.000000,58299.000000
23787.000000,16123.000000,24523.000000,58267.000000
23793.000000,16064.000000,24576.000000,58257.000000
23723.000000,16157.000000,24551.000000,58262.000000
23758.000000,16116.000000,24558.000000,58270.000000
23697.000000,16135.000000,24533.000000,58254.000000
23707.000000,16135.000000,24515.000000,58296.000000
23719.000000,16092.000000,24491.000000,58265.000000
23701.000000,16130.000000,24505.000000,58252.000000
23673.000000,16118.000000,24514.000000,58211.000000
23664.000000,16086.000000,24495.000000,58272.000000
23644.000000,16046.000000,24488.000000,58249.000000
23665.000000,16048.000000,24504.000000,58205.000000
23639.000000,16092.000000,24461.000000,58222.000000
23631.000000,16047.000000,24453.000000,58209.000000
23607.000000,16028.000000,24409.000000,58212.000000
23604.000000,16055.000000,24411.000000,58196.000000
23581.000000,16033.000000,24444.000000,58206.000000
23596.000000,16004.000000,24417.000000,58166.000000
23614.000000,15977.000000,24371.000000,58189.000000
23559.000000,16033.000000,24377.000000,58166.000000
23538.000000,15973.000000,24362.000000,58175.000000
23530.000000,16015.000000,24339.000000,58173.000000
23520.000000,15954.000000,24308.000000,58136.000000
23508.000000,15941.000000,24311.000000,58107.000000
23506.000000,15871.000000,24286.000000,58115.000000
23489.000000,15892.000000,24250.000000,58078.000000
23482.000000,15883.000000,24263.000000,58107.000000
23443.000000,15858.000000,24226.000000,58095.000000
23471.000000,15933.000000,24202.000000,58077.000000
23444.000000,15870.000000,24189.000000,58081.000000
23440.000000,15874.000000,24180.000000,58073.000000
23423.000000,15880.000000,24186.000000,58095.000000
23399.000000,15853.000000,24148.000000,58053.000000
23398.000000,15823.000000,24194.000000,58012.000000
23380.000000,15798.000000,24110.000000,58029.000000
23343.000000,15828.000000,24097.000000,58041.000000
23356.000000,15773.000000,24108.000000,58007.000000
23364.000000,15763.000000,24100.000000,58022.000000
23268.000000,15730.000000,24034.000000,57962.000000
23267.000000,15721.000000,23980.000000,57995.000000
23267.000000,15738.000000,23978.000000,57962.000000
23224.000000,15696.000000,23914.000000,57935.000000
23236.000000,15686.000000,23954.000000,57904.000000
23235.000000,15696.000000,23969.000000,57919.000000
23269.000000,15745.000000,23952.000000,57915.000000
23202.000000,15752.000000,23922.000000,57941.000000
23220.000000,15719.000000,23926.000000,57940.000000
23215.000000,15694.000000,23949.000000,57926.000000
23262.000000,15750.000000,23951.000000,57972.000000
23288.000000,15698.000000,23965.000000,57945.000000
23308.000000,15706.000000,23974.000000,57954.000000
23313.000000,15781.000000,24031.000000,57983.000000
23381.000000,15852.000000,24106.000000,58029.000000
23610.000000,15954.000000,24363.000000,58136.000000
23670.000000,16018.000000,24365.000000,58221.000000
23748.000000,16046.000000,24427.000000,58203.000000
23761.000000,16119.000000,24507.000000,58234.000000
24013.000000,16295.000000,24694.000000,58372.000000
24001.000000,16286.000000,24727.000000,58368.000000
23997.000000,16284.000000,24740.000000,58358.000000
24048.000000,16269.000000,24698.000000,58333.000000
23980.000000,16279.000000,24730.000000,58354.000000
24036.000000,16296.000000,24728.000000,58354.000000
24031.000000,16299.000000,24716.000000,58342.000000
24026.000000,16263.000000,24728.000000,58352.000000
24028.000000,16228.000000,24708.000000,58330.000000
23991.000000,16267.000000,24686.000000,58321.000000
23995.000000,16296.000000,24667.000000,58329.000000
23965.000000,16269.000000,24659.000000,58346.000000
23989.000000,16262.000000,24672.000000,58292.000000
23945.000000,16272.000000,24647.000000,58350.000000
23956.000000,16287.000000,24673.000000,58318.000000
23981.000000,16258.000000,24657.000000,58284.000000
23949.000000,16211.000000,24663.000000,58304.000000
23923.000000,16196.000000,24631.000000,58303.000000
23895.000000,16240.000000,24610.000000,58273.000000
23927.000000,16198.000000,24627.000000,58298.000000
23908.000000,16206.000000,24562.000000,58313.000000
23931.000000,16131.000000,24572.000000,58283.000000
23905.000000,16192.000000,24590.000000,58259.000000
23888.000000,16162.000000,24595.000000,58286.000000
23883.000000,16203.000000,24564.000000,58287.000000
23911.000000,16153.000000,24598.000000,58268.000000
23850.000000,16204.000000,24542.000000,58280.000000
23825.000000,16180.000000,24529.000000,58256.000000
23823.000000,16134.000000,24504.000000,58274.000000
23847.000000,16147.000000,24548.000000,58274.000000
23838.000000,16089.000000,24518.000000,58256.000000
23829.000000,16143.000000,24513.000000,58268.000000
23815.000000,16099.000000,24473.000000,58250.000000
23797.000000,16076.000000,24474.000000,58177.000000
23777.000000,16086.000000,24439.000000,58207.000000
23765.000000,16094.000000,24432.000000,58198.000000
23788.000000,16089.000000,24416.000000,58199.000000
23756.000000,16074.000000,24396.000000,58225.000000
23692.000000,16031.000000,24339.000000,58173.000000
23690.000000,16043.000000,24330.000000,58150.000000
23682.000000,16009.000000,24307.000000,58147.000000
23695.000000,15977.000000,24306.000000,58147.000000
23624.000000,15963.000000,24288.000000,58115.000000
23613.000000,15966.000000,24184.000000,58125.000000
23615.000000,15942.000000,24259.000000,58097.000000
23634.000000,15938.000000,24255.000000,58084.000000
23613.000000,15973.000000,24226.000000,58110.000000
23574.000000,15904.000000,24200.000000,58044.000000
23565.000000,15877.000000,24216.000000,58097.000000
23563.000000,15886.000000,24217.000000,58094.000000
23537.000000,15918.000000,24183.000000,58071.000000
23517.000000,15890.000000,24187.000000,58039.000000
23535.000000,15867.000000,24177.000000,58045.000000
23576.000000,15869.000000,24202.000000,58050.000000
23520.000000,15875.000000,24188.000000,58038.000000
23465.000000,15827.000000,24055.000000,57991.000000
23449.000000,15801.000000,24079.000000,57982.000000
23423.000000,15838.000000,24052.000000,58009.000000
23406.000000,15813.000000,24012.000000,57974.000000
23358.000000,15739.000000,23920.000000,57930.000000
23361.000000,15768.000000,23954.000000,57933.000000
23369.000000,15753.000000,23930.000000,57974.000000
23350.000000,15771.000000,23926.000000,57951.000000
23367.000000,15724.000000,23915.000000,57903.000000
23375.000000,15711.000000,23926.000000,57904.000000
23362.000000,15762.000000,23928.000000,57914.000000
23368.000000,15749.000000,23916.000000,57936.000000
23384.000000,15725.000000,23920.000000,57964.000000
23372.000000,15740.000000,23943.000000,57947.000000
23328.000000,15760.000000,23946.000000,57955.000000
23413.000000,15779.000000,23955.000000,57974.000000
23504.000000,15832.000000,24076.000000,58073.000000
23502.000000,15808.000000,24085.000000,58024.000000
23534.000000,15826.000000,24131.000000,58036.000000
23571.000000,15876.000000,24186.000000,58036.000000
23628.000000,15968.000000,24255.000000,58128.000000
23673.000000,15994.000000,24301.000000,58164.000000
23996.000000,16176.000000,24577.000000,58311.000000
24017.000000,16248.000000,24606.000000,58353.000000
24092.000000,16232.000000,24696.000000,58298.000000
24152.000000,16364.000000,24772.000000,58422.000000
24166.000000,16351.000000,24772.000000,58386.000000
24234.000000,16357.000000,24798.000000,58409.000000
24204.000000,16325.000000,24793.000000,58398.000000
24205.000000,16368.000000,24780.000000,58394.000000
24188.000000,16350.000000,24792.000000,58409.000000
24139.000000,16358.000000,24782.000000,58382.000000
24172.000000,16352.000000,24783.000000,58406.000000
24130.000000,16388.000000,24770.000000,58381.000000
24150.000000,16352.000000,24726.000000,58401.000000
24133.000000,16348.000000,24755.000000,58409.000000
24119.000000,16393.000000,24789.000000,58393.000000
24119.000000,16368.000000,24755.000000,58397.000000
24112.000000,16307.000000,24717.000000,58374.000000
24145.000000,16288.000000,24704.000000,58366.000000
24134.000000,16306.000000,24727.000000,58391.000000
24103.000000,16306.000000,24705.000000,58364.000000
24072.000000,16273.000000,24697.000000,58356.000000
24066.000000,16268.000000,24672.000000,58330.000000
24059.000000,16306.000000,24705.000000,58325.000000
24052.000000,16296.000000,24682.000000,58360.000000
24038.000000,16240.000000,24622.000000,58344.000000
24081.000000,16239.000000,24655.000000,58288.000000
24053.000000,16260.000000,24638.000000,58344.000000
24057.000000,16263.000000,24685.000000,58293.000000
23980.000000,16243.000000,24650.000000,58317.000000
24021.000000,16214.000000,24633.000000,58323.000000
23969.000000,16224.000000,24589.000000,58305.000000
24000.000000,16238.000000,24597.000000,58314.000000
24001.000000,16198.000000,24606.000000,58284.000000
23985.000000,16165.000000,24586.000000,58301.000000
23982.000000,16183.000000,24581.000000,58302.000000
23964.000000,16205.000000,24572.000000,58304.000000
23961.000000,16190.000000,24544.000000,58248.000000
23918.000000,16170.000000,24530.000000,58271.000000
23930.000000,16155.000000,24539.000000,58235.000000
23921.000000,16180.000000,24561.000000,58245.000000
23921.000000,16163.000000,24559.000000,58248.000000
23874.000000,16164.000000,24492.000000,58288.000000
23813.000000,16129.000000,24485.000000,58259.000000
23865.000000,16094.000000,24445.000000,58228.000000
23864.000000,16064.000000,24464.000000,58213.000000
23809.000000,16088.000000,24428.000000,58211.000000
23821.000000,16095.000000,24432.000000,58218.000000
23780.000000,16036.000000,24400.000000,58191.000000
23785.000000,16068.000000,24389.000000,58183.000000
23782.000000,16058.000000,24384.000000,58186.000000
23756.000000,16066.000000,24353.000000,58149.000000
23726.000000,16026.000000,24380.000000,58144.000000
23750.000000,16035.000000,24366.000000,58145.000000
23787.000000,16006.000000,24340.000000,58167.000000
23731.000000,16008.000000,24324.000000,58155.000000
23760.000000,16005.000000,24311.000000,58142.000000
23723.000000,15958.000000,24331.000000,58102.000000
23686.000000,15912.000000,24274.000000,58114.000000
23641.000000,15904.000000,24197.000000,58108.000000
23639.000000,15939.000000,24204.000000,58106.000000
23618.000000,15874.000000,24204.000000,58083.000000
23542.000000,15891.000000,24110.000000,58061.000000
23577.000000,15859.000000,24085.000000,58005.000000
23494.000000,15844.000000,24067.000000,58048.000000
23494.000000,15814.000000,24071.000000,58027.000000
23541.000000,15869.000000,24085.000000,58034.000000
23475.000000,15817.000000,24026.000000,57990.000000
23463.000000,15799.000000,24022.000000,57968.000000
23491.000000,15799.000000,24042.000000,57980.000000
23485.000000,15816.000000,24013.000000,57983.000000
23504.000000,15858.000000,23994.000000,58012.000000
23453.000000,15821.000000,24020.000000,57987.000000
23464.000000,15812.000000,24008.000000,57986.000000
23561.000000,15817.000000,24056.000000,58002.000000
23532.000000,15833.000000,24060.000000,58035.000000
23612.000000,15891.000000,24137.000000,58065.000000
23620.000000,15875.000000,24131.000000,58030.000000
23750.000000,16009.000000,24234.000000,58116.000000
24003.000000,16169.000000,24517.000000,58283.000000
24091.000000,16237.000000,24574.000000,58301.000000
24117.000000,16233.000000,24603.000000,58292.000000
24160.000000,16243.000000,24658.000000,58320.000000
24186.000000,16320.000000,24691.000000,58357.000000
24215.000000,16329.000000,24726.000000,58348.000000
24215.000000,16361.000000,24707.000000,58354.000000
24207.000000,16361.000000,24743.000000,58342.000000
24214.000000,16339.000000,24699.000000,58345.000000
24177.000000,16300.000000,24716.000000,58353.000000
24183.000000,16285.000000,24676.000000,58348.000000
24177.000000,16301.000000,24716.000000,58303.000000
24153.000000,16339.000000,24699.000000,58365.000000
24172.000000,16278.000000,24677.000000,58313.000000
24177.000000,16282.000000,24668.000000,58341.000000
24151.000000,16250.000000,24676.000000,58309.000000
24171.000000,16301.000000,24688.000000,58315.000000
24148.000000,16271.000000,24632.000000,58326.000000
24139.000000,16311.000000,24669.000000,58309.000000
24101.000000,16284.000000,24654.000000,58366.000000
24110.000000,16271.000000,24636.000000,58335.000000
24107.000000,16281.000000,24602.000000,58275.000000
24120.000000,16266.000000,24627.000000,58292.000000
24100.000000,16262.000000,24617.000000,58323.000000
24068.000000,16245.000000,24617.000000,58294.000000
24086.000000,16208.000000,24604.000000,58294.000000
24044.000000,16255.000000,24618.000000,58265.000000
24066.000000,16242.000000,24631.000000,58289.000000
24061.000000,16236.000000,24573.000000,58253.000000
24033.000000,16234.000000,24589.000000,58239.000000
24037.000000,16216.000000,24548.000000,58303.000000
24033.000000,16216.000000,24550.000000,58275.000000
24056.000000,16164.000000,24553.000000,58257.000000
23996.000000,16180.000000,24575.000000,58256.000000
23996.000000,16197.000000,24549.000000,58243.000000
23974.000000,16166.000000,24513.000000,58222.000000
23975.000000,16166.000000,24546.000000,58247.000000
23959.000000,16133.000000,24529.000000,58222.000000
23925.000000,16140.000000,24442.000000,58223.000000
23957.000000,16133.000000,24460.000000,58225.000000
23944.000000,16098.000000,24487.000000,58198.000000
23938.000000,16080.000000,24462.000000,58184.000000
23889.000000,16105.000000,24416.000000,58190.000000
23903.000000,16128.000000,24428.000000,58194.000000
23859.000000,16066.000000,24393.000000,58132.000000
23851.000000,16096.000000,24401.000000,58187.000000
23872.000000,16076.000000,24382.000000,58175.000000
23869.000000,16069.000000,24377.000000,58168.000000
23853.000000,16032.000000,24372.000000,58120.000000
23773.000000,16040.000000,24370.000000,58143.000000
23825.000000,16030.000000,24322.000000,58115.000000
23801.000000,16023.000000,24352.000000,58131.000000
23791.000000,16016.000000,24303.000000,58147.000000
23776.000000,16021.000000,24333.000000,58115.000000
23766.000000,15951.000000,24274.000000,58081.000000
23772.000000,15994.000000,24258.000000,58109.000000
23746.000000,15954.000000,24294.000000,58119.000000
23697.000000,15966.000000,24215.000000,58125.000000
23648.000000,15923.000000,24133.000000,58056.000000
23665.000000,15912.000000,24151.000000,58080.000000
23641.000000,15866.000000,24160.000000,57995.000000
23623.000000,15892.000000,24187.000000,57984.000000
23593.000000,15866.000000,24094.000000,57988.000000
23556.000000,15831.000000,24112.000000,58008.000000
23587.000000,15850.000000,24060.000000,57993.000000
23585.000000,15841.000000,24051.000000,57993.000000
23589.000000,15824.000000,24045.000000,57979.000000
23533.000000,15803.000000,24063.000000,57963.000000
23574.000000,15807.000000,24039.000000,57992.000000
23546.000000,15834.000000,24024.000000,57985.000000
23555.000000,15837.000000,24014.000000,58011.000000
23562.000000,15810.000000,24036.000000,57960.000000
23607.000000,15843.000000,24050.000000,57971.000000
23609.000000,15861.000000,24040.000000,57995.000000
23595.000000,15890.000000,24081.000000,58043.000000
23765.000000,15980.000000,24210.000000,58070.000000
23852.000000,15961.000000,24256.000000,58084.000000
23930.000000,16037.000000,24327.000000,58167.000000
23932.000000,16050.000000,24371.000000,58143.000000
24117.000000,16205.000000,24552.000000,58291.000000
24170.000000,16238.000000,24575.000000,58270.000000
24250.000000,16356.000000,24670.000000,58360.000000
24273.000000,16316.000000,24709.000000,58337.000000
24337.000000,16394.000000,24760.000000,58372.000000
24320.000000,16426.000000,24721.000000,58401.000000
24333.000000,16452.000000,24736.000000,58393.000000
24321.000000,16428.000000,24739.000000,58387.000000
24356.000000,16409.000000,24771.000000,58376.000000
24329.000000,16393.000000,24717.000000,58383.000000
24332.000000,16357.000000,24730.000000,58354.000000
24319.000000,16386.000000,24736.000000,58396.000000
24296.000000,16393.000000,24715.000000,58350.000000
24323.000000,16390.000000,24727.000000,58350.000000
24318.000000,16351.000000,24696.000000,58348.000000
24278.000000,16343.000000,24725.000000,58340.000000
24265.000000,16356.000000,24694.000000,58370.000000
24329.000000,16380.000000,24712.000000,58353.000000
24289.000000,16375.000000,24713.000000,58355.000000
24274.000000,16362.000000,24711.000000,58337.000000
24308.000000,16353.000000,24701.000000,58360.000000
24239.000000,16329.000000,24621.000000,58308.000000
24301.000000,16321.000000,24685.000000,58291.000000
24285.000000,16330.000000,24661.000000,58286.000000
24244.000000,16313.000000,24670.000000,58297.000000
24236.000000,16304.000000,24623.000000,58321.000000
24263.000000,16316.000000,24601.000000,58320.000000
24256.000000,16322.000000,24585.000000,58311.000000
24260.000000,16268.000000,24607.000000,58274.000000
24229.000000,16279.000000,24601.000000,58266.000000
24213.000000,16295.000000,24554.000000,58303.000000
24229.000000,16247.000000,24581.000000,58262.000000
24191.000000,16278.000000,24573.000000,58281.000000
24220.000000,16252.000000,24507.000000,58274.000000
24215.000000,16247.000000,24490.000000,58290.000000
24210.000000,16234.000000,24508.000000,58241.000000
24197.000000,16230.000000,24502.000000,58266.000000
24226.000000,16257.000000,24480.000000,58225.000000
24208.000000,16273.000000,24496.000000,58222.000000
24160.000000,16235.000000,24498.000000,58259.000000
24181.000000,16215.000000,24456.000000,58260.000000
24158.000000,16194.000000,24462.000000,58210.000000
24177.000000,16160.000000,24451.000000,58198.000000
24150.000000,16160.000000,24399.000000,58207.000000
24165.000000,16184.000000,24433.000000,58178.000000
24104.000000,16154.000000,24406.000000,58205.000000
24109.000000,16175.000000,24351.000000,58212.000000
24088.000000,16166.000000,24351.000000,58188.000000
24080.000000,16115.000000,24325.000000,58168.000000
24066.000000,16126.000000,24310.000000,58142.000000
24069.000000,16125.000000,24349.000000,58148.000000
24050.000000,16155.000000,24332.000000,58187.000000
24059.000000,16119.000000,24313.000000,58135.000000
24027.000000,16119.000000,24264.000000,58154.000000
24018.000000,16083.000000,24297.000000,58135.000000
23977.000000,16093.000000,24257.000000,58155.000000
24003.000000,16024.000000,24253.000000,58095.000000
23975.000000,16072.000000,24239.000000,58083.000000
23915.000000,16030.000000,24203.000000,58126.000000
23896.000000,16038.000000,24187.000000,58091.000000
23886.000000,16017.000000,24176.000000,58083.000000
23903.000000,15959.000000,24135.000000,58055.000000
23814.000000,15953.000000,24081.000000,58035.000000
23845.000000,15967.000000,24093.000000,58022.000000
23807.000000,15942.000000,24034.000000,58025.000000
23869.000000,15902.000000,24076.000000,58004.000000
23761.000000,15904.000000,24027.000000,57994.000000
23782.000000,15911.000000,24052.000000,58007.000000
23831.000000,15890.000000,24042.000000,58030.000000
23790.000000,15900.000000,23990.000000,57988.000000
23764.000000,15922.000000,24020.000000,57984.000000
23798.000000,15915.000000,24041.000000,57995.000000
23819.000000,15894.000000,24044.000000,57989.000000
23813.000000,15925.000000,24055.000000,57975.000000
23873.000000,15946.000000,24138.000000,58061.000000
23895.000000,15989.000000,24134.000000,58020.000000
23908.000000,15974.000000,24172.000000,58080.000000
23929.000000,16002.000000,24190.000000,58084.000000
24143.000000,16171.000000,24454.000000,58196.000000
24195.000000,16268.000000,24486.000000,58271.000000
24307.000000,16236.000000,24590.000000,58270.000000
24310.000000,16326.000000,24583.000000,58310.000000
24482.000000,16477.000000,24797.000000,58402.000000
24476.000000,16462.000000,24845.000000,58397.000000
24504.000000,16439.000000,24754.000000,58408.000000
24525.000000,16464.000000,24824.000000,58397.000000
24506.000000,16465.000000,24802.000000,58365.000000
24456.000000,16469.000000,24818.000000,58414.000000
24425.000000,16485.000000,24784.000000,58402.000000
24467.000000,16469.000000,24759.000000,58344.000000
24381.000000,16442.000000,24761.000000,58355.000000
24421.000000,16422.000000,24770.000000,58365.000000
24412.000000,16423.000000,24737.000000,58388.000000
24412.000000,16447.000000,24746.000000,58362.000000
24407.000000,16391.000000,24684.000000,58345.000000
24366.000000,16419.000000,24711.000000,58306.000000
24396.000000,16394.000000,24748.000000,58338.000000
24349.000000,16385.000000,24662.000000,58349.000000
24394.000000,16379.000000,24674.000000,58330.000000
24363.000000,16375.000000,24642.000000,58325.000000
24375.000000,16346.000000,24683.000000,58319.000000
24388.000000,16383.000000,24687.000000,58318.000000
24344.000000,16355.000000,24621.000000,58317.000000
24400.000000,16372.000000,24632.000000,58316.000000
24397.000000,16346.000000,24610.000000,58318.000000
24381.000000,16339.000000,24610.000000,58269.000000
24384.000000,16342.000000,24637.000000,58301.000000
24323.000000,16307.000000,24603.000000,58301.000000
24374.000000,16363.000000,24576.000000,58313.000000
24370.000000,16330.000000,24589.000000,58289.000000
24349.000000,16346.000000,24579.000000,58291.000000
24346.000000,16334.000000,24588.000000,58276.000000
24349.000000,16356.000000,24557.000000,58317.000000
24341.000000,16294.000000,24594.000000,58253.000000
24298.000000,16306.000000,24534.000000,58257.000000
24335.000000,16277.000000,24545.000000,58233.000000
24355.000000,16289.000000,24598.000000,58253.000000
24302.000000,16283.000000,24524.000000,58282.000000
24243.000000,16252.000000,24501.000000,58255.000000
24307.000000,16238.000000,24503.000000,58218.000000
24268.000000,16274.000000,24514.000000,58246.000000
24252.000000,16254.000000,24487.000000,58244.000000
24217.000000,16236.000000,24457.000000,58257.000000
24234.000000,16275.000000,24419.000000,58255.000000
24250.000000,16223.000000,24474.000000,58203.000000
24226.000000,16252.000000,24424.000000,58232.000000
24183.000000,16261.000000,24423.000000,58188.000000
24157.000000,16211.000000,24379.000000,58179.000000
24182.000000,16193.000000,24397.000000,58224.000000
24158.000000,16145.000000,24383.000000,58156.000000
24177.000000,16198.000000,24377.000000,58178.000000
24139.000000,16165.000000,24319.000000,58149.000000
24143.000000,16148.000000,24359.000000,58180.000000
24118.000000,16135.000000,24304.000000,58137.000000
24105.000000,16128.000000,24309.000000,58142.000000
24138.000000,16165.000000,24324.000000,58154.000000
24089.000000,16096.000000,24284.000000,58160.000000
24062.000000,16141.000000,24294.000000,58138.000000
24087.000000,16079.000000,24278.000000,58103.000000
24038.000000,16084.000000,24246.000000,58101.000000
24050.000000,16055.000000,24213.000000,58081.000000
24007.000000,16094.000000,24224.000000,58076.000000
23969.000000,15972.000000,24129.000000,58060.000000
23965.000000,15984.000000,24155.000000,58041.000000
23944.000000,15974.000000,24103.000000,58015.000000
23937.000000,15946.000000,24103.000000,57994.000000
23903.000000,15966.000000,24106.000000,57994.000000
23920.000000,16004.000000,24078.000000,58036.000000
23895.000000,15946.000000,24086.000000,57968.000000
23915.000000,15936.000000,24109.000000,57999.000000
23902.000000,15973.000000,24105.000000,58042.000000
23887.000000,15944.000000,24034.000000,58024.000000
23866.000000,15946.000000,24048.000000,58018.000000
23852.000000,15966.000000,24038.000000,58014.000000
23863.000000,15971.000000,24014.000000,57994.000000
23885.000000,15989.000000,24038.000000,58014.000000
23895.000000,16008.000000,24081.000000,58020.000000
23928.000000,16009.000000,24095.000000,58041.000000
24196.000000,16164.000000,24359.000000,58143.000000
24229.000000,16177.000000,24416.000000,58155.000000
24274.000000,16253.000000,24451.000000,58221.000000
24411.000000,16334.000000,24582.000000,58263.000000
24405.000000,16368.000000,24627.000000,58301.000000
24434.000000,16333.000000,24694.000000,58323.000000
24546.000000,16466.000000,24695.000000,58361.000000
24538.000000,16419.000000,24679.000000,58368.000000
24566.000000,16443.000000,24740.000000,58323.000000
24546.000000,16482.000000,24716.000000,58360.000000
24486.000000,16443.000000,24714.000000,58352.000000
24514.000000,16428.000000,24662.000000,58363.000000
24538.000000,16457.000000,24696.000000,58316.000000
24508.000000,16447.000000,24677.000000,58330.000000
24511.000000,16416.000000,24707.000000,58314.000000
24487.000000,16457.000000,24660.000000,58316.000000
24489.000000,16406.000000,24672.000000,58332.000000
24460.000000,16397.000000,24682.000000,58344.000000
24479.000000,16387.000000,24630.000000,58292.000000
24497.000000,16426.000000,24646.000000,58343.000000
24458.000000,16399.000000,24645.000000,58333.000000
24463.000000,16392.000000,24604.000000,58275.000000
24456.000000,16373.000000,24584.000000,58272.000000
24442.000000,16385.000000,24600.000000,58299.000000
24452.000000,16351.000000,24627.000000,58282.000000
24441.000000,16344.000000,24566.000000,58308.000000
24387.000000,16370.000000,24568.000000,58283.000000
24389.000000,16311.000000,24601.000000,58238.000000
24391.000000,16366.000000,24563.000000,58327.000000
24425.000000,16311.000000,24550.000000,58249.000000
24344.000000,16357.000000,24558.000000,58262.000000
24342.000000,16308.000000,24522.000000,58237.000000
24362.000000,16292.000000,24538.000000,58230.000000
24362.000000,16314.000000,24545.000000,58207.000000
24309.000000,16317.000000,24505.000000,58224.000000
24342.000000,16256.000000,24517.000000,58221.000000
24311.000000,16293.000000,24460.000000,58232.000000
24316.000000,16289.000000,24462.000000,58224.000000
24330.000000,16227.000000,24500.000000,58185.000000
24275.000000,16229.000000,24418.000000,58198.000000
24311.000000,16217.000000,24452.000000,58191.000000
24270.000000,16227.000000,24397.000000,58219.000000
24257.000000,16244.000000,24423.000000,58203.000000
24232.000000,16204.000000,24401.000000,58170.000000
24218.000000,16199.000000,24399.000000,58153.000000
24217.000000,16211.000000,24398.000000,58156.000000
24205.000000,16191.000000,24368.000000,58163.000000
24170.000000,16172.000000,24373.000000,58102.000000
24140.000000,16157.000000,24278.000000,58187.000000
24193.000000,16155.000000,24316.000000,58133.000000
24212.000000,16135.000000,24312.000000,58093.000000
24220.000000,16123.000000,24302.000000,58111.000000
24189.000000,16186.000000,24298.000000,58106.000000
24180.000000,16193.000000,24296.000000,58156.000000
24179.000000,16147.000000,24270.000000,58094.000000
24107.000000,16094.000000,24210.000000,58104.000000
24146.000000,16120.000000,24236.000000,58092.000000
24073.000000,16140.000000,24222.000000,58096.000000
24094.000000,16062.000000,24197.000000,58060.000000
24029.000000,16017.000000,24078.000000,58055.000000
24031.000000,16019.000000,24102.000000,58003.000000
23992.000000,16062.000000,24111.000000,58036.000000
24000.000000,16000.000000,24036.000000,58013.000000
23989.000000,15968.000000,24084.000000,58028.000000
24001.000000,15982.000000,24073.000000,58015.000000
23983.000000,15999.000000,24065.000000,58037.000000
24000.000000,15949.000000,24047.000000,58009.000000
23959.000000,15947.000000,24024.000000,57985.000000
23987.000000,15942.000000,24041.000000,58004.000000
23978.000000,15972.000000,24055.000000,58000.000000
24004.000000,15981.000000,24017.000000,57993.000000
23973.000000,16006.000000,24025.000000,57956.000000
23996.000000,15977.000000,24037.000000,57996.000000
23997.000000,15976.000000,24051.000000,58005.000000
24061.000000,16007.000000,24129.000000,58025.000000
24092.000000,16030.000000,24154.000000,58015.000000
24153.000000,16080.000000,24191.000000,58031.000000
24129.000000,16104.000000,24211.000000,58110.000000
24408.000000,16293.000000,24439.000000,58257.000000
24444.000000,16320.000000,24490.000000,58253.000000
24638.000000,16479.000000,24657.000000,58349.000000
24649.000000,16506.000000,24668.000000,58347.000000
24711.000000,16462.000000,24740.000000,58335.000000
24717.000000,16499.000000,24723.000000,58369.000000
24704.000000,16522.000000,24725.000000,58394.000000
24726.000000,16518.000000,24715.000000,58392.000000
24718.000000,16516.000000,24739.000000,58342.000000
24687.000000,16523.000000,24729.000000,58371.000000
24701.000000,16485.000000,24711.000000,58289.000000
24717.000000,16513.000000,24698.000000,58341.000000
24637.000000,16510.000000,24686.000000,58349.000000
24684.000000,16471.000000,24655.000000,58340.000000
24639.000000,16523.000000,24647.000000,58334.000000
24710.000000,16521.000000,24671.000000,58360.000000
24683.000000,16489.000000,24716.000000,58301.000000
24676.000000,16484.000000,24669.000000,58301.000000
24688.000000,16462.000000,24665.000000,58274.000000
24641.000000,16452.000000,24637.000000,58316.000000
24675.000000,16484.000000,24617.000000,58298.000000
24668.000000,16501.000000,24649.000000,58341.000000
24653.000000,16425.000000,24605.000000,58308.000000
24671.000000,16497.000000,24618.000000,58352.000000
24701.000000,16400.000000,24624.000000,58313.000000
24611.000000,16408.000000,24560.000000,58263.000000
24620.000000,16392.000000,24579.000000,58245.000000
24640.000000,16417.000000,24556.000000,58285.000000
24548.000000,16391.000000,24568.000000,58279.000000
24553.000000,16387.000000,24564.000000,58248.000000
24523.000000,16351.000000,24541.000000,58220.000000
24564.000000,16394.000000,24561.000000,58273.000000
24551.000000,16378.000000,24550.000000,58267.000000
24498.000000,16362.000000,24506.000000,58283.000000
24543.000000,16321.000000,24511.000000,58244.000000
24516.000000,16395.000000,24480.000000,58244.000000
24505.000000,16374.000000,24532.000000,58240.000000
24509.000000,16321.000000,24469.000000,58190.000000
24521.000000,16340.000000,24476.000000,58231.000000
24495.000000,16301.000000,24473.000000,58199.000000
24461.000000,16291.000000,24458.000000,58187.000000
24444.000000,16307.000000,24429.000000,58200.000000
24450.000000,16265.000000,24453.000000,58196.000000
24423.000000,16280.000000,24384.000000,58179.000000
24448.000000,16316.000000,24405.000000,58184.000000
24388.000000,16262.000000,24362.000000,58119.000000
24365.000000,16288.000000,24319.000000,58145.000000
24366.000000,16227.000000,24373.000000,58148.000000
24353.000000,16227.000000,24338.000000,58126.000000
24346.000000,16220.000000,24298.000000,58135.000000
24324.000000,16200.000000,24296.000000,58099.000000
24319.000000,16219.000000,24314.000000,58144.000000
24324.000000,16209.000000,24267.000000,58101.000000
24309.000000,16200.000000,24282.000000,58106.000000
24288.000000,16172.000000,24237.000000,58112.000000
24298.000000,16160.000000,24251.000000,58093.000000
24305.000000,16188.000000,24257.000000,58108.000000
24216.000000,16176.000000,24185.000000,58089.000000
24252.000000,16112.000000,24247.000000,58098.000000
24248.000000,16142.000000,24205.000000,58093.000000
24243.000000,16129.000000,24218.000000,58116.000000
24164.000000,16103.000000,24094.000000,58060.000000
24180.000000,16069.000000,24135.000000,58019.000000
24119.000000,16080.000000,24075.000000,58016.000000
24142.000000,16088.000000,24086.000000,58016.000000
24107.000000,16059.000000,24043.000000,57991.000000
24076.000000,16051.000000,24052.000000,57970.000000
24082.000000,16012.000000,24005.000000,57984.000000
24069.000000,16021.000000,23994.000000,57980.000000
24070.000000,16055.000000,24044.000000,58022.000000
24078.000000,16013.000000,23986.000000,57962.000000
24071.000000,16022.000000,23963.000000,57951.000000
24037.000000,15989.000000,24011.000000,57939.000000
24060.000000,15976.000000,23981.000000,57930.000000
24058.000000,15997.000000,23978.000000,57966.000000
24111.000000,16000.000000,23973.000000,57968.000000
24115.000000,16019.000000,23998.000000,57950.000000
24125.000000,16021.000000,24009.000000,57964.000000
24132.000000,16030.000000,24018.000000,57987.000000
24249.000000,16053.000000,24127.000000,58001.000000
24274.000000,16180.000000,24193.000000,58103.000000
24331.000000,16168.000000,24187.000000,58086.000000
24568.000000,16332.000000,24489.000000,58201.000000
24621.000000,16370.000000,24525.000000,58249.000000
24644.000000,16425.000000,24526.000000,58291.000000
24720.000000,16522.000000,24656.000000,58288.000000
24811.000000,16560.000000,24678.000000,58360.000000
24807.000000,16537.000000,24696.000000,58342.000000
24790.000000,16540.000000,24709.000000,58303.000000
24856.000000,16521.000000,24712.000000,58318.000000
24796.000000,16541.000000,24627.000000,58356.000000
24855.000000,16551.000000,24685.000000,58339.000000
24831.000000,16535.000000,24731.000000,58273.000000
24816.000000,16504.000000,24662.000000,58300.000000
24780.000000,16492.000000,24688.000000,58310.000000
24784.000000,16504.000000,24660.000000,58329.000000
24770.000000,16497.000000,24675.000000,58345.000000
24781.000000,16475.000000,24642.000000,58278.000000
24738.000000,16495.000000,24623.000000,58306.000000
24750.000000,16474.000000,24647.000000,58305.000000
24685.000000,16468.000000,24616.000000,58268.000000
24705.000000,16468.000000,24579.000000,58278.000000
24723.000000,16475.000000,24583.000000,58265.000000
24732.000000,16443.000000,24582.000000,58313.000000
24639.000000,16442.000000,24585.000000,58250.000000
24653.000000,16444.000000,24541.000000,58280.000000
24663.000000,16447.000000,24592.000000,58281.000000
24691.000000,16412.000000,24567.000000,58239.000000
24656.000000,16462.000000,24524.000000,58277.000000
24658.000000,16414.000000,24546.000000,58250.000000
24657.000000,16417.000000,24542.000000,58259.000000
24664.000000,16382.000000,24528.000000,58215.000000
24612.000000,16405.000000,24519.000000,58259.000000
24568.000000,16409.000000,24486.000000,58211.000000
24656.000000,16380.000000,24485.000000,58221.000000
24638.000000,16381.000000,24513.000000,58196.000000
24598.000000,16399.000000,24490.000000,58232.000000
24587.000000,16393.000000,24425.000000,58164.000000
24589.000000,16344.000000,24460.000000,58214.000000
24586.000000,16390.000000,24466.000000,58216.000000
24597.000000,16355.000000,24443.000000,58189.000000
24528.000000,16339.000000,24419.000000,58169.000000
24553.000000,16326.000000,24437.000000,58157.000000
24534.000000,16359.000000,24365.000000,58179.000000
24521.000000,16329.000000,24405.000000,58205.000000
24476.000000,16318.000000,24332.000000,58165.000000
24479.000000,16245.000000,24359.000000,58123.000000
24534.000000,16275.000000,24350.000000,58123.000000
24476.000000,16244.000000,24346.000000,58128.000000
24469.000000,16262.000000,24308.000000,58104.000000
24432.000000,16259.000000,24293.000000,58123.000000
24442.000000,16238.000000,24281.000000,58142.000000
24423.000000,16257.000000,24288.000000,58116.000000
24398.000000,16241.000000,24246.000000,58082.000000
24361.000000,16228.000000,24238.000000,58112.000000
24354.000000,16246.000000,24234.000000,58134.000000
24372.000000,16221.000000,24248.000000,58098.000000
24372.000000,16204.000000,24205.000000,58094.000000
24361.000000,16235.000000,24187.000000,58081.000000
24343.000000,16195.000000,24218.000000,58117.000000
24365.000000,16153.000000,24233.000000,58051.000000
24305.000000,16123.000000,24152.000000,58045.000000
24291.000000,16142.000000,24133.000000,58053.000000
24277.000000,16152.000000,24123.000000,58027.000000
24270.000000,16181.000000,24127.000000,58005.000000
24202.000000,16090.000000,24009.000000,58003.000000
24161.000000,16076.000000,23988.000000,57972.000000
24195.000000,16058.000000,24022.000000,57983.000000
24177.000000,16039.000000,24028.000000,57958.000000
24186.000000,16046.000000,23989.000000,57972.000000
24135.000000,15995.000000,23965.000000,57904.000000
24159.000000,16031.000000,23960.000000,57932.000000
24115.000000,16054.000000,23957.000000,57964.000000
24160.000000,15999.000000,23959.000000,57957.000000
24147.000000,16022.000000,23939.000000,57956.000000
24123.000000,16031.000000,23950.000000,57938.000000
24115.000000,15994.000000,23958.000000,57940.000000
24179.000000,15994.000000,23976.000000,57945.000000
24163.000000,16023.000000,23990.000000,57953.000000
24318.000000,16107.000000,24054.000000,57986.000000
24302.000000,16114.000000,24109.000000,58023.000000
24335.000000,16145.000000,24153.000000,58022.000000
24395.000000,16195.000000,24162.000000,58100.000000
24618.000000,16362.000000,24419.000000,58207.000000
24699.000000,16378.000000,24499.000000,58204.000000
24760.000000,16473.000000,24552.000000,58282.000000
24786.000000,16458.000000,24573.000000,58273.000000
24807.000000,16509.000000,24618.000000,58278.000000
24823.000000,16485.000000,24605.000000,58278.000000
24837.000000,16509.000000,24635.000000,58293.000000
24830.000000,16547.000000,24615.000000,58277.000000
24780.000000,16521.000000,24611.000000,58312.000000
24845.000000,16510.000000,24622.000000,58288.000000
24829.000000,16500.000000,24650.000000,58273.000000
24838.000000,16527.000000,24596.000000,58326.000000
24846.000000,16469.000000,24579.000000,58260.000000
24812.000000,16526.000000,24591.000000,58273.000000
24793.000000,16515.000000,24585.000000,58307.000000
24825.000000,16485.000000,24552.000000,58260.000000
24749.000000,16503.000000,24584.000000,58270.000000
24747.000000,16498.000000,24576.000000,58268.000000
24772.000000,16455.000000,24559.000000,58233.000000
24772.000000,16454.000000,24575.000000,58254.000000
24798.000000,16452.000000,24571.000000,58266.000000
24722.000000,16445.000000,24555.000000,58246.000000
24737.000000,16420.000000,24498.000000,58245.000000
24757.000000,16434.000000,24498.000000,58192.000000
24764.000000,16435.000000,24526.000000,58236.000000
24749.000000,16454.000000,24512.000000,58216.000000
24690.000000,16411.000000,24481.000000,58190.000000
24684.000000,16443.000000,24462.000000,58224.000000
24666.000000,16421.000000,24470.000000,58200.000000
24692.000000,16379.000000,24449.000000,58236.000000
24706.000000,16381.000000,24444.000000,58171.000000
24642.000000,16419.000000,24437.000000,58197.000000
24655.000000,16402.000000,24415.000000,58221.000000
24640.000000,16350.000000,24406.000000,58191.000000
24611.000000,16346.000000,24438.000000,58168.000000
24601.000000,16383.000000,24341.000000,58186.000000
24652.000000,16364.000000,24399.000000,58146.000000
24595.000000,16338.000000,24413.000000,58178.000000
24588.000000,16358.000000,24313.000000,58150.000000
24601.000000,16315.000000,24363.000000,58122.000000
24567.000000,16325.000000,24311.000000,58138.000000
24591.000000,16299.000000,24323.000000,58142.000000
24527.000000,16329.000000,24278.000000,58105.000000
24526.000000,16263.000000,24257.000000,58088.000000
24545.000000,16253.000000,24277.000000,58096.000000
24477.000000,16264.000000,24242.000000,58076.000000
24485.000000,16236.000000,24257.000000,58111.000000
24494.000000,16213.000000,24259.000000,58074.000000
24489.000000,16226.000000,24224.000000,58052.000000
24459.000000,16219.000000,24229.000000,58084.000000
24448.000000,16210.000000,24214.000000,58079.000000
24459.000000,16196.000000,24174.000000,58045.000000
24484.000000,16196.000000,24189.000000,58031.000000
24449.000000,16189.000000,24199.000000,58053.000000
24451.000000,16220.000000,24176.000000,58000.000000
24379.000000,16154.000000,24129.000000,58021.000000
24356.000000,16184.000000,24118.000000,57995.000000
24349.000000,16193.000000,24160.000000,58017.000000
24345.000000,16138.000000,24060.000000,58011.000000
24324.000000,16119.000000,24123.000000,57988.000000
24265.000000,16078.000000,24052.000000,57928.000000
24204.000000,16070.000000,24010.000000,57959.000000
24216.000000,16057.000000,24003.000000,57945.000000
24158.000000,16053.000000,23981.000000,57947.000000
24201.000000,16027.000000,23957.000000,57914.000000
24146.000000,15996.000000,23956.000000,57846.000000
24127.000000,15971.000000,23944.000000,57897.000000
24094.000000,15973.000000,23935.000000,57918.000000
24075.000000,15969.000000,23908.000000,57875.000000
24141.000000,15965.000000,23923.000000,57867.000000
24141.000000,15955.000000,23900.000000,57890.000000
24126.000000,15976.000000,23927.000000,57879.000000
24143.000000,15997.000000,23938.000000,57929.000000
24188.000000,16048.000000,23946.000000,57925.000000
24165.000000,16052.000000,24012.000000,57919.000000
24236.000000,16030.000000,23982.000000,57911.000000
24472.000000,16260.000000,24247.000000,58087.000000
24549.000000,16274.000000,24284.000000,58133.000000
24605.000000,16307.000000,24315.000000,58117.000000
24669.000000,16375.000000,24388.000000,58156.000000
24809.000000,16435.000000,24514.000000,58216.000000
24885.000000,16532.000000,24588.000000,58258.000000
24887.000000,16558.000000,24565.000000,58279.000000
24904.000000,16559.000000,24593.000000,58253.000000
24854.000000,16554.000000,24533.000000,58272.000000
24884.000000,16547.000000,24599.000000,58283.000000
24930.000000,16520.000000,24571.000000,58282.000000
24903.000000,16503.000000,24599.000000,58234.000000
24909.000000,16498.000000,24581.000000,58275.000000
24898.000000,16530.000000,24584.000000,58258.000000
24899.000000,16529.000000,24564.000000,58248.000000
24874.000000,16520.000000,24562.000000,58263.000000
24880.000000,16507.000000,24609.000000,58246.000000
24887.000000,16524.000000,24575.000000,58235.000000
24845.000000,16503.000000,24527.000000,58201.000000
24870.000000,16462.000000,24575.000000,58233.000000
24837.000000,16477.000000,24570.000000,58234.000000
24773.000000,16472.000000,24534.000000,58187.000000
24777.000000,16471.000000,24519.000000,58241.000000
24799.000000,16481.000000,24489.000000,58190.000000
24761.000000,16488.000000,24519.000000,58212.000000
24772.000000,16462.000000,24482.000000,58220.000000
24763.000000,16469.000000,24485.000000,58190.000000
24742.000000,16471.000000,24425.000000,58171.000000
24702.000000,16431.000000,24488.000000,58186.000000
24720.000000,16449.000000,24477.000000,58166.000000
24714.000000,16421.000000,24433.000000,58168.000000
24683.000000,16448.000000,24444.000000,58168.000000
24683.000000,16371.000000,24392.000000,58139.000000
24623.000000,16423.000000,24422.000000,58151.000000
24648.000000,16381.000000,24408.000000,58127.000000
24646.000000,16409.000000,24415.000000,58152.000000
24578.000000,16348.000000,24369.000000,58140.000000
24623.000000,16339.000000,24375.000000,58124.000000
24628.000000,16327.000000,24348.000000,58116.000000
24578.000000,16350.000000,24358.000000,58122.000000
24563.000000,16323.000000,24372.000000,58113.000000
24544.000000,16281.000000,24308.000000,58100.000000
24515.000000,16312.000000,24272.000000,58095.000000
24470.000000,16288.000000,24279.000000,58095.000000
24513.000000,16241.000000,24273.000000,58069.000000
24423.000000,16268.000000,24241.000000,58108.000000
24480.000000,16264.000000,24211.000000,58028.000000
24484.000000,16249.000000,24240.000000,58026.000000
24456.000000,16250.000000,24262.000000,58057.000000
24460.000000,16228.000000,24218.000000,58040.000000
24431.000000,16203.000000,24206.000000,58004.000000
24431.000000,16230.000000,24193.000000,58048.000000
24450.000000,16189.000000,24182.000000,57998.000000
24404.000000,16252.000000,24154.000000,58029.000000
24428.000000,16193.000000,24144.000000,57990.000000
24378.000000,16182.000000,24133.000000,58014.000000
24351.000000,16183.000000,24120.000000,57980.000000
24348.000000,16133.000000,24115.000000,57985.000000
24303.000000,16140.000000,24071.000000,57942.000000
24303.000000,16197.000000,24063.000000,58014.000000
24225.000000,16068.000000,23939.000000,57934.000000
24234.000000,16066.000000,23997.000000,57898.000000
24212.000000,16082.000000,23982.000000,57896.000000
24188.000000,16064.000000,23942.000000,57896.000000
24165.000000,16032.000000,23937.000000,57876.000000
24138.000000,16043.000000,23912.000000,57871.000000
24174.000000,15982.000000,23853.000000,57846.000000
24149.000000,15972.000000,23879.000000,57832.000000
24131.000000,15989.000000,23891.000000,57838.000000
24126.000000,15973.000000,23882.000000,57877.000000
24162.000000,15999.000000,23864.000000,57860.000000
24128.000000,15990.000000,23854.000000,57841.000000
24171.000000,15968.000000,23860.000000,57860.000000
24181.000000,15995.000000,23894.000000,57876.000000
24190.000000,16057.000000,23922.000000,57921.000000
24200.000000,16037.000000,23940.000000,57926.000000
24362.000000,16151.000000,24103.000000,57941.000000
24377.000000,16162.000000,24142.000000,58028.000000
24463.000000,16210.000000,24178.000000,58035.000000
24499.000000,16270.000000,24262.000000,58060.000000
24637.000000,16369.000000,24373.000000,58119.000000
24799.000000,16503.000000,24504.000000,58204.000000
24800.000000,16503.000000,24480.000000,58200.000000
24826.000000,16502.000000,24527.000000,58237.000000
24824.000000,16564.000000,24520.000000,58230.000000
24844.000000,16526.000000,24550.000000,58201.000000
24842.000000,16468.000000,24541.000000,58210.000000
24806.000000,16543.000000,24482.000000,58195.000000
24799.000000,16538.000000,24490.000000,58194.000000
24771.000000,16511.000000,24444.000000,58179.000000
24783.000000,16487.000000,24492.000000,58182.000000
24787.000000,16505.000000,24453.000000,58181.000000
24751.000000,16438.000000,24457.000000,58159.000000
24763.000000,16417.000000,24405.000000,58163.000000
24746.000000,16493.000000,24433.000000,58155.000000
24724.000000,16469.000000,24465.000000,58207.000000
24736.000000,16497.000000,24392.000000,58151.000000
24711.000000,16443.000000,24388.000000,58123.000000
24702.000000,16414.000000,24400.000000,58111.000000
24674.000000,16412.000000,24408.000000,58115.000000
24626.000000,16458.000000,24382.000000,58135.000000
24701.000000,16392.000000,24327.000000,58098.000000
24658.000000,16390.000000,24327.000000,58102.000000
24626.000000,16370.000000,24320.000000,58105.000000
24554.000000,16373.000000,24284.000000,58091.000000
24585.000000,16341.000000,24284.000000,58043.000000
24569.000000,16359.000000,24240.000000,58093.000000
24572.000000,16325.000000,24268.000000,58080.000000
24513.000000,16293.000000,24237.000000,58016.000000
24481.000000,16288.000000,24214.000000,58075.000000
24488.000000,16319.000000,24210.000000,58023.000000
24453.000000,16290.000000,24149.000000,57989.000000
24409.000000,16237.000000,24131.000000,57955.000000
24404.000000,16281.000000,24137.000000,58006.000000
24399.000000,16220.000000,24159.000000,57996.000000
24392.000000,16188.000000,24067.000000,57968.000000
24409.000000,16242.000000,24073.000000,57956.000000
24357.000000,16204.000000,24075.000000,57920.000000
24350.000000,16193.000000,24069.000000,57977.000000
24301.000000,16196.000000,24006.000000,57963.000000
24324.000000,16146.000000,23996.000000,57911.000000
24276.000000,16186.000000,24001.000000,57908.000000
24338.000000,16118.000000,24021.000000,57920.000000
24262.000000,16156.000000,23992.000000,57910.000000
24248.000000,16096.000000,23956.000000,57884.000000
24210.000000,16107.000000,23914.000000,57903.000000
24243.000000,16050.000000,23946.000000,57870.000000
24221.000000,16043.000000,23921.000000,57863.000000
24235.000000,16059.000000,23901.000000,57858.000000
24082.000000,16006.000000,23819.000000,57838.000000
24075.000000,15989.000000,23777.000000,57798.000000
24072.000000,15981.000000,23784.000000,57792.000000
23954.000000,15875.000000,23700.000000,57711.000000
23963.000000,15920.000000,23662.000000,57768.000000
23957.000000,15875.000000,23639.000000,57727.000000
23939.000000,15853.000000,23671.000000,57695.000000
23908.000000,15876.000000,23638.000000,57714.000000
23908.000000,15868.000000,23610.000000,57705.000000
23881.000000,15857.000000,23585.000000,57680.000000
23943.000000,15840.000000,23602.000000,57673.000000
23922.000000,15847.000000,23612.000000,57713.000000
23939.000000,15826.000000,23654.000000,57631.000000
23898.000000,15840.000000,23582.000000,57691.000000
23917.000000,15824.000000,23599.000000,57736.000000
23957.000000,15828.000000,23637.000000,57720.000000
23964.000000,15859.000000,23632.000000,57711.000000
23999.000000,15872.000000,23680.000000,57699.000000
23999.000000,15895.000000,23667.000000,57722.000000
23994.000000,15896.000000,23625.000000,57745.000000
24120.000000,15979.000000,23760.000000,57782.000000
24277.000000,16096.000000,23930.000000,57888.000000
24310.000000,16130.000000,23993.000000,57875.000000
24389.000000,16178.000000,24000.000000,57926.000000
24395.000000,16193.000000,24046.000000,57906.000000
24482.000000,16239.000000,24113.000000,57955.000000
24573.000000,16333.000000,24130.000000,57991.000000
24565.000000,16288.000000,24191.000000,57976.000000
24546.000000,16295.000000,24191.000000,57968.000000
24522.000000,16317.000000,24164.000000,57994.000000
24471.000000,16258.000000,24122.000000,57989.000000
24482.000000,16273.000000,24107.000000,57963.000000
24498.000000,16288.000000,24044.000000,57926.000000
24420.000000,16234.000000,24015.000000,57905.000000
24428.000000,16173.000000,24041.000000,57903.000000
24414.000000,16188.000000,24030.000000,57916.000000
24438.000000,16189.000000,24034.000000,57891.000000
24361.000000,16167.000000,23975.000000,57874.000000
24344.000000,16169.000000,23931.000000,57899.000000
24388.000000,16146.000000,23968.000000,57879.000000
24341.000000,16176.000000,23947.000000,57895.000000
24330.000000,16182.000000,23911.000000,57881.000000
24338.000000,16132.000000,23918.000000,57890.000000
24311.000000,16140.000000,23893.000000,57851.000000
24310.000000,16107.000000,23895.000000,57852.000000
24323.000000,16145.000000,23895.000000,57856.000000
24328.000000,16124.000000,23926.000000,57859.000000
24321.000000,16116.000000,23852.000000,57869.000000
24298.000000,16085.000000,23872.000000,57816.000000
24309.000000,16148.000000,23858.000000,57863.000000
24340.000000,16108.000000,23858.000000,57824.000000
24302.000000,16083.000000,23841.000000,57851.000000
24307.000000,16111.000000,23816.000000,57823.000000
24319.000000,16104.000000,23820.000000,57807.000000
24341.000000,16075.000000,23813.000000,57829.000000
24354.000000,16081.000000,23821.000000,57824.000000
24378.000000,16108.000000,23812.000000,57802.000000
24339.000000,16120.000000,23776.000000,57819.000000
24355.000000,16081.000000,23760.000000,57811.000000
24274.000000,16067.000000,23748.000000,57821.000000
24295.000000,16029.000000,23718.000000,57768.000000
24268.000000,16025.000000,23670.000000,57786.000000
24282.000000,16021.000000,23643.000000,57756.000000
24200.000000,16019.000000,23616.000000,57759.000000
24209.000000,16019.000000,23600.000000,57769.000000
24169.000000,15935.000000,23525.000000,57655.000000
24160.000000,15957.000000,23520.000000,57676.000000
24110.000000,15941.000000,23536.000000,57691.000000
24145.000000,15905.000000,23522.000000,57639.000000
24084.000000,15861.000000,23427.000000,57614.000000
24069.000000,15867.000000,23457.000000,57588.000000
24102.000000,15841.000000,23467.000000,57642.000000
24084.000000,15845.000000,23400.000000,57635.000000
24086.000000,15796.000000,23366.000000,57569.000000
24082.000000,15838.000000,23414.000000,57614.000000
24066.000000,15816.000000,23379.000000,57593.000000
24058.000000,15807.000000,23380.000000,57573.000000
24021.000000,15827.000000,23298.000000,57546.000000
24024.000000,15785.000000,23362.000000,57534.000000
23961.000000,15768.000000,23313.000000,57592.000000
23991.000000,15772.000000,23365.000000,57531.000000
23918.000000,15745.000000,23259.000000,57516.000000
23933.000000,15716.000000,23245.000000,57512.000000
23889.000000,15749.000000,23240.000000,57503.000000
23897.000000,15691.000000,23210.000000,57494.000000
23838.000000,15627.000000,23141.000000,57457.000000
23796.000000,15687.000000,23142.000000,57425.000000
23736.000000,15681.000000,23093.000000,57468.000000
23785.000000,15663.000000,23057.000000,57451.000000
23787.000000,15638.000000,23087.000000,57442.000000
23716.000000,15645.000000,23052.000000,57465.000000
23771.000000,15640.000000,23058.000000,57393.000000
23712.000000,15628.000000,23059.000000,57417.000000
23765.000000,15632.000000,23035.000000,57381.000000
23728.000000,15651.000000,23060.000000,57403.000000
23737.000000,15644.000000,23062.000000,57409.000000
23737.000000,15596.000000,23058.000000,57429.000000
23769.000000,15643.000000,23054.000000,57404.000000
23830.000000,15689.000000,23097.000000,57409.000000
23847.000000,15693.000000,23162.000000,57460.000000
23839.000000,15684.000000,23154.000000,57490.000000
24080.000000,15816.000000,23388.000000,57585.000000
24119.000000,15849.000000,23418.000000,57627.000000
24158.000000,15890.000000,23469.000000,57631.000000
24429.000000,16124.000000,23737.000000,57820.000000
24483.000000,16130.000000,23812.000000,57823.000000
24553.000000,16185.000000,23829.000000,57849.000000
24564.000000,16227.000000,23843.000000,57874.000000
24548.000000,16250.000000,23867.000000,57869.000000
24565.000000,16232.000000,23883.000000,57870.000000
24572.000000,16219.000000,23847.000000,57907.000000
24612.000000,16197.000000,23888.000000,57870.000000
24610.000000,16205.000000,23861.000000,57851.000000
24571.000000,16222.000000,23864.000000,57890.000000
24550.000000,16221.000000,23855.000000,57865.000000
24634.000000,16235.000000,23871.000000,57883.000000
24560.000000,16236.000000,23897.000000,57875.000000
24579.000000,16196.000000,23849.000000,57887.000000
24621.000000,16216.000000,23876.000000,57861.000000
24556.000000,16222.000000,23843.000000,57875.000000
24555.000000,16223.000000,23860.000000,57877.000000
24548.000000,16226.000000,23865.000000,57844.000000
24551.000000,16236.000000,23851.000000,57844.000000
24548.000000,16192.000000,23813.000000,57874.000000
24511.000000,16167.000000,23850.000000,57851.000000
24490.000000,16178.000000,23791.000000,57810.000000
24499.000000,16140.000000,23791.000000,57817.000000
24486.000000,16193.000000,23767.000000,57830.000000
24482.000000,16184.000000,23782.000000,57807.000000
24415.000000,16146.000000,23728.000000,57790.000000
24470.000000,16144.000000,23749.000000,57783.000000
24408.000000,16160.000000,23706.000000,57771.000000
24378.000000,16144.000000,23693.000000,57786.000000
24367.000000,16062.000000,23690.000000,57744.000000
