660nm,730nm,850nm,940nm
25782.000000,15435.000000,22406.000000,56498.000000
25754.000000,15445.000000,22376.000000,56533.000000
25789.000000,15491.000000,22412.000000,56500.000000
25764.000000,15478.000000,22408.000000,56506.000000
25779.000000,15480.000000,22392.000000,56543.000000
25765.000000,15436.000000,22407.000000,56502.000000
25773.000000,15442.000000,22389.000000,56540.000000
25764.000000,15452.000000,22429.000000,56537.000000
25792.000000,15477.000000,22403.000000,56508.000000
25771.000000,15439.000000,22384.000000,56512.000000
25804.000000,15503.000000,22402.000000,56566.000000
25749.000000,15470.000000,22347.000000,56535.000000
25763.000000,15499.000000,22375.000000,56543.000000
25737.000000,15452.000000,22352.000000,56519.000000
25754.000000,15459.000000,22369.000000,56526.000000
25741.000000,15471.000000,22348.000000,56502.000000
25732.000000,15421.000000,22322.000000,56513.000000
25754.000000,15425.000000,22374.000000,56490.000000
25756.000000,15400.000000,22371.000000,56474.000000
25706.000000,15428.000000,22376.000000,56502.000000
25729.000000,15446.000000,22333.000000,56498.000000
25716.000000,15424.000000,22306.000000,56508.000000
25746.000000,15419.000000,22290.000000,56463.000000
25715.000000,15364.000000,22297.000000,56499.000000
25694.000000,15399.000000,22341.000000,56499.000000
25723.000000,15402.000000,22321.000000,56468.000000
25697.000000,15377.000000,22345.000000,56476.000000
25672.000000,15386.000000,22323.000000,56455.000000
25683.000000,15372.000000,22275.000000,56460.000000
25689.000000,15363.000000,22306.000000,56426.000000
25689.000000,15358.000000,22285.000000,56446.000000
25727.000000,15322.000000,22266.000000,56458.000000
25751.000000,15390.000000,22304.000000,56457.000000
25719.000000,15391.000000,22297.000000,56463.000000
25693.000000,15401.000000,22242.000000,56470.000000
25688.000000,15352.000000,22280.000000,56484.000000
25700.000000,15400.000000,22237.000000,56470.000000
25718.000000,15361.000000,22247.000000,56395.000000
25712.000000,15346.000000,22227.000000,56411.000000
25673.000000,15382.000000,22260.000000,56432.000000
25687.000000,15350.000000,22248.000000,56431.000000
25670.000000,15312.000000,22239.000000,56452.000000
25662.000000,15291.000000,22189.000000,56408.000000
25605.000000,15314.000000,22175.000000,56426.000000
25656.000000,15291.000000,22143.000000,56408.000000
25634.000000,15294.000000,22166.000000,56388.000000
25627.000000,15330.000000,22163.000000,56423.000000
25618.000000,15358.000000,22159.000000,56365.000000
25551.000000,15322.000000,22157.000000,56420.000000
25543.000000,15304.000000,22105.000000,56393.000000
25533.000000,15298.000000,22129.000000,56403.000000
25580.000000,15232.000000,22118.000000,56370.000000
25542.000000,15248.000000,22078.000000,56336.000000
25549.000000,15213.000000,22099.000000,56348.000000
25529.000000,15235.000000,22090.000000,56378.000000
25555.000000,15198.000000,22072.000000,56337.000000
25462.000000,15213.000000,22059.000000,56326.000000
25464.000000,15206.000000,22046.000000,56378.000000
25481.000000,15185.000000,22004.000000,56325.000000
25453.000000,15203.000000,22035.000000,56328.000000
25464.000000,15221.000000,21993.000000,56363.000000
25476.000000,15213.000000,21995.000000,56354.000000
25459.000000,15195.000000,22034.000000,56316.000000
25408.000000,15148.000000,21998.000000,56332.000000
25431.000000,15127.000000,21985.000000,56335.000000
25466.000000,15201.000000,21956.000000,56313.000000
25460.000000,15196.000000,21939.000000,56315.000000
25437.000000,15123.000000,21969.000000,56278.000000
25415.000000,15138.000000,21971.000000,56305.000000
25433.000000,15164.000000,21936.000000,56301.000000
25424.000000,15188.000000,21899.000000,56276.000000
25443.000000,15154.000000,21923.000000,56277.000000
25454.000000,15176.000000,21934.000000,56326.000000
25421.000000,15148.000000,21899.000000,56296.000000
25423.000000,15163.000000,21911.000000,56276.000000
25451.000000,15118.000000,21910.000000,56289.000000
25392.000000,15150.000000,21906.000000,56280.000000
25442.000000,15137.000000,21928.000000,56264.000000
25409.000000,15158.000000,21908.000000,56290.000000
25403.000000,15144.000000,21894.000000,56288.000000
25407.000000,15126.000000,21895.000000,56268.000000
25412.000000,15091.000000,21859.000000,56265.000000
25422.000000,15086.000000,21897.000000,56246.000000
25388.000000,15087.000000,21890.000000,56256.000000
25389.000000,15070.000000,21898.000000,56248.000000
25346.000000,15104.000000,21837.000000,56273.000000
25334.000000,15071.000000,21836.000000,56262.000000
25318.000000,15064.000000,21846.000000,56256.000000
25360.000000,15133.000000,21856.000000,56250.000000
25359.000000,15074.000000,21852.000000,56227.000000
25354.000000,15035.000000,21832.000000,56205.000000
25313.000000,15091.000000,21802.000000,56214.000000
25289.000000,15065.000000,21818.000000,56180.000000
25272.000000,15063.000000,21787.000000,56213.000000
25236.000000,15009.000000,21741.000000,56189.000000
25257.000000,15045.000000,21746.000000,56181.000000
25174.000000,14998.000000,21689.000000,56190.000000
25204.000000,14977.000000,21701.000000,56143.000000
25169.000000,14943.000000,21638.000000,56151.000000
25135.000000,14988.000000,21630.000000,56120.000000
25131.000000,14975.000000,21608.000000,56137.000000
25126.000000,14926.000000,21624.000000,56120.000000
25113.000000,14945.000000,21553.000000,56130.000000
25112.000000,14911.000000,21569.000000,56073.000000
25089.000000,14913.000000,21524.000000,56105.000000
25086.000000,14918.000000,21536.000000,56055.000000
25067.000000,14926.000000,21504.000000,56061.000000
25064.000000,14952.000000,21496.000000,56052.000000
25052.000000,14922.000000,21527.000000,56094.000000
25055.000000,14872.000000,21529.000000,56060.000000
25031.000000,14890.000000,21479.000000,56089.000000
25057.000000,14879.000000,21518.000000,56036.000000
25045.000000,14878.000000,21480.000000,56041.000000
25024.000000,14906.000000,21479.000000,56062.000000
25027.000000,14876.000000,21500.000000,56050.000000
25053.000000,14855.000000,21467.000000,56053.000000
25009.000000,14864.000000,21496.000000,56048.000000
25005.000000,14868.000000,21490.000000,56067.000000
25002.000000,14892.000000,21463.000000,56070.000000
24995.000000,14860.000000,21458.000000,56042.000000
25018.000000,14854.000000,21490.000000,56019.000000
25043.000000,14877.000000,21476.000000,56025.000000
25063.000000,14884.000000,21450.000000,56074.000000
25007.000000,14931.000000,21471.000000,56050.000000
25011.000000,14855.000000,21478.000000,56024.000000
25029.000000,14853.000000,21468.000000,56031.000000
25018.000000,14855.000000,21490.000000,56046.000000
24990.000000,14836.000000,21521.000000,56055.000000
24972.000000,14884.000000,21509.000000,56081.000000
24977.000000,14868.000000,21481.000000,56050.000000
24980.000000,14868.000000,21503.000000,56055.000000
25003.000000,14894.000000,21512.000000,56071.000000
25001.000000,14885.000000,21530.000000,56086.000000
25054.000000,14895.000000,21550.000000,56099.000000
25094.000000,14890.000000,21578.000000,56041.000000
25114.000000,14904.000000,21601.000000,56095.000000
25130.000000,14971.000000,21660.000000,56127.000000
25184.000000,14991.000000,21707.000000,56133.000000
25241.000000,14990.000000,21743.000000,56238.000000
25286.000000,15008.000000,21779.000000,56223.000000
25376.000000,15148.000000,21879.000000,56245.000000
25466.000000,15223.000000,21953.000000,56302.000000
25574.000000,15217.000000,22041.000000,56343.000000
25603.000000,15281.000000,22115.000000,56419.000000
25716.000000,15385.000000,22230.000000,56441.000000
25815.000000,15380.000000,22319.000000,56444.000000
25833.000000,15426.000000,22391.000000,56514.000000
25837.000000,15446.000000,22456.000000,56534.000000
25906.000000,15543.000000,22440.000000,56533.000000
25948.000000,15535.000000,22502.000000,56581.000000
25987.000000,15575.000000,22510.000000,56553.000000
26006.000000,15584.000000,22515.000000,56577.000000
25993.000000,15584.000000,22584.000000,56603.000000
26009.000000,15602.000000,22552.000000,56569.000000
25992.000000,15590.000000,22593.000000,56586.000000
25988.000000,15609.000000,22533.000000,56605.000000
25990.000000,15605.000000,22510.000000,56589.000000
25968.000000,15542.000000,22499.000000,56567.000000
25947.000000,15544.000000,22548.000000,56575.000000
25977.000000,15555.000000,22529.000000,56572.000000
25940.000000,15533.000000,22559.000000,56572.000000
25960.000000,15569.000000,22547.000000,56597.000000
25968.000000,15503.000000,22495.000000,56566.000000
25956.000000,15520.000000,22479.000000,56618.000000
25930.000000,15572.000000,22484.000000,56579.000000
25916.000000,15531.000000,22488.000000,56553.000000
25848.000000,15510.000000,22464.000000,56595.000000
25906.000000,15541.000000,22462.000000,56531.000000
25889.000000,15506.000000,22473.000000,56514.000000
25889.000000,15512.000000,22449.000000,56588.000000
25865.000000,15502.000000,22476.000000,56519.000000
25895.000000,15511.000000,22477.000000,56553.000000
25880.000000,15540.000000,22445.000000,56529.000000
25837.000000,15505.000000,22427.000000,56558.000000
25864.000000,15477.000000,22485.000000,56519.000000
25853.000000,15494.000000,22417.000000,56550.000000
25865.000000,15471.000000,22411.000000,56539.000000
25865.000000,15491.000000,22441.000000,56481.000000
25840.000000,15522.000000,22432.000000,56538.000000
25818.000000,15475.000000,22404.000000,56520.000000
25817.000000,15509.000000,22396.000000,56557.000000
25827.000000,15432.000000,22361.000000,56511.000000
25813.000000,15501.000000,22404.000000,56513.000000
25817.000000,15473.000000,22410.000000,56494.000000
25826.000000,15490.000000,22358.000000,56529.000000
25807.000000,15492.000000,22376.000000,56518.000000
25829.000000,15454.000000,22437.000000,56506.000000
25826.000000,15488.000000,22373.000000,56513.000000
25789.000000,15460.000000,22391.000000,56516.000000
25809.000000,15441.000000,22360.000000,56484.000000
25778.000000,15417.000000,22338.000000,56536.000000
25841.000000,15419.000000,22390.000000,56489.000000
25802.000000,15463.000000,22343.000000,56503.000000
25776.000000,15468.000000,22375.000000,56517.000000
25780.000000,15490.000000,22362.000000,56534.000000
25791.000000,15443.000000,22364.000000,56485.000000
25757.000000,15375.000000,22352.000000,56479.000000
25790.000000,15407.000000,22323.000000,56499.000000
25756.000000,15453.000000,22338.000000,56462.000000
25787.000000,15349.000000,22343.000000,56502.000000
25728.000000,15443.000000,22293.000000,56506.000000
25786.000000,15395.000000,22327.000000,56471.000000
25720.000000,15387.000000,22302.000000,56444.000000
25737.000000,15370.000000,22333.000000,56457.000000
25722.000000,15378.000000,22327.000000,56474.000000
25683.000000,15391.000000,22266.000000,56458.000000
25703.000000,15333.000000,22312.000000,56443.000000
25700.000000,15392.000000,22271.000000,56447.000000
25701.000000,15373.000000,22244.000000,56454.000000
25719.000000,15342.000000,22288.000000,56430.000000
25659.000000,15375.000000,22244.000000,56469.000000
25701.000000,15338.000000,22255.000000,56434.000000
25706.000000,15361.000000,22265.000000,56434.000000
25632.000000,15348.000000,22230.000000,56453.000000
25635.000000,15318.000000,22271.000000,56445.000000
25684.000000,15348.000000,22241.000000,56450.000000
25639.000000,15301.000000,22228.000000,56421.000000
25603.000000,15320.000000,22236.000000,56459.000000
25652.000000,15310.000000,22179.000000,56429.000000
25634.000000,15336.000000,22176.000000,56419.000000
25634.000000,15281.000000,22200.000000,56403.000000
25587.000000,15272.000000,22170.000000,56403.000000
25623.000000,15273.000000,22170.000000,56380.000000
25632.000000,15331.000000,22178.000000,56376.000000
25618.000000,15273.000000,22201.000000,56424.000000
25592.000000,15280.000000,22195.000000,56383.000000
25606.000000,15283.000000,22167.000000,56401.000000
25560.000000,15265.000000,22161.000000,56394.000000
25601.000000,15241.000000,22164.000000,56358.000000
25599.000000,15252.000000,22113.000000,56352.000000
25558.000000,15237.000000,22112.000000,56399.000000
25588.000000,15243.000000,22135.000000,56379.000000
25582.000000,15232.000000,22122.000000,56367.000000
25556.000000,15208.000000,22117.000000,56343.000000
25573.000000,15219.000000,22093.000000,56375.000000
25546.000000,15246.000000,22088.000000,56369.000000
25524.000000,15233.000000,22083.000000,56331.000000
25542.000000,15256.000000,22040.000000,56326.000000
25565.000000,15197.000000,22019.000000,56365.000000
25533.000000,15174.000000,22022.000000,56355.000000
25491.000000,15188.000000,22068.000000,56319.000000
25463.000000,15191.000000,22010.000000,56347.000000
25463.000000,15188.000000,21996.000000,56332.000000
25448.000000,15154.000000,21986.000000,56291.000000
25417.000000,15159.000000,21976.000000,56292.000000
25417.000000,15177.000000,21969.000000,56308.000000
25426.000000,15153.000000,21990.000000,56267.000000
25408.000000,15194.000000,21977.000000,56313.000000
25378.000000,15125.000000,21957.000000,56287.000000
25383.000000,15129.000000,21936.000000,56273.000000
25366.000000,15098.000000,21939.000000,56251.000000
25338.000000,15091.000000,21891.000000,56296.000000
25325.000000,15056.000000,21925.000000,56231.000000
25345.000000,15082.000000,21893.000000,56218.000000
25306.000000,15084.000000,21897.000000,56240.000000
25284.000000,15086.000000,21893.000000,56195.000000
25282.000000,15084.000000,21862.000000,56204.000000
25277.000000,15017.000000,21846.000000,56243.000000
25244.000000,15083.000000,21825.000000,56244.000000
25260.000000,15003.000000,21833.000000,56214.000000
25218.000000,15015.000000,21842.000000,56215.000000
25261.000000,15059.000000,21819.000000,56216.000000
25269.000000,14992.000000,21826.000000,56217.000000
25222.000000,15052.000000,21797.000000,56216.000000
25288.000000,15020.000000,21778.000000,56136.000000
25212.000000,15023.000000,21764.000000,56217.000000
25245.000000,15002.000000,21798.000000,56188.000000
25237.000000,15041.000000,21778.000000,56210.000000
25214.000000,15028.000000,21768.000000,56217.000000
25223.000000,15026.000000,21769.000000,56143.000000
25242.000000,15000.000000,21734.000000,56202.000000
25210.000000,15015.000000,21746.000000,56175.000000
25257.000000,15006.000000,21782.000000,56152.000000
25198.000000,15048.000000,21726.000000,56168.000000
25196.000000,14973.000000,21717.000000,56206.000000
25211.000000,14999.000000,21706.000000,56190.000000
25178.000000,14949.000000,21742.000000,56149.000000
25176.000000,14946.000000,21722.000000,56134.000000
25188.000000,14960.000000,21679.000000,56182.000000
25211.000000,14985.000000,21680.000000,56151.000000
25129.000000,14926.000000,21667.000000,56146.000000
25077.000000,14925.000000,21622.000000,56099.000000
25104.000000,14880.000000,21629.000000,56092.000000
25062.000000,14916.000000,21587.000000,56114.000000
25038.000000,14942.000000,21579.000000,56059.000000
25032.000000,14873.000000,21569.000000,56033.000000
25006.000000,14875.000000,21519.000000,56078.000000
25000.000000,14803.000000,21525.000000,56083.000000
24934.000000,14856.000000,21483.000000,56050.000000
24906.000000,14793.000000,21459.000000,56016.000000
24921.000000,14813.000000,21441.000000,56003.000000
24939.000000,14748.000000,21427.000000,55981.000000
24854.000000,14772.000000,21414.000000,56005.000000
24883.000000,14790.000000,21401.000000,56008.000000
24880.000000,14791.000000,21359.000000,56004.000000
24876.000000,14777.000000,21370.000000,55948.000000
24877.000000,14746.000000,21366.000000,55983.000000
24884.000000,14743.000000,21359.000000,55937.000000
24832.000000,14755.000000,21321.000000,55969.000000
24872.000000,14767.000000,21352.000000,55934.000000
24869.000000,14786.000000,21340.000000,55960.000000
24861.000000,14753.000000,21322.000000,55985.000000
24864.000000,14768.000000,21378.000000,55990.000000
24852.000000,14764.000000,21363.000000,55958.000000
24832.000000,14756.000000,21320.000000,55938.000000
24840.000000,14749.000000,21303.000000,55941.000000
24818.000000,14750.000000,21306.000000,55947.000000
24858.000000,14725.000000,21388.000000,55945.000000
24854.000000,14717.000000,21338.000000,55965.000000
24817.000000,14776.000000,21308.000000,55971.000000
24834.000000,14757.000000,21275.000000,55957.000000
24797.000000,14732.000000,21327.000000,55927.000000
24834.000000,14741.000000,21340.000000,55949.000000
24854.000000,14756.000000,21315.000000,55941.000000
24830.000000,14754.000000,21292.000000,55923.000000
24820.000000,14775.000000,21317.000000,55978.000000
24862.000000,14754.000000,21333.000000,55982.000000
24813.000000,14756.000000,21347.000000,55961.000000
24851.000000,14748.000000,21357.000000,55971.000000
24878.000000,14759.000000,21366.000000,55983.000000
24882.000000,14751.000000,21320.000000,56002.000000
24922.000000,14765.000000,21427.000000,56034.000000
24937.000000,14815.000000,21439.000000,55984.000000
24971.000000,14862.000000,21441.000000,55995.000000
25020.000000,14851.000000,21525.000000,56044.000000
25062.000000,14882.000000,21583.000000,56078.000000
25122.000000,14954.000000,21575.000000,56137.000000
25136.000000,14926.000000,21672.000000,56153.000000
25233.000000,14981.000000,21710.000000,56200.000000
25270.000000,15044.000000,21798.000000,56204.000000
25428.000000,15069.000000,21923.000000,56244.000000
25499.000000,15134.000000,21995.000000,56312.000000
25586.000000,15275.000000,22069.000000,56359.000000
25650.000000,15297.000000,22114.000000,56425.000000
25670.000000,15362.000000,22258.000000,56401.000000
25741.000000,15359.000000,22293.000000,56473.000000
25776.000000,15440.000000,22368.000000,56536.000000
25853.000000,15433.000000,22373.000000,56544.000000
25880.000000,15470.000000,22379.000000,56480.000000
25921.000000,15513.000000,22420.000000,56501.000000
25925.000000,15478.000000,22427.000000,56528.000000
25879.000000,15516.000000,22433.000000,56569.000000
25890.000000,15468.000000,22431.000000,56535.000000
25900.000000,15506.000000,22368.000000,56544.000000
25881.000000,15459.000000,22394.000000,56490.000000
25872.000000,15501.000000,22401.000000,56531.000000
25920.000000,15529.000000,22429.000000,56503.000000
25918.000000,15467.000000,22425.000000,56522.000000
25906.000000,15500.000000,22414.000000,56529.000000
25926.000000,15500.000000,22456.000000,56516.000000
25888.000000,15485.000000,22375.000000,56522.000000
25897.000000,15433.000000,22414.000000,56512.000000
25927.000000,15499.000000,22370.000000,56551.000000
25921.000000,15506.000000,22396.000000,56522.000000
25882.000000,15497.000000,22389.000000,56531.000000
25908.000000,15529.000000,22404.000000,56509.000000
25896.000000,15484.000000,22419.000000,56516.000000
25888.000000,15444.000000,22396.000000,56493.000000
25850.000000,15490.000000,22351.000000,56499.000000
25908.000000,15460.000000,22368.000000,56502.000000
25906.000000,15475.000000,22393.000000,56534.000000
25930.000000,15509.000000,22377.000000,56541.000000
25910.000000,15468.000000,22359.000000,56535.000000
25914.000000,15446.000000,22338.000000,56501.000000
25902.000000,15454.000000,22396.000000,56529.000000
25860.000000,15428.000000,22354.000000,56507.000000
25852.000000,15466.000000,22326.000000,56533.000000
25898.000000,15465.000000,22327.000000,56505.000000
25853.000000,15441.000000,22322.000000,56522.000000
25860.000000,15470.000000,22369.000000,56483.000000
25879.000000,15455.000000,22345.000000,56456.000000
25815.000000,15484.000000,22348.000000,56510.000000
25845.000000,15451.000000,22343.000000,56515.000000
25808.000000,15446.000000,22314.000000,56488.000000
25807.000000,15376.000000,22331.000000,56487.000000
25827.000000,15429.000000,22303.000000,56480.000000
25819.000000,15372.000000,22315.000000,56483.000000
25791.000000,15379.000000,22332.000000,56452.000000
25799.000000,15381.000000,22309.000000,56428.000000
25790.000000,15400.000000,22282.000000,56490.000000
25756.000000,15402.000000,22285.000000,56459.000000
25757.000000,15405.000000,22284.000000,56455.000000
25730.000000,15381.000000,22288.000000,56457.000000
25769.000000,15410.000000,22249.000000,56439.000000
25733.000000,15362.000000,22260.000000,56462.000000
25758.000000,15386.000000,22293.000000,56452.000000
25748.000000,15355.000000,22262.000000,56454.000000
25708.000000,15356.000000,22250.000000,56457.000000
25692.000000,15377.000000,22213.000000,56443.000000
25709.000000,15390.000000,22214.000000,56429.000000
25742.000000,15375.000000,22252.000000,56423.000000
25734.000000,15334.000000,22223.000000,56435.000000
25708.000000,15399.000000,22202.000000,56453.000000
25698.000000,15277.000000,22213.000000,56410.000000
25721.000000,15281.000000,22184.000000,56417.000000
25671.000000,15303.000000,22178.000000,56466.000000
25697.000000,15292.000000,22153.000000,56377.000000
25682.000000,15314.000000,22145.000000,56409.000000
25688.000000,15257.000000,22125.000000,56403.000000
25670.000000,15302.000000,22087.000000,56388.000000
25646.000000,15311.000000,22088.000000,56407.000000
25667.000000,15305.000000,22072.000000,56390.000000
25639.000000,15274.000000,22119.000000,56381.000000
25649.000000,15268.000000,22137.000000,56337.000000
25663.000000,15234.000000,22102.000000,56349.000000
25661.000000,15253.000000,22052.000000,56385.000000
25599.000000,15235.000000,22047.000000,56381.000000
25625.000000,15273.000000,22088.000000,56366.000000
25626.000000,15254.000000,22060.000000,56336.000000
25661.000000,15252.000000,22051.000000,56397.000000
25657.000000,15219.000000,22073.000000,56320.000000
25590.000000,15212.000000,22032.000000,56377.000000
25607.000000,15241.000000,22090.000000,56380.000000
25623.000000,15250.000000,22049.000000,56354.000000
25614.000000,15248.000000,22036.000000,56295.000000
25625.000000,15241.000000,22046.000000,56328.000000
25588.000000,15216.000000,22020.000000,56348.000000
25581.000000,15244.000000,22016.000000,56359.000000
25573.000000,15218.000000,22026.000000,56295.000000
25565.000000,15184.000000,22006.000000,56344.000000
25542.000000,15206.000000,21964.000000,56344.000000
25539.000000,15166.000000,21979.000000,56322.000000
25553.000000,15142.000000,21960.000000,56311.000000
25566.000000,15163.000000,21966.000000,56280.000000
25487.000000,15176.000000,21931.000000,56268.000000
25495.000000,15166.000000,21951.000000,56305.000000
25501.000000,15147.000000,21933.000000,56247.000000
25475.000000,15159.000000,21958.000000,56269.000000
25452.000000,15078.000000,21924.000000,56292.000000
25444.000000,15142.000000,21900.000000,56278.000000
25463.000000,15127.000000,21888.000000,56282.000000
25473.000000,15100.000000,21882.000000,56246.000000
25475.000000,15092.000000,21886.000000,56243.000000
25463.000000,15089.000000,21860.000000,56235.000000
25409.000000,15106.000000,21850.000000,56272.000000
25395.000000,15066.000000,21861.000000,56217.000000
25378.000000,15076.000000,21834.000000,56191.000000
25335.000000,15081.000000,21790.000000,56229.000000
25325.000000,15043.000000,21814.000000,56235.000000
25309.000000,15028.000000,21780.000000,56231.000000
25325.000000,15052.000000,21774.000000,56218.000000
25343.000000,15062.000000,21773.000000,56216.000000
25341.000000,15014.000000,21769.000000,56193.000000
25297.000000,15045.000000,21752.000000,56219.000000
25339.000000,15067.000000,21720.000000,56217.000000
25261.000000,15053.000000,21744.000000,56202.000000
25294.000000,15014.000000,21688.000000,56165.000000
25327.000000,14975.000000,21730.000000,56186.000000
25291.000000,14976.000000,21720.000000,56186.000000
25257.000000,14956.000000,21702.000000,56186.000000
25211.000000,14993.000000,21671.000000,56181.000000
25220.000000,15003.000000,21680.000000,56161.000000
25286.000000,14975.000000,21682.000000,56119.000000
25217.000000,14972.000000,21672.000000,56134.000000
25226.000000,14974.000000,21668.000000,56120.000000
25195.000000,14964.000000,21650.000000,56147.000000
25180.000000,14953.000000,21637.000000,56147.000000
25167.000000,14975.000000,21609.000000,56140.000000
25153.000000,14913.000000,21640.000000,56099.000000
25151.000000,14959.000000,21575.000000,56156.000000
25160.000000,14924.000000,21574.000000,56108.000000
25175.000000,14927.000000,21590.000000,56086.000000
25173.000000,14906.000000,21566.000000,56128.000000
25135.000000,14895.000000,21556.000000,56072.000000
25133.000000,14905.000000,21563.000000,56117.000000
25130.000000,14928.000000,21548.000000,56090.000000
25134.000000,14896.000000,21508.000000,56085.000000
25096.000000,14894.000000,21519.000000,56087.000000
25103.000000,14851.000000,21520.000000,56050.000000
25051.000000,14855.000000,21462.000000,56070.000000
25052.000000,14849.000000,21475.000000,56015.000000
25052.000000,14805.000000,21415.000000,55963.000000
24992.000000,14835.000000,21363.000000,55970.000000
25006.000000,14795.000000,21388.000000,55965.000000
25023.000000,14760.000000,21356.000000,56001.000000
24993.000000,14773.000000,21364.000000,55983.000000
24992.000000,14756.000000,21304.000000,55958.000000
24959.000000,14746.000000,21317.000000,55940.000000
24941.000000,14724.000000,21289.000000,55934.000000
24934.000000,14720.000000,21252.000000,55942.000000
24940.000000,14752.000000,21293.000000,55961.000000
24874.000000,14720.000000,21277.000000,55932.000000
24872.000000,14690.000000,21220.000000,55945.000000
24879.000000,14704.000000,21251.000000,55888.000000
24880.000000,14692.000000,21205.000000,55915.000000
24877.000000,14677.000000,21276.000000,55892.000000
24855.000000,14695.000000,21263.000000,55885.000000
24882.000000,14717.000000,21209.000000,55883.000000
24877.000000,14675.000000,21229.000000,55889.000000
24855.000000,14716.000000,21215.000000,55870.000000
24838.000000,14678.000000,21215.000000,55890.000000
24852.000000,14665.000000,21230.000000,55880.000000
24845.000000,14640.000000,21250.000000,55861.000000
24812.000000,14718.000000,21197.000000,55914.000000
24828.000000,14657.000000,21238.000000,55864.000000
24800.000000,14673.000000,21209.000000,55875.000000
24853.000000,14660.000000,21221.000000,55844.000000
24793.000000,14643.000000,21163.000000,55879.000000
24832.000000,14673.000000,21225.000000,55894.000000
24807.000000,14635.000000,21190.000000,55860.000000
24807.000000,14623.000000,21192.000000,55875.000000
24801.000000,14618.000000,21236.000000,55877.000000
24839.000000,14645.000000,21180.000000,55876.000000
24827.000000,14673.000000,21242.000000,55889.000000
24833.000000,14667.000000,21208.000000,55923.000000
24840.000000,14664.000000,21249.000000,55902.000000
24893.000000,14742.000000,21220.000000,55913.000000
24901.000000,14708.000000,21251.000000,55955.000000
24901.000000,14726.000000,21314.000000,55935.000000
24918.000000,14770.000000,21361.000000,55940.000000
24978.000000,14796.000000,21347.000000,55998.000000
24983.000000,14820.000000,21425.000000,56014.000000
25065.000000,14848.000000,21437.000000,56026.000000
25119.000000,14879.000000,21548.000000,56099.000000
25207.000000,14924.000000,21602.000000,56105.000000
25283.000000,14955.000000,21660.000000,56144.000000
25382.000000,15001.000000,21788.000000,56174.000000
25428.000000,15077.000000,21824.000000,56229.000000
25538.000000,15106.000000,21937.000000,56282.000000
25607.000000,15208.000000,22045.000000,56306.000000
25664.000000,15234.000000,22109.000000,56369.000000
25744.000000,15317.000000,22172.000000,56415.000000
25821.000000,15335.000000,22237.000000,56436.000000
25843.000000,15414.000000,22268.000000,56475.000000
25908.000000,15467.000000,22310.000000,56490.000000
25925.000000,15474.000000,22376.000000,56479.000000
25968.000000,15502.000000,22373.000000,56511.000000
26004.000000,15519.000000,22359.000000,56507.000000
26008.000000,15517.000000,22389.000000,56546.000000
25969.000000,15519.000000,22384.000000,56549.000000
25954.000000,15438.000000,22401.000000,56526.000000
25991.000000,15531.000000,22357.000000,56534.000000
25997.000000,15508.000000,22381.000000,56509.000000
25940.000000,15488.000000,22347.000000,56511.000000
26002.000000,15488.000000,22363.000000,56482.000000
25961.000000,15477.000000,22338.000000,56541.000000
25980.000000,15461.000000,22366.000000,56489.000000
26015.000000,15491.000000,22370.000000,56470.000000
25944.000000,15485.000000,22351.000000,56494.000000
25960.000000,15435.000000,22306.000000,56478.000000
25917.000000,15399.000000,22333.000000,56487.000000
25899.000000,15438.000000,22342.000000,56477.000000
25896.000000,15424.000000,22335.000000,56485.000000
25885.000000,15425.000000,22335.000000,56457.000000
25891.000000,15408.000000,22309.000000,56471.000000
25899.000000,15459.000000,22328.000000,56455.000000
25900.000000,15469.000000,22313.000000,56480.000000
25875.000000,15468.000000,22322.000000,56499.000000
25871.000000,15478.000000,22312.000000,56471.000000
25896.000000,15410.000000,22324.000000,56457.000000
25891.000000,15469.000000,22337.000000,56467.000000
25854.000000,15449.000000,22316.000000,56441.000000
25888.000000,15442.000000,22302.000000,56502.000000
25895.000000,15438.000000,22297.000000,56477.000000
25935.000000,15418.000000,22259.000000,56497.000000
25923.000000,15432.000000,22312.000000,56461.000000
25882.000000,15388.000000,22299.000000,56472.000000
25889.000000,15424.000000,22263.000000,56489.000000
25862.000000,15398.000000,22234.000000,56481.000000
25848.000000,15394.000000,22262.000000,56463.000000
25888.000000,15405.000000,22270.000000,56429.000000
25851.000000,15363.000000,22255.000000,56393.000000
25884.000000,15413.000000,22261.000000,56449.000000
25901.000000,15434.000000,22238.000000,56411.000000
25855.000000,15400.000000,22202.000000,56441.000000
25860.000000,15390.000000,22253.000000,56432.000000
25789.000000,15354.000000,22250.000000,56418.000000
25822.000000,15391.000000,22247.000000,56460.000000
25818.000000,15390.000000,22189.000000,56466.000000
25787.000000,15305.000000,22241.000000,56413.000000
25775.000000,15324.000000,22176.000000,56447.000000
25774.000000,15320.000000,22190.000000,56391.000000
25770.000000,15304.000000,22157.000000,56421.000000
25764.000000,15351.000000,22176.000000,56381.000000
25774.000000,15290.000000,22166.000000,56356.000000
25724.000000,15297.000000,22156.000000,56365.000000
25748.000000,15298.000000,22146.000000,56377.000000
25764.000000,15313.000000,22143.000000,56384.000000
25735.000000,15273.000000,22123.000000,56408.000000
25723.000000,15282.000000,22141.000000,56361.000000
25726.000000,15326.000000,22133.000000,56364.000000
25733.000000,15252.000000,22128.000000,56392.000000
25724.000000,15293.000000,22130.000000,56344.000000
25695.000000,15260.000000,22078.000000,56367.000000
25712.000000,15304.000000,22093.000000,56358.000000
25677.000000,15306.000000,22074.000000,56414.000000
25684.000000,15258.000000,22118.000000,56351.000000
25695.000000,15223.000000,22091.000000,56361.000000
25644.000000,15273.000000,22118.000000,56335.000000
25690.000000,15315.000000,22058.000000,56354.000000
25673.000000,15239.000000,22033.000000,56353.000000
25669.000000,15238.000000,22087.000000,56343.000000
25669.000000,15243.000000,22057.000000,56350.000000
25622.000000,15239.000000,22046.000000,56355.000000
25636.000000,15192.000000,22010.000000,56349.000000
25610.000000,15210.000000,22010.000000,56316.000000
25601.000000,15205.000000,22010.000000,56309.000000
25585.000000,15146.000000,22009.000000,56334.000000
25597.000000,15155.000000,21973.000000,56320.000000
25543.000000,15162.000000,21958.000000,56290.000000
25578.000000,15174.000000,21942.000000,56295.000000
25527.000000,15139.000000,21964.000000,56267.000000
25575.000000,15131.000000,21937.000000,56282.000000
25543.000000,15161.000000,21930.000000,56249.000000
25528.000000,15151.000000,21945.000000,56253.000000
25531.000000,15108.000000,21918.000000,56251.000000
25576.000000,15147.000000,21925.000000,56272.000000
25534.000000,15087.000000,21907.000000,56251.000000
25537.000000,15164.000000,21877.000000,56286.000000
25500.000000,15112.000000,21902.000000,56249.000000
25500.000000,15122.000000,21866.000000,56255.000000
25469.000000,15088.000000,21854.000000,56267.000000
25473.000000,15088.000000,21835.000000,56220.000000
25428.000000,15079.000000,21836.000000,56209.000000
25479.000000,15067.000000,21833.000000,56214.000000
25525.000000,15060.000000,21822.000000,56215.000000
25471.000000,15031.000000,21800.000000,56195.000000
25464.000000,15107.000000,21788.000000,56194.000000
25475.000000,15047.000000,21802.000000,56194.000000
25451.000000,15019.000000,21790.000000,56217.000000
25415.000000,15054.000000,21758.000000,56184.000000
25367.000000,15023.000000,21708.000000,56164.000000
25396.000000,15039.000000,21704.000000,56165.000000
25396.000000,14994.000000,21748.000000,56159.000000
25332.000000,14997.000000,21740.000000,56161.000000
25380.000000,14995.000000,21677.000000,56105.000000
25377.000000,15000.000000,21688.000000,56147.000000
25387.000000,15020.000000,21701.000000,56137.000000
25389.000000,15002.000000,21671.000000,56120.000000
25378.000000,14969.000000,21672.000000,56148.000000
25357.000000,14992.000000,21665.000000,56159.000000
25348.000000,14971.000000,21649.000000,56148.000000
25281.000000,14946.000000,21635.000000,56158.000000
25306.000000,14974.000000,21605.000000,56126.000000
25275.000000,14950.000000,21615.000000,56117.000000
25288.000000,14936.000000,21632.000000,56086.000000
25264.000000,14952.000000,21600.000000,56108.000000
25253.000000,14957.000000,21583.000000,56075.000000
25309.000000,14928.000000,21546.000000,56075.000000
25218.000000,14946.000000,21574.000000,56118.000000
25263.000000,14913.000000,21563.000000,56065.000000
25199.000000,14942.000000,21547.000000,56073.000000
25251.000000,14959.000000,21514.000000,56095.000000
25224.000000,14903.000000,21553.000000,56066.000000
25226.000000,14914.000000,21570.000000,56091.000000
25236.000000,14947.000000,21521.000000,56047.000000
25219.000000,14905.000000,21525.000000,56083.000000
25238.000000,14918.000000,21479.000000,56068.000000
25216.000000,14859.000000,21466.000000,56028.000000
25208.000000,14899.000000,21482.000000,56073.000000
25177.000000,14877.000000,21491.000000,56040.000000
25205.000000,14901.000000,21458.000000,56011.000000
25169.000000,14873.000000,21404.000000,56061.000000
25155.000000,14883.000000,21402.000000,56035.000000
25195.000000,14814.000000,21365.000000,56020.000000
25104.000000,14855.000000,21365.000000,56024.000000
25151.000000,14815.000000,21404.000000,56012.000000
25137.000000,14826.000000,21318.000000,55972.000000
25114.000000,14783.000000,21338.000000,55973.000000
25072.000000,14821.000000,21253.000000,55998.000000
25050.000000,14773.000000,21271.000000,55934.000000
25015.000000,14755.000000,21255.000000,55916.000000
24975.000000,14754.000000,21225.000000,55932.000000
24976.000000,14764.000000,21180.000000,55916.000000
24946.000000,14739.000000,21181.000000,55869.000000
24972.000000,14675.000000,21216.000000,55891.000000
24961.000000,14728.000000,21178.000000,55865.000000
24928.000000,14678.000000,21166.000000,55891.000000
24916.000000,14672.000000,21206.000000,55867.000000
24923.000000,14702.000000,21103.000000,55894.000000
24914.000000,14723.000000,21127.000000,55875.000000
24924.000000,14706.000000,21084.000000,55862.000000
24916.000000,14694.000000,21091.000000,55831.000000
24946.000000,14705.000000,21134.000000,55856.000000
24940.000000,14718.000000,21095.000000,55871.000000
24939.000000,14649.000000,21163.000000,55837.000000
25004.000000,14678.000000,21128.000000,55843.000000
24964.000000,14696.000000,21159.000000,55861.000000
25009.000000,14733.000000,21165.000000,55901.000000
25032.000000,14664.000000,21149.000000,55884.000000
24994.000000,14706.000000,21143.000000,55902.000000
25041.000000,14731.000000,21189.000000,55927.000000
24996.000000,14688.000000,21166.000000,55887.000000
25006.000000,14727.000000,21178.000000,55877.000000
24996.000000,14722.000000,21130.000000,55917.000000
24964.000000,14717.000000,21129.000000,55926.000000
25035.000000,14705.000000,21160.000000,55932.000000
25009.000000,14726.000000,21158.000000,55967.000000
25038.000000,14743.000000,21177.000000,55954.000000
25046.000000,14757.000000,21214.000000,55926.000000
25077.000000,14800.000000,21197.000000,55946.000000
25137.000000,14801.000000,21219.000000,55932.000000
25150.000000,14807.000000,21286.000000,55955.000000
25212.000000,14849.000000,21293.000000,55979.000000
25222.000000,14839.000000,21285.000000,55991.000000
25257.000000,14887.000000,21342.000000,56014.000000
25276.000000,14875.000000,21378.000000,55993.000000
25311.000000,14896.000000,21419.000000,56028.000000
25376.000000,14919.000000,21496.000000,56049.000000
25388.000000,14923.000000,21531.000000,56105.000000
25431.000000,14962.000000,21606.000000,56118.000000
25473.000000,15045.000000,21621.000000,56165.000000
25544.000000,15077.000000,21734.000000,56199.000000
25630.000000,15111.000000,21754.000000,56229.000000
25666.000000,15139.000000,21867.000000,56252.000000
25735.000000,15225.000000,21897.000000,56297.000000
25756.000000,15255.000000,22013.000000,56338.000000
25845.000000,15321.000000,22119.000000,56389.000000
25945.000000,15365.000000,22164.000000,56386.000000
25989.000000,15450.000000,22204.000000,56480.000000
26047.000000,15435.000000,22232.000000,56436.000000
26028.000000,15494.000000,22277.000000,56468.000000
26055.000000,15483.000000,22355.000000,56524.000000
26048.000000,15516.000000,22283.000000,56503.000000
26062.000000,15555.000000,22336.000000,56506.000000
26080.000000,15540.000000,22301.000000,56528.000000
26138.000000,15567.000000,22327.000000,56518.000000
26124.000000,15572.000000,22326.000000,56509.000000
26057.000000,15542.000000,22338.000000,56546.000000
26082.000000,15500.000000,22346.000000,56540.000000
26155.000000,15524.000000,22360.000000,56531.000000
26111.000000,15524.000000,22326.000000,56484.000000
26127.000000,15548.000000,22321.000000,56473.000000
26117.000000,15478.000000,22354.000000,56504.000000
26095.000000,15542.000000,22280.000000,56535.000000
26111.000000,15529.000000,22294.000000,56485.000000
26088.000000,15503.000000,22301.000000,56524.000000
26089.000000,15500.000000,22342.000000,56517.000000
26100.000000,15488.000000,22299.000000,56495.000000
26086.000000,15511.000000,22306.000000,56488.000000
26057.000000,15550.000000,22306.000000,56457.000000
25973.000000,15465.000000,22267.000000,56488.000000
26043.000000,15460.000000,22305.000000,56468.000000
26056.000000,15463.000000,22270.000000,56493.000000
26055.000000,15485.000000,22227.000000,56480.000000
25994.000000,15481.000000,22246.000000,56506.000000
26014.000000,15483.000000,22255.000000,56465.000000
26034.000000,15447.000000,22245.000000,56438.000000
26026.000000,15427.000000,22246.000000,56421.000000
26005.000000,15413.000000,22253.000000,56434.000000
25997.000000,15494.000000,22251.000000,56462.000000
25977.000000,15473.000000,22255.000000,56442.000000
25984.000000,15434.000000,22240.000000,56444.000000
25970.000000,15448.000000,22226.000000,56483.000000
25968.000000,15437.000000,22257.000000,56423.000000
25956.000000,15425.000000,22215.000000,56425.000000
25930.000000,15370.000000,22204.000000,56424.000000
25930.000000,15442.000000,22167.000000,56444.000000
25928.000000,15331.000000,22199.000000,56436.000000
25921.000000,15410.000000,22198.000000,56440.000000
25902.000000,15334.000000,22182.000000,56413.000000
25912.000000,15371.000000,22167.000000,56392.000000
25907.000000,15419.000000,22134.000000,56391.000000
25904.000000,15383.000000,22167.000000,56414.000000
25885.000000,15328.000000,22143.000000,56408.000000
25932.000000,15343.000000,22132.000000,56379.000000
25877.000000,15402.000000,22131.000000,56398.000000
25871.000000,15349.000000,22136.000000,56390.000000
25825.000000,15381.000000,22135.000000,56415.000000
25848.000000,15364.000000,22101.000000,56402.000000
25834.000000,15368.000000,22093.000000,56389.000000
25815.000000,15281.000000,22094.000000,56407.000000
25817.000000,15353.000000,22074.000000,56373.000000
25784.000000,15350.000000,22119.000000,56370.000000
25806.000000,15347.000000,22062.000000,56359.000000
25795.000000,15319.000000,22082.000000,56396.000000
25754.000000,15281.000000,22056.000000,56341.000000
25717.000000,15243.000000,22053.000000,56314.000000
25758.000000,15226.000000,22059.000000,56317.000000
25735.000000,15239.000000,22030.000000,56323.000000
25700.000000,15224.000000,22016.000000,56321.000000
25677.000000,15221.000000,21981.000000,56311.000000
25703.000000,15221.000000,21978.000000,56324.000000
25644.000000,15200.000000,21990.000000,56293.000000
25690.000000,15224.000000,21946.000000,56286.000000
25646.000000,15224.000000,21920.000000,56305.000000
25610.000000,15228.000000,21957.000000,56327.000000
25630.000000,15203.000000,21946.000000,56306.000000
25632.000000,15170.000000,21957.000000,56261.000000
25646.000000,15171.000000,21878.000000,56264.000000
25630.000000,15176.000000,21919.000000,56273.000000
25625.000000,15171.000000,21874.000000,56265.000000
25610.000000,15154.000000,21889.000000,56287.000000
25637.000000,15203.000000,21905.000000,56249.000000
25635.000000,15195.000000,21901.000000,56259.000000
25625.000000,15149.000000,21898.000000,56287.000000
25623.000000,15153.000000,21874.000000,56251.000000
25602.000000,15116.000000,21830.000000,56266.000000
25598.000000,15146.000000,21821.000000,56252.000000
25564.000000,15129.000000,21803.000000,56233.000000
25616.000000,15150.000000,21841.000000,56239.000000
25600.000000,15144.000000,21785.000000,56208.000000
25618.000000,15169.000000,21787.000000,56233.000000
25543.000000,15144.000000,21776.000000,56231.000000
25633.000000,15108.000000,21806.000000,56225.000000
25622.000000,15145.000000,21761.000000,56200.000000
25579.000000,15084.000000,21756.000000,56219.000000
25564.000000,15083.000000,21765.000000,56217.000000
25536.000000,15070.000000,21767.000000,56231.000000
25564.000000,15070.000000,21749.000000,56171.000000
25509.000000,15077.000000,21731.000000,56167.000000
25486.000000,15052.000000,21736.000000,56162.000000
25535.000000,15055.000000,21691.000000,56196.000000
25465.000000,15025.000000,21687.000000,56184.000000
25517.000000,15025.000000,21664.000000,56145.000000
25482.000000,15037.000000,21646.000000,56157.000000
25501.000000,15043.000000,21685.000000,56160.000000
25468.000000,15005.000000,21643.000000,56148.000000
25472.000000,15016.000000,21641.000000,56143.000000
25472.000000,15031.000000,21598.000000,56168.000000
25400.000000,14993.000000,21641.000000,56181.000000
25415.000000,14997.000000,21591.000000,56165.000000
25437.000000,14968.000000,21599.000000,56132.000000
25435.000000,14973.000000,21596.000000,56165.000000
25377.000000,14950.000000,21579.000000,56134.000000
25381.000000,14966.000000,21568.000000,56116.000000
25371.000000,14994.000000,21539.000000,56108.000000
25405.000000,14952.000000,21582.000000,56093.000000
25371.000000,14975.000000,21516.000000,56071.000000
25382.000000,14950.000000,21527.000000,56091.000000
25352.000000,14971.000000,21526.000000,56102.000000
25332.000000,14952.000000,21520.000000,56052.000000
25353.000000,14960.000000,21508.000000,56058.000000
25339.000000,14927.000000,21527.000000,56051.000000
25314.000000,14932.000000,21496.000000,56101.000000
25318.000000,14957.000000,21539.000000,56042.000000
25273.000000,14917.000000,21528.000000,56050.000000
25322.000000,14909.000000,21528.000000,56068.000000
25275.000000,14937.000000,21511.000000,56032.000000
25313.000000,14940.000000,21485.000000,56064.000000
25269.000000,14930.000000,21447.000000,56032.000000
25248.000000,14863.000000,21442.000000,56016.000000
25241.000000,14888.000000,21428.000000,56028.000000
25220.000000,14871.000000,21376.000000,56007.000000
25232.000000,14855.000000,21397.000000,56013.000000
25193.000000,14852.000000,21377.000000,55994.000000
25162.000000,14833.000000,21367.000000,55973.000000
25131.000000,14840.000000,21322.000000,55961.000000
25148.000000,14875.000000,21302.000000,55955.000000
25107.000000,14772.000000,21286.000000,55959.000000
25089.000000,14818.000000,21244.000000,55944.000000
25110.000000,14764.000000,21244.000000,55938.000000
25027.000000,14784.000000,21217.000000,55937.000000
25046.000000,14726.000000,21184.000000,55873.000000
25010.000000,14728.000000,21188.000000,55909.000000
25016.000000,14733.000000,21129.000000,55923.000000
24989.000000,14689.000000,21112.000000,55852.000000
24998.000000,14700.000000,21145.000000,55854.000000
24951.000000,14713.000000,21152.000000,55843.000000
24963.000000,14655.000000,21130.000000,55841.000000
24976.000000,14704.000000,21066.000000,55874.000000
24925.000000,14710.000000,21101.000000,55866.000000
24949.000000,14699.000000,21099.000000,55823.000000
24937.000000,14650.000000,21074.000000,55830.000000
24948.000000,14683.000000,21104.000000,55865.000000
24932.000000,14671.000000,21087.000000,55855.000000
24956.000000,14680.000000,21069.000000,55875.000000
24956.000000,14688.000000,21092.000000,55856.000000
24958.000000,14672.000000,21070.000000,55860.000000
24964.000000,14673.000000,21100.000000,55842.000000
25007.000000,14655.000000,21104.000000,55837.000000
24939.000000,14686.000000,21105.000000,55864.000000
25000.000000,14668.000000,21104.000000,55874.000000
24986.000000,14707.000000,21103.000000,55887.000000
24986.000000,14743.000000,21125.000000,55879.000000
25010.000000,14684.000000,21099.000000,55899.000000
25042.000000,14755.000000,21147.000000,55898.000000
24991.000000,14720.000000,21119.000000,55902.000000
25053.000000,14726.000000,21149.000000,55901.000000
25126.000000,14756.000000,21112.000000,55929.000000
25077.000000,14721.000000,21183.000000,55916.000000
25125.000000,14763.000000,21203.000000,55938.000000
25096.000000,14761.000000,21221.000000,55927.000000
25104.000000,14793.000000,21213.000000,55915.000000
25163.000000,14785.000000,21290.000000,55920.000000
25164.000000,14855.000000,21262.000000,55969.000000
25220.000000,14828.000000,21295.000000,55996.000000
25215.000000,14852.000000,21328.000000,56023.000000
25278.000000,14892.000000,21369.000000,55998.000000
25338.000000,14874.000000,21445.000000,56032.000000
25347.000000,14959.000000,21472.000000,56020.000000
25403.000000,14964.000000,21530.000000,56096.000000
25446.000000,15042.000000,21574.000000,56159.000000
25559.000000,15037.000000,21618.000000,56159.000000
25614.000000,15109.000000,21740.000000,56215.000000
25678.000000,15141.000000,21808.000000,56261.000000
25756.000000,15194.000000,21879.000000,56292.000000
25846.000000,15252.000000,21981.000000,56369.000000
25952.000000,15314.000000,22043.000000,56382.000000
25975.000000,15370.000000,22156.000000,56414.000000
26085.000000,15458.000000,22237.000000,56452.000000
26172.000000,15475.000000,22300.000000,56519.000000
26197.000000,15564.000000,22347.000000,56545.000000
26287.000000,15548.000000,22387.000000,56547.000000
26296.000000,15588.000000,22421.000000,56568.000000
26330.000000,15638.000000,22462.000000,56584.000000
26349.000000,15639.000000,22451.000000,56579.000000
26320.000000,15649.000000,22459.000000,56579.000000
26341.000000,15638.000000,22482.000000,56567.000000
26357.000000,15626.000000,22501.000000,56590.000000
26372.000000,15604.000000,22529.000000,56578.000000
26367.000000,15668.000000,22492.000000,56587.000000
26343.000000,15665.000000,22478.000000,56596.000000
26346.000000,15642.000000,22508.000000,56594.000000
26349.000000,15648.000000,22474.000000,56569.000000
26328.000000,15628.000000,22443.000000,56598.000000
26346.000000,15640.000000,22460.000000,56595.000000
26349.000000,15617.000000,22465.000000,56575.000000
26325.000000,15642.000000,22468.000000,56610.000000
26315.000000,15668.000000,22437.000000,56583.000000
26296.000000,15648.000000,22463.000000,56575.000000
26286.000000,15631.000000,22435.000000,56579.000000
26319.000000,15615.000000,22419.000000,56570.000000
26309.000000,15599.000000,22413.000000,56547.000000
26288.000000,15591.000000,22434.000000,56563.000000
26288.000000,15619.000000,22397.000000,56550.000000
26291.000000,15616.000000,22360.000000,56598.000000
26320.000000,15610.000000,22376.000000,56589.000000
26287.000000,15580.000000,22391.000000,56520.000000
26284.000000,15635.000000,22409.000000,56573.000000
26254.000000,15618.000000,22420.000000,56585.000000
26269.000000,15616.000000,22380.000000,56600.000000
26297.000000,15609.000000,22397.000000,56537.000000
26282.000000,15553.000000,22390.000000,56536.000000
26286.000000,15574.000000,22388.000000,56546.000000
26288.000000,15574.000000,22402.000000,56530.000000
26276.000000,15588.000000,22302.000000,56546.000000
26293.000000,15586.000000,22374.000000,56527.000000
26284.000000,15588.000000,22372.000000,56535.000000
26266.000000,15519.000000,22358.000000,56536.000000
26233.000000,15564.000000,22364.000000,56540.000000
26248.000000,15556.000000,22368.000000,56554.000000
26230.000000,15540.000000,22374.000000,56575.000000
26185.000000,15574.000000,22362.000000,56552.000000
26214.000000,15558.000000,22322.000000,56537.000000
26173.000000,15563.000000,22335.000000,56560.000000
26184.000000,15556.000000,22350.000000,56523.000000
26178.000000,15527.000000,22308.000000,56502.000000
26186.000000,15547.000000,22322.000000,56529.000000
26144.000000,15547.000000,22289.000000,56470.000000
26130.000000,15542.000000,22282.000000,56510.000000
26120.000000,15496.000000,22342.000000,56512.000000
26106.000000,15447.000000,22306.000000,56455.000000
26111.000000,15488.000000,22290.000000,56533.000000
26095.000000,15534.000000,22288.000000,56478.000000
26075.000000,15479.000000,22282.000000,56447.000000
26054.000000,15506.000000,22255.000000,56479.000000
26070.000000,15497.000000,22236.000000,56457.000000
26064.000000,15494.000000,22244.000000,56478.000000
26013.000000,15479.000000,22203.000000,56496.000000
26016.000000,15485.000000,22244.000000,56472.000000
26074.000000,15452.000000,22237.000000,56433.000000
26043.000000,15449.000000,22185.000000,56422.000000
25972.000000,15426.000000,22203.000000,56475.000000
25969.000000,15407.000000,22189.000000,56445.000000
26004.000000,15390.000000,22189.000000,56466.000000
26000.000000,15451.000000,22191.000000,56433.000000
25972.000000,15375.000000,22139.000000,56416.000000
25962.000000,15406.000000,22141.000000,56421.000000
25923.000000,15383.000000,22141.000000,56429.000000
25964.000000,15392.000000,22155.000000,56390.000000
25949.000000,15404.000000,22165.000000,56421.000000
25975.000000,15381.000000,22140.000000,56368.000000
25906.000000,15377.000000,22110.000000,56425.000000
25923.000000,15350.000000,22121.000000,56419.000000
25897.000000,15362.000000,22111.000000,56396.000000
25894.000000,15349.000000,22104.000000,56391.000000
25959.000000,15387.000000,22042.000000,56398.000000
25924.000000,15325.000000,22060.000000,56340.000000
25939.000000,15352.000000,22074.000000,56359.000000
25868.000000,15357.000000,22055.000000,56379.000000
25902.000000,15358.000000,22090.000000,56351.000000
25911.000000,15386.000000,22044.000000,56358.000000
25873.000000,15334.000000,22002.000000,56409.000000
25854.000000,15319.000000,22011.000000,56367.000000
25874.000000,15297.000000,22025.000000,56354.000000
25855.000000,15302.000000,22002.000000,56348.000000
25829.000000,15268.000000,21976.000000,56356.000000
25814.000000,15290.000000,22007.000000,56336.000000
25792.000000,15274.000000,21934.000000,56331.000000
25816.000000,15246.000000,21935.000000,56313.000000
25812.000000,15245.000000,21967.000000,56329.000000
25768.000000,15214.000000,21964.000000,56303.000000
25748.000000,15230.000000,21931.000000,56322.000000
25744.000000,15240.000000,21920.000000,56283.000000
25775.000000,15265.000000,21936.000000,56263.000000
25704.000000,15231.000000,21908.000000,56267.000000
25727.000000,15228.000000,21889.000000,56240.000000
25711.000000,15195.000000,21884.000000,56290.000000
25702.000000,15196.000000,21838.000000,56255.000000
25685.000000,15164.000000,21842.000000,56233.000000
25653.000000,15193.000000,21835.000000,56234.000000
25621.000000,15152.000000,21795.000000,56251.000000
25659.000000,15139.000000,21800.000000,56207.000000
25576.000000,15091.000000,21777.000000,56231.000000
25604.000000,15127.000000,21791.000000,56228.000000
25604.000000,15128.000000,21749.000000,56216.000000
25593.000000,15130.000000,21781.000000,56191.000000
25541.000000,15091.000000,21765.000000,56188.000000
25535.000000,15103.000000,21728.000000,56189.000000
25549.000000,15096.000000,21696.000000,56225.000000
25533.000000,15080.000000,21727.000000,56214.000000
25493.000000,15093.000000,21676.000000,56224.000000
25543.000000,15037.000000,21680.000000,56166.000000
25500.000000,15063.000000,21703.000000,56197.000000
25520.000000,15042.000000,21716.000000,56157.000000
25504.000000,15043.000000,21666.000000,56183.000000
25539.000000,15067.000000,21649.000000,56126.000000
25495.000000,15051.000000,21616.000000,56158.000000
25474.000000,15061.000000,21636.000000,56137.000000
25494.000000,15069.000000,21596.000000,56166.000000
25483.000000,15043.000000,21648.000000,56128.000000
25504.000000,15038.000000,21664.000000,56135.000000
25495.000000,15062.000000,21612.000000,56159.000000
25498.000000,15033.000000,21603.000000,56152.000000
25492.000000,15011.000000,21618.000000,56102.000000
25484.000000,14974.000000,21604.000000,56130.000000
25442.000000,15003.000000,21568.000000,56146.000000
25395.000000,14936.000000,21559.000000,56123.000000
25390.000000,14957.000000,21507.000000,56053.000000
25328.000000,14959.000000,21493.000000,56036.000000
25331.000000,14908.000000,21473.000000,56012.000000
25334.000000,14903.000000,21464.000000,56023.000000
25281.000000,14892.000000,21361.000000,56002.000000
25195.000000,14883.000000,21377.000000,55979.000000
25220.000000,14881.000000,21299.000000,55965.000000
25139.000000,14829.000000,21302.000000,55984.000000
25183.000000,14824.000000,21299.000000,55926.000000
25157.000000,14825.000000,21236.000000,55934.000000
25125.000000,14786.000000,21252.000000,55941.000000
25129.000000,14783.000000,21243.000000,55979.000000
25112.000000,14768.000000,21211.000000,55927.000000
25102.000000,14779.000000,21285.000000,55914.000000
25150.000000,14815.000000,21209.000000,55905.000000
25098.000000,14789.000000,21239.000000,55950.000000
25144.000000,14796.000000,21206.000000,55938.000000
25201.000000,14798.000000,21201.000000,55900.000000
25141.000000,14812.000000,21247.000000,55915.000000
25170.000000,14813.000000,21229.000000,55946.000000
25140.000000,14814.000000,21229.000000,55928.000000
25206.000000,14866.000000,21249.000000,55949.000000
25216.000000,14852.000000,21258.000000,55959.000000
25239.000000,14816.000000,21283.000000,55974.000000
25258.000000,14843.000000,21304.000000,55936.000000
25295.000000,14860.000000,21275.000000,55946.000000
25309.000000,14855.000000,21316.000000,55952.000000
25347.000000,14897.000000,21279.000000,55981.000000
25329.000000,14878.000000,21347.000000,56009.000000
25335.000000,14892.000000,21299.000000,56013.000000
25361.000000,14918.000000,21372.000000,56000.000000
25346.000000,14920.000000,21342.000000,56048.000000
25390.000000,14943.000000,21363.000000,56018.000000
25353.000000,14914.000000,21361.000000,56059.000000
25356.000000,14918.000000,21382.000000,56064.000000
25396.000000,14946.000000,21396.000000,56057.000000
25430.000000,14934.000000,21439.000000,56049.000000
25411.000000,14965.000000,21467.000000,56060.000000
25467.000000,14956.000000,21498.000000,56051.000000
25492.000000,14992.000000,21540.000000,56089.000000
25557.000000,15011.000000,21540.000000,56066.000000
25585.000000,15032.000000,21590.000000,56125.000000
25619.000000,15069.000000,21626.000000,56164.000000
25670.000000,15092.000000,21692.000000,56189.000000
25713.000000,15128.000000,21714.000000,56191.000000
25753.000000,15220.000000,21796.000000,56230.000000
25810.000000,15217.000000,21892.000000,56276.000000
25886.000000,15285.000000,21971.000000,56316.000000
25992.000000,15328.000000,22012.000000,56341.000000
26068.000000,15362.000000,22075.000000,56405.000000
26159.000000,15490.000000,22189.000000,56438.000000
26229.000000,15582.000000,22267.000000,56510.000000
26317.000000,15564.000000,22367.000000,56579.000000
26418.000000,15663.000000,22434.000000,56585.000000
26453.000000,15664.000000,22474.000000,56599.000000
26465.000000,15757.000000,22534.000000,56677.000000
26544.000000,15725.000000,22604.000000,56627.000000
26563.000000,15751.000000,22608.000000,56642.000000
26551.000000,15777.000000,22666.000000,56676.000000
26585.000000,15824.000000,22610.000000,56678.000000
26615.000000,15787.000000,22645.000000,56686.000000
26601.000000,15805.000000,22671.000000,56695.000000
26652.000000,15788.000000,22650.000000,56678.000000
26621.000000,15820.000000,22677.000000,56703.000000
26633.000000,15871.000000,22686.000000,56717.000000
26625.000000,15798.000000,22681.000000,56677.000000
26610.000000,15792.000000,22646.000000,56708.000000
26595.000000,15805.000000,22689.000000,56711.000000
26615.000000,15810.000000,22661.000000,56697.000000
26587.000000,15820.000000,22624.000000,56709.000000
26600.000000,15805.000000,22634.000000,56699.000000
26601.000000,15781.000000,22645.000000,56697.000000
26572.000000,15790.000000,22628.000000,56714.000000
26554.000000,15811.000000,22662.000000,56673.000000
26545.000000,15834.000000,22625.000000,56699.000000
26539.000000,15764.000000,22617.000000,56697.000000
26510.000000,15771.000000,22599.000000,56667.000000
26498.000000,15791.000000,22612.000000,56634.000000
26521.000000,15741.000000,22609.000000,56665.000000
26471.000000,15749.000000,22571.000000,56665.000000
26443.000000,15751.000000,22539.000000,56659.000000
26455.000000,15739.000000,22572.000000,56633.000000
26435.000000,15746.000000,22545.000000,56665.000000
26420.000000,15700.000000,22590.000000,56622.000000
26377.000000,15713.000000,22576.000000,56603.000000
26404.000000,15701.000000,22563.000000,56641.000000
26371.000000,15703.000000,22549.000000,56595.000000
26373.000000,15669.000000,22565.000000,56621.000000
26351.000000,15690.000000,22533.000000,56593.000000
26343.000000,15684.000000,22478.000000,56612.000000
26383.000000,15666.000000,22515.000000,56638.000000
26329.000000,15668.000000,22491.000000,56595.000000
26327.000000,15668.000000,22498.000000,56576.000000
26316.000000,15676.000000,22482.000000,56638.000000
26340.000000,15691.000000,22480.000000,56586.000000
26301.000000,15671.000000,22455.000000,56563.000000
26301.000000,15666.000000,22447.000000,56622.000000
26296.000000,15683.000000,22443.000000,56612.000000
26326.000000,15653.000000,22448.000000,56573.000000
26277.000000,15631.000000,22489.000000,56541.000000
26281.000000,15644.000000,22468.000000,56576.000000
26273.000000,15642.000000,22462.000000,56580.000000
26253.000000,15637.000000,22460.000000,56581.000000
26262.000000,15616.000000,22441.000000,56575.000000
26271.000000,15640.000000,22439.000000,56527.000000
26234.000000,15594.000000,22349.000000,56573.000000
26238.000000,15632.000000,22428.000000,56575.000000
26276.000000,15641.000000,22386.000000,56571.000000
26271.000000,15611.000000,22374.000000,56596.000000
26231.000000,15603.000000,22415.000000,56553.000000
26226.000000,15602.000000,22394.000000,56560.000000
26201.000000,15586.000000,22390.000000,56532.000000
26252.000000,15613.000000,22355.000000,56545.000000
26224.000000,15613.000000,22361.000000,56528.000000
26223.000000,15595.000000,22402.000000,56525.000000
26214.000000,15566.000000,22351.000000,56513.000000
26225.000000,15553.000000,22319.000000,56526.000000
26176.000000,15575.000000,22354.000000,56519.000000
26203.000000,15596.000000,22354.000000,56487.000000
26132.000000,15534.000000,22334.000000,56540.000000
26122.000000,15555.000000,22326.000000,56496.000000
26121.000000,15530.000000,22321.000000,56479.000000
26110.000000,15534.000000,22308.000000,56524.000000
26090.000000,15498.000000,22289.000000,56473.000000
26057.000000,15527.000000,22266.000000,56487.000000
26102.000000,15474.000000,22267.000000,56434.000000
26027.000000,15487.000000,22264.000000,56468.000000
26033.000000,15523.000000,22214.000000,56450.000000
26035.000000,15503.000000,22235.000000,56450.000000
26009.000000,15450.000000,22217.000000,56430.000000
26004.000000,15441.000000,22211.000000,56440.000000
26039.000000,15500.000000,22212.000000,56445.000000
25993.000000,15434.000000,22187.000000,56457.000000
25919.000000,15445.000000,22177.000000,56457.000000
25972.000000,15422.000000,22131.000000,56446.000000
25916.000000,15415.000000,22148.000000,56397.000000
25942.000000,15380.000000,22157.000000,56385.000000
25910.000000,15433.000000,22113.000000,56392.000000
25897.000000,15423.000000,22084.000000,56411.000000
25919.000000,15381.000000,22120.000000,56396.000000
25905.000000,15413.000000,22061.000000,56425.000000
25872.000000,15393.000000,22105.000000,56391.000000
25879.000000,15371.000000,22072.000000,56404.000000
25951.000000,15360.000000,22047.000000,56365.000000
25904.000000,15326.000000,22051.000000,56363.000000
25877.000000,15363.000000,22072.000000,56406.000000
25882.000000,15416.000000,22049.000000,56386.000000
25896.000000,15386.000000,22035.000000,56383.000000
25852.000000,15342.000000,22059.000000,56358.000000
25884.000000,15344.000000,22039.000000,56313.000000
25869.000000,15343.000000,22021.000000,56368.000000
25859.000000,15303.000000,22029.000000,56395.000000
25831.000000,15354.000000,21966.000000,56344.000000
25826.000000,15315.000000,21943.000000,56311.000000
25835.000000,15278.000000,21989.000000,56309.000000
25810.000000,15270.000000,21977.000000,56278.000000
25806.000000,15292.000000,21995.000000,56299.000000
25807.000000,15315.000000,21979.000000,56279.000000
25788.000000,15265.000000,21937.000000,56313.000000
25742.000000,15268.000000,21920.000000,56305.000000
25731.000000,15229.000000,21926.000000,56278.000000
25756.000000,15229.000000,21912.000000,56291.000000
25745.000000,15234.000000,21898.000000,56285.000000
25743.000000,15215.000000,21902.000000,56244.000000
25715.000000,15223.000000,21896.000000,56221.000000
25715.000000,15213.000000,21904.000000,56269.000000
25695.000000,15247.000000,21869.000000,56262.000000
25684.000000,15236.000000,21848.000000,56283.000000
25643.000000,15222.000000,21852.000000,56267.000000
25708.000000,15206.000000,21845.000000,56241.000000
25641.000000,15176.000000,21849.000000,56234.000000
25675.000000,15211.000000,21840.000000,56232.000000
25671.000000,15176.000000,21795.000000,56249.000000
25671.000000,15216.000000,21793.000000,56240.000000
25647.000000,15167.000000,21803.000000,56223.000000
25671.000000,15154.000000,21766.000000,56199.000000
25633.000000,15166.000000,21751.000000,56207.000000
25663.000000,15180.000000,21789.000000,56197.000000
25595.000000,15122.000000,21713.000000,56219.000000
25564.000000,15118.000000,21686.000000,56228.000000
25555.000000,15123.000000,21661.000000,56198.000000
25541.000000,15110.000000,21648.000000,56187.000000
25554.000000,15053.000000,21633.000000,56116.000000
25535.000000,15080.000000,21636.000000,56116.000000
25522.000000,15020.000000,21597.000000,56140.000000
25441.000000,15027.000000,21588.000000,56139.000000
25480.000000,15029.000000,21551.000000,56076.000000
25434.000000,15012.000000,21535.000000,56073.000000
25414.000000,15023.000000,21508.000000,56108.000000
25409.000000,15007.000000,21483.000000,56084.000000
25365.000000,14960.000000,21446.000000,56053.000000
25324.000000,14971.000000,21436.000000,56042.000000
25359.000000,14973.000000,21449.000000,56052.000000
25314.000000,14962.000000,21405.000000,56023.000000
25305.000000,14980.000000,21428.000000,56045.000000
25309.000000,14934.000000,21477.000000,56035.000000
25333.000000,14924.000000,21469.000000,56039.000000
25283.000000,14953.000000,21466.000000,56062.000000
25318.000000,14959.000000,21470.000000,56024.000000
25341.000000,14931.000000,21477.000000,56034.000000
25387.000000,14954.000000,21454.000000,56026.000000
25300.000000,14960.000000,21466.000000,56058.000000
25314.000000,14963.000000,21487.000000,56030.000000
25326.000000,14972.000000,21451.000000,56049.000000
25320.000000,14979.000000,21460.000000,56103.000000
25314.000000,14958.000000,21481.000000,56084.000000
25364.000000,14963.000000,21479.000000,56028.000000
25331.000000,14983.000000,21481.000000,56082.000000
25322.000000,14981.000000,21512.000000,56066.000000
25377.000000,14996.000000,21505.000000,56046.000000
25395.000000,15024.000000,21534.000000,56099.000000
25449.000000,15018.000000,21547.000000,56091.000000
25427.000000,15031.000000,21543.000000,56094.000000
25496.000000,15070.000000,21583.000000,56134.000000
25493.000000,15038.000000,21646.000000,56121.000000
25463.000000,15064.000000,21622.000000,56167.000000
25539.000000,15098.000000,21665.000000,56199.000000
25537.000000,15162.000000,21705.000000,56136.000000
25606.000000,15121.000000,21742.000000,56175.000000
25632.000000,15146.000000,21827.000000,56260.000000
25680.000000,15217.000000,21834.000000,56255.000000
25728.000000,15215.000000,21884.000000,56278.000000
25790.000000,15329.000000,21947.000000,56363.000000
25856.000000,15308.000000,22037.000000,56304.000000
25914.000000,15371.000000,22094.000000,56399.000000
25952.000000,15437.000000,22199.000000,56427.000000
26045.000000,15525.000000,22299.000000,56480.000000
26110.000000,15577.000000,22363.000000,56506.000000
26194.000000,15642.000000,22422.000000,56543.000000
26265.000000,15671.000000,22500.000000,56592.000000
26278.000000,15703.000000,22547.000000,56585.000000
26374.000000,15707.000000,22600.000000,56621.000000
26448.000000,15799.000000,22626.000000,56649.000000
26468.000000,15782.000000,22693.000000,56651.000000
26474.000000,15862.000000,22697.000000,56726.000000
26482.000000,15858.000000,22726.000000,56716.000000
26537.000000,15807.000000,22795.000000,56739.000000
26535.000000,15840.000000,22774.000000,56681.000000
26519.000000,15869.000000,22755.000000,56703.000000
26561.000000,15846.000000,22808.000000,56724.000000
26542.000000,15856.000000,22749.000000,56748.000000
26550.000000,15877.000000,22788.000000,56686.000000
26520.000000,15896.000000,22783.000000,56707.000000
26507.000000,15868.000000,22755.000000,56738.000000
26503.000000,15853.000000,22775.000000,56718.000000
26546.000000,15852.000000,22779.000000,56702.000000
26499.000000,15855.000000,22742.000000,56725.000000
26519.000000,15837.000000,22724.000000,56707.000000
26512.000000,15868.000000,22724.000000,56715.000000
26515.000000,15838.000000,22757.000000,56676.000000
26491.000000,15837.000000,22750.000000,56734.000000
26480.000000,15867.000000,22729.000000,56668.000000
26488.000000,15855.000000,22737.000000,56747.000000
26448.000000,15831.000000,22723.000000,56713.000000
26508.000000,15849.000000,22764.000000,56729.000000
26457.000000,15817.000000,22725.000000,56680.000000
26472.000000,15867.000000,22742.000000,56702.000000
26486.000000,15806.000000,22715.000000,56693.000000
26463.000000,15781.000000,22709.000000,56757.000000
26471.000000,15809.000000,22718.000000,56689.000000
26414.000000,15795.000000,22703.000000,56687.000000
26450.000000,15826.000000,22736.000000,56702.000000
26405.000000,15814.000000,22710.000000,56653.000000
26393.000000,15765.000000,22728.000000,56669.000000
26358.000000,15791.000000,22731.000000,56671.000000
26404.000000,15760.000000,22681.000000,56669.000000
26343.000000,15781.000000,22697.000000,56631.000000
26297.000000,15779.000000,22677.000000,56680.000000
26362.000000,15782.000000,22660.000000,56668.000000
26348.000000,15778.000000,22636.000000,56641.000000
26330.000000,15744.000000,22667.000000,56610.000000
26326.000000,15759.000000,22653.000000,56624.000000
26305.000000,15723.000000,22660.000000,56681.000000
26333.000000,15776.000000,22615.000000,56644.000000
26289.000000,15761.000000,22641.000000,56602.000000
26318.000000,15771.000000,22658.000000,56632.000000
26308.000000,15761.000000,22652.000000,56657.000000
26267.000000,15749.000000,22624.000000,56641.000000
26280.000000,15754.000000,22575.000000,56624.000000
26323.000000,15732.000000,22621.000000,56613.000000
26294.000000,15727.000000,22613.000000,56623.000000
26297.000000,15729.000000,22628.000000,56604.000000
26302.000000,15723.000000,22632.000000,56585.000000
26287.000000,15746.000000,22601.000000,56617.000000
26299.000000,15769.000000,22576.000000,56615.000000
26329.000000,15746.000000,22613.000000,56595.000000
26298.000000,15698.000000,22578.000000,56602.000000
26298.000000,15716.000000,22588.000000,56569.000000
26262.000000,15738.000000,22540.000000,56633.000000
26282.000000,15711.000000,22545.000000,56597.000000
26295.000000,15693.000000,22559.000000,56603.000000
26260.000000,15690.000000,22556.000000,56612.000000
26238.000000,15707.000000,22555.000000,56608.000000
26216.000000,15697.000000,22517.000000,56587.000000
26246.000000,15666.000000,22580.000000,56617.000000
26246.000000,15685.000000,22556.000000,56555.000000
26169.000000,15673.000000,22442.000000,56609.000000
26188.000000,15677.000000,22480.000000,56559.000000
26200.000000,15653.000000,22470.000000,56533.000000
26162.000000,15649.000000,22437.000000,56588.000000
26137.000000,15631.000000,22454.000000,56577.000000
26104.000000,15661.000000,22412.000000,56528.000000
26153.000000,15600.000000,22450.000000,56533.000000
26092.000000,15642.000000,22374.000000,56567.000000
26131.000000,15641.000000,22415.000000,56530.000000
26140.000000,15621.000000,22372.000000,56536.000000
26143.000000,15619.000000,22395.000000,56514.000000
26144.000000,15617.000000,22355.000000,56501.000000
26129.000000,15604.000000,22317.000000,56531.000000
26132.000000,15615.000000,22349.000000,56517.000000
26131.000000,15608.000000,22350.000000,56508.000000
26141.000000,15599.000000,22350.000000,56509.000000
26088.000000,15540.000000,22353.000000,56503.000000
26114.000000,15587.000000,22343.000000,56491.000000
26104.000000,15583.000000,22298.000000,56463.000000
26037.000000,15579.000000,22328.000000,56509.000000
26077.000000,15560.000000,22280.000000,56499.000000
26068.000000,15532.000000,22265.000000,56517.000000
26014.000000,15550.000000,22245.000000,56469.000000
26039.000000,15478.000000,22257.000000,56480.000000
25966.000000,15498.000000,22255.000000,56450.000000
26009.000000,15527.000000,22220.000000,56460.000000
25945.000000,15476.000000,22184.000000,56445.000000
25954.000000,15500.000000,22193.000000,56434.000000
25941.000000,15470.000000,22185.000000,56397.000000
25925.000000,15451.000000,22185.000000,56408.000000
25915.000000,15504.000000,22154.000000,56409.000000
25878.000000,15424.000000,22135.000000,56357.000000
25852.000000,15422.000000,22090.000000,56410.000000
25895.000000,15411.000000,22135.000000,56365.000000
25865.000000,15422.000000,22038.000000,56367.000000
25832.000000,15423.000000,22047.000000,56387.000000
25864.000000,15425.000000,22048.000000,56340.000000
25836.000000,15394.000000,22029.000000,56330.000000
25855.000000,15335.000000,21991.000000,56339.000000
25824.000000,15413.000000,22034.000000,56378.000000
25837.000000,15374.000000,22018.000000,56367.000000
25824.000000,15314.000000,21982.000000,56308.000000
25795.000000,15373.000000,21969.000000,56337.000000
25808.000000,15366.000000,22005.000000,56348.000000
25802.000000,15313.000000,21987.000000,56294.000000
25755.000000,15328.000000,21983.000000,56338.000000
25744.000000,15370.000000,21983.000000,56315.000000
25758.000000,15329.000000,21960.000000,56312.000000
25758.000000,15285.000000,21975.000000,56323.000000
25742.000000,15327.000000,21896.000000,56302.000000
25732.000000,15279.000000,21907.000000,56293.000000
25746.000000,15266.000000,21942.000000,56262.000000
25696.000000,15273.000000,21859.000000,56246.000000
25682.000000,15263.000000,21892.000000,56237.000000
25722.000000,15234.000000,21818.000000,56282.000000
25686.000000,15235.000000,21816.000000,56256.000000
25713.000000,15281.000000,21799.000000,56234.000000
25641.000000,15206.000000,21788.000000,56220.000000
25641.000000,15171.000000,21816.000000,56215.000000
25657.000000,15194.000000,21770.000000,56151.000000
25615.000000,15136.000000,21688.000000,56213.000000
25594.000000,15194.000000,21715.000000,56208.000000
25614.000000,15150.000000,21671.000000,56170.000000
25562.000000,15146.000000,21638.000000,56186.000000
25604.000000,15143.000000,21643.000000,56139.000000
25598.000000,15116.000000,21609.000000,56130.000000
25605.000000,15149.000000,21598.000000,56172.000000
25595.000000,15106.000000,21633.000000,56124.000000
25538.000000,15157.000000,21603.000000,56130.000000
25565.000000,15118.000000,21613.000000,56112.000000
25568.000000,15123.000000,21617.000000,56115.000000
25572.000000,15111.000000,21600.000000,56117.000000
25570.000000,15119.000000,21575.000000,56152.000000
25549.000000,15137.000000,21535.000000,56141.000000
25543.000000,15110.000000,21571.000000,56169.000000
25558.000000,15146.000000,21598.000000,56113.000000
25586.000000,15119.000000,21632.000000,56133.000000
25589.000000,15136.000000,21605.000000,56133.000000
25609.000000,15140.000000,21643.000000,56132.000000
25594.000000,15161.000000,21592.000000,56187.000000
25627.000000,15177.000000,21656.000000,56184.000000
25639.000000,15171.000000,21637.000000,56137.000000
25634.000000,15158.000000,21667.000000,56166.000000
25666.000000,15144.000000,21659.000000,56192.000000
25679.000000,15212.000000,21664.000000,56205.000000
25693.000000,15217.000000,21708.000000,56192.000000
25710.000000,15213.000000,21750.000000,56214.000000
25712.000000,15241.000000,21717.000000,56217.000000
25742.000000,15229.000000,21731.000000,56242.000000
25777.000000,15299.000000,21792.000000,56214.000000
25792.000000,15226.000000,21812.000000,56240.000000
25793.000000,15297.000000,21824.000000,56232.000000
25800.000000,15296.000000,21852.000000,56247.000000
25846.000000,15334.000000,21877.000000,56312.000000
25896.000000,15353.000000,21943.000000,56299.000000
25897.000000,15400.000000,21967.000000,56336.000000
26002.000000,15417.000000,22017.000000,56340.000000
26029.000000,15464.000000,22076.000000,56373.000000
26051.000000,15497.000000,22082.000000,56423.000000
26164.000000,15498.000000,22181.000000,56450.000000
26207.000000,15576.000000,22248.000000,56454.000000
26250.000000,15627.000000,22286.000000,56562.000000
26285.000000,15682.000000,22407.000000,56567.000000
26387.000000,15701.000000,22483.000000,56557.000000
26473.000000,15768.000000,22555.000000,56647.000000
26529.000000,15818.000000,22609.000000,56671.000000
26602.000000,15839.000000,22670.000000,56705.000000
26618.000000,15855.000000,22754.000000,56722.000000
26694.000000,15958.000000,22787.000000,56773.000000
26748.000000,15999.000000,22839.000000,56769.000000
26814.000000,16022.000000,22917.000000,56796.000000
26845.000000,16055.000000,22931.000000,56824.000000
26864.000000,16055.000000,22972.000000,56831.000000
26876.000000,16124.000000,23013.000000,56850.000000
26924.000000,16091.000000,23015.000000,56852.000000
26924.000000,16087.000000,22997.000000,56857.000000
26962.000000,16112.000000,23034.000000,56870.000000
26961.000000,16103.000000,22995.000000,56860.000000
26891.000000,16144.000000,22983.000000,56877.000000
26994.000000,16118.000000,23048.000000,56848.000000
26893.000000,16122.000000,23020.000000,56859.000000
26871.000000,16127.000000,23001.000000,56859.000000
26905.000000,16132.000000,22995.000000,56846.000000
26843.000000,16096.000000,22991.000000,56846.000000
26884.000000,16125.000000,22999.000000,56856.000000
26902.000000,16108.000000,22956.000000,56801.000000
26878.000000,16140.000000,22964.000000,56832.000000
26879.000000,16122.000000,22971.000000,56839.000000
26877.000000,16071.000000,22946.000000,56835.000000
26854.000000,16085.000000,22961.000000,56860.000000
26916.000000,16086.000000,22972.000000,56855.000000
26882.000000,16097.000000,22955.000000,56842.000000
26838.000000,16095.000000,22922.000000,56846.000000
26868.000000,16071.000000,22954.000000,56843.000000
26859.000000,16056.000000,22959.000000,56827.000000
26856.000000,16091.000000,22956.000000,56766.000000
26856.000000,16082.000000,22931.000000,56798.000000
26833.000000,16044.000000,22926.000000,56806.000000
26851.000000,16070.000000,22897.000000,56828.000000
26775.000000,16059.000000,22882.000000,56808.000000
26787.000000,16019.000000,22893.000000,56809.000000
26791.000000,16067.000000,22865.000000,56801.000000
26777.000000,16041.000000,22883.000000,56798.000000
26784.000000,15974.000000,22880.000000,56753.000000
26751.000000,16049.000000,22865.000000,56805.000000
26749.000000,16035.000000,22834.000000,56776.000000
26749.000000,15999.000000,22862.000000,56792.000000
26756.000000,16024.000000,22853.000000,56767.000000
26709.000000,15999.000000,22870.000000,56775.000000
26719.000000,15974.000000,22849.000000,56753.000000
26747.000000,16028.000000,22816.000000,56788.000000
26745.000000,15953.000000,22854.000000,56740.000000
26688.000000,15949.000000,22853.000000,56747.000000
26737.000000,16006.000000,22803.000000,56775.000000
26716.000000,15957.000000,22792.000000,56737.000000
26713.000000,16011.000000,22845.000000,56767.000000
26744.000000,15988.000000,22851.000000,56749.000000
26733.000000,15972.000000,22807.000000,56777.000000
26735.000000,15985.000000,22811.000000,56800.000000
26759.000000,16025.000000,22774.000000,56776.000000
26752.000000,15970.000000,22793.000000,56761.000000
26741.000000,15999.000000,22783.000000,56750.000000
26709.000000,15955.000000,22798.000000,56752.000000
26745.000000,15970.000000,22822.000000,56741.000000
26673.000000,15953.000000,22749.000000,56791.000000
26704.000000,15986.000000,22766.000000,56736.000000
26682.000000,15969.000000,22764.000000,56800.000000
26677.000000,15956.000000,22744.000000,56759.000000
26653.000000,15934.000000,22764.000000,56747.000000
26648.000000,15938.000000,22743.000000,56737.000000
26656.000000,15920.000000,22771.000000,56738.000000
26694.000000,15940.000000,22738.000000,56740.000000
26668.000000,15955.000000,22743.000000,56726.000000
26667.000000,15965.000000,22716.000000,56706.000000
26646.000000,15954.000000,22684.000000,56716.000000
26622.000000,15945.000000,22749.000000,56714.000000
26618.000000,15907.000000,22722.000000,56720.000000
26651.000000,15886.000000,22661.000000,56716.000000
26590.000000,15907.000000,22690.000000,56729.000000
26587.000000,15905.000000,22685.000000,56683.000000
26542.000000,15893.000000,22645.000000,56690.000000
26548.000000,15914.000000,22607.000000,56662.000000
26522.000000,15841.000000,22640.000000,56694.000000
26523.000000,15887.000000,22612.000000,56665.000000
26570.000000,15858.000000,22651.000000,56629.000000
26537.000000,15812.000000,22623.000000,56666.000000
26510.000000,15868.000000,22629.000000,56642.000000
26509.000000,15775.000000,22595.000000,56606.000000
26525.000000,15831.000000,22601.000000,56627.000000
26503.000000,15825.000000,22571.000000,56581.000000
26488.000000,15789.000000,22601.000000,56632.000000
26473.000000,15788.000000,22550.000000,56651.000000
26412.000000,15766.000000,22523.000000,56664.000000
26461.000000,15783.000000,22516.000000,56630.000000
26415.000000,15767.000000,22551.000000,56636.000000
26434.000000,15774.000000,22504.000000,56608.000000
26408.000000,15754.000000,22475.000000,56580.000000
26408.000000,15743.000000,22517.000000,56586.000000
26390.000000,15760.000000,22462.000000,56590.000000
26390.000000,15731.000000,22464.000000,56606.000000
26378.000000,15754.000000,22459.000000,56603.000000
26388.000000,15740.000000,22421.000000,56583.000000
26363.000000,15726.000000,22439.000000,56609.000000
26368.000000,15719.000000,22453.000000,56579.000000
26323.000000,15730.000000,22428.000000,56538.000000
26346.000000,15692.000000,22412.000000,56565.000000
26317.000000,15690.000000,22389.000000,56575.000000
26380.000000,15695.000000,22425.000000,56535.000000
26324.000000,15676.000000,22375.000000,56523.000000
26305.000000,15717.000000,22388.000000,56541.000000
26271.000000,15679.000000,22353.000000,56539.000000
26291.000000,15621.000000,22325.000000,56576.000000
26278.000000,15654.000000,22336.000000,56534.000000
26243.000000,15638.000000,22322.000000,56532.000000
26253.000000,15649.000000,22338.000000,56528.000000
26263.000000,15626.000000,22322.000000,56498.000000
26260.000000,15611.000000,22288.000000,56493.000000
26217.000000,15649.000000,22228.000000,56517.000000
26220.000000,15608.000000,22253.000000,56465.000000
26190.000000,15586.000000,22263.000000,56455.000000
26172.000000,15603.000000,22180.000000,56464.000000
26169.000000,15596.000000,22235.000000,56447.000000
26148.000000,15578.000000,22167.000000,56439.000000
26132.000000,15599.000000,22224.000000,56426.000000
26162.000000,15594.000000,22136.000000,56434.000000
26122.000000,15548.000000,22150.000000,56450.000000
26124.000000,15558.000000,22124.000000,56465.000000
26123.000000,15495.000000,22158.000000,56450.000000
26094.000000,15583.000000,22147.000000,56427.000000
26045.000000,15577.000000,22118.000000,56439.000000
26082.000000,15581.000000,22123.000000,56381.000000
26025.000000,15570.000000,22095.000000,56435.000000
25993.000000,15511.000000,22110.000000,56419.000000
26058.000000,15497.000000,22078.000000,56384.000000
26060.000000,15484.000000,22051.000000,56406.000000
26002.000000,15478.000000,22005.000000,56377.000000
25943.000000,15450.000000,21992.000000,56376.000000
25941.000000,15462.000000,21965.000000,56343.000000
25942.000000,15414.000000,21926.000000,56339.000000
25877.000000,15368.000000,21951.000000,56341.000000
25908.000000,15451.000000,21907.000000,56311.000000
25871.000000,15353.000000,21869.000000,56255.000000
25885.000000,15347.000000,21881.000000,56241.000000
25800.000000,15310.000000,21808.000000,56285.000000
25785.000000,15257.000000,21772.000000,56267.000000
25817.000000,15310.000000,21806.000000,56233.000000
25793.000000,15300.000000,21798.000000,56211.000000
25770.000000,15305.000000,21751.000000,56207.000000
25758.000000,15219.000000,21760.000000,56207.000000
25743.000000,15288.000000,21714.000000,56190.000000
25747.000000,15272.000000,21686.000000,56217.000000
25731.000000,15224.000000,21761.000000,56188.000000
25766.000000,15227.000000,21720.000000,56191.000000
25729.000000,15256.000000,21779.000000,56199.000000
25727.000000,15244.000000,21763.000000,56191.000000
25730.000000,15247.000000,21721.000000,56194.000000
25766.000000,15239.000000,21742.000000,56191.000000
25729.000000,15309.000000,21748.000000,56214.000000
25750.000000,15264.000000,21745.000000,56238.000000
25711.000000,15233.000000,21745.000000,56207.000000
25783.000000,15234.000000,21713.000000,56203.000000
25791.000000,15288.000000,21747.000000,56252.000000
25787.000000,15314.000000,21748.000000,56220.000000
25817.000000,15319.000000,21778.000000,56223.000000
25831.000000,15327.000000,21853.000000,56260.000000
25857.000000,15328.000000,21822.000000,56270.000000
25844.000000,15345.000000,21850.000000,56294.000000
25877.000000,15346.000000,21905.000000,56298.000000
25940.000000,15388.000000,21836.000000,56288.000000
25964.000000,15410.000000,21867.000000,56327.000000
25958.000000,15413.000000,21933.000000,56309.000000
26007.000000,15431.000000,21981.000000,56281.000000
26046.000000,15427.000000,22021.000000,56382.000000
26072.000000,15490.000000,22060.000000,56398.000000
26103.000000,15539.000000,22065.000000,56421.000000
26131.000000,15546.000000,22123.000000,56415.000000
26166.000000,15567.000000,22187.000000,56429.000000
26244.000000,15589.000000,22227.000000,56445.000000
26276.000000,15630.000000,22282.000000,56514.000000
26315.000000,15696.000000,22365.000000,56543.000000
26450.000000,15742.000000,22443.000000,56565.000000
26462.000000,15795.000000,22494.000000,56631.000000
26576.000000,15862.000000,22571.000000,56648.000000
26614.000000,15850.000000,22654.000000,56692.000000
26649.000000,15947.000000,22717.000000,56731.000000
26734.000000,15993.000000,22805.000000,56740.000000
26836.000000,16022.000000,22851.000000,56766.000000
26863.000000,16039.000000,22884.000000,56810.000000
26929.000000,16088.000000,22922.000000,56838.000000
26935.000000,16099.000000,22997.000000,56869.000000
26994.000000,16154.000000,22994.000000,56864.000000
27054.000000,16176.000000,23009.000000,56864.000000
27039.000000,16213.000000,22999.000000,56933.000000
27042.000000,16238.000000,23069.000000,56890.000000
27088.000000,16219.000000,23087.000000,56910.000000
27047.000000,16234.000000,23043.000000,56908.000000
27041.000000,16212.000000,23073.000000,56905.000000
27081.000000,16188.000000,23048.000000,56917.000000
27057.000000,16210.000000,23039.000000,56921.000000
27069.000000,16247.000000,23068.000000,56891.000000
27063.000000,16195.000000,23043.000000,56883.000000
27020.000000,16203.000000,23026.000000,56915.000000
26981.000000,16193.000000,23028.000000,56858.000000
27023.000000,16206.000000,23057.000000,56870.000000
27024.000000,16173.000000,23031.000000,56883.000000
27032.000000,16213.000000,23044.000000,56856.000000
27011.000000,16190.000000,23022.000000,56879.000000
27001.000000,16207.000000,22996.000000,56869.000000
27003.000000,16155.000000,22998.000000,56859.000000
26974.000000,16175.000000,22978.000000,56907.000000
26982.000000,16182.000000,22985.000000,56860.000000
26997.000000,16161.000000,22988.000000,56877.000000
26998.000000,16180.000000,23015.000000,56843.000000
26982.000000,16155.000000,23004.000000,56877.000000
26999.000000,16175.000000,22997.000000,56880.000000
26991.000000,16143.000000,23004.000000,56833.000000
26947.000000,16140.000000,22977.000000,56872.000000
26948.000000,16118.000000,22990.000000,56823.000000
26924.000000,16178.000000,22960.000000,56861.000000
26923.000000,16134.000000,22934.000000,56824.000000
26879.000000,16107.000000,22911.000000,56864.000000
26909.000000,16115.000000,22930.000000,56864.000000
26866.000000,16131.000000,22921.000000,56820.000000
26867.000000,16100.000000,22900.000000,56830.000000
26840.000000,16077.000000,22923.000000,56843.000000
26875.000000,16094.000000,22892.000000,56811.000000
26849.000000,16043.000000,22924.000000,56813.000000
26836.000000,16073.000000,22880.000000,56785.000000
26814.000000,16077.000000,22874.000000,56827.000000
26849.000000,16087.000000,22893.000000,56775.000000
26828.000000,16040.000000,22835.000000,56778.000000
26826.000000,16076.000000,22836.000000,56810.000000
26849.000000,16030.000000,22864.000000,56795.000000
26852.000000,16068.000000,22852.000000,56811.000000
26801.000000,16069.000000,22909.000000,56788.000000
26855.000000,16098.000000,22821.000000,56824.000000
26842.000000,16067.000000,22833.000000,56826.000000
26868.000000,16025.000000,22850.000000,56765.000000
26839.000000,16030.000000,22811.000000,56801.000000
26801.000000,16027.000000,22815.000000,56789.000000
26814.000000,16012.000000,22828.000000,56753.000000
26833.000000,15974.000000,22811.000000,56761.000000
26842.000000,16014.000000,22826.000000,56767.000000
26811.000000,16053.000000,22864.000000,56766.000000
26774.000000,16050.000000,22765.000000,56786.000000
26825.000000,16015.000000,22787.000000,56754.000000
26772.000000,15965.000000,22789.000000,56741.000000
26750.000000,16017.000000,22782.000000,56757.000000
26733.000000,16020.000000,22743.000000,56748.000000
26749.000000,15972.000000,22746.000000,56745.000000
26754.000000,15986.000000,22739.000000,56783.000000
26736.000000,16007.000000,22706.000000,56757.000000
26712.000000,15952.000000,22705.000000,56746.000000
26742.000000,15923.000000,22699.000000,56718.000000
26720.000000,15974.000000,22737.000000,56721.000000
26747.000000,16011.000000,22703.000000,56724.000000
26701.000000,15962.000000,22710.000000,56737.000000
26675.000000,15951.000000,22679.000000,56772.000000
26708.000000,15934.000000,22687.000000,56729.000000
26731.000000,15961.000000,22684.000000,56698.000000
26696.000000,15954.000000,22668.000000,56700.000000
26726.000000,15986.000000,22694.000000,56723.000000
26722.000000,15944.000000,22700.000000,56703.000000
26701.000000,15977.000000,22661.000000,56730.000000
26732.000000,15961.000000,22671.000000,56714.000000
26688.000000,15936.000000,22650.000000,56735.000000
26712.000000,15900.000000,22663.000000,56718.000000
26627.000000,15936.000000,22619.000000,56709.000000
26670.000000,15939.000000,22637.000000,56689.000000
26646.000000,15932.000000,22594.000000,56719.000000
26663.000000,15916.000000,22625.000000,56690.000000
26666.000000,15883.000000,22609.000000,56666.000000
26660.000000,15888.000000,22605.000000,56679.000000
26552.000000,15854.000000,22581.000000,56655.000000
26589.000000,15844.000000,22611.000000,56667.000000
26570.000000,15885.000000,22546.000000,56685.000000
26543.000000,15846.000000,22541.000000,56637.000000
26559.000000,15838.000000,22553.000000,56637.000000
26547.000000,15814.000000,22525.000000,56632.000000
26507.000000,15810.000000,22499.000000,56634.000000
26503.000000,15825.000000,22430.000000,56634.000000
26478.000000,15803.000000,22442.000000,56603.000000
26525.000000,15773.000000,22517.000000,56616.000000
26537.000000,15810.000000,22468.000000,56629.000000
26475.000000,15791.000000,22489.000000,56602.000000
26502.000000,15816.000000,22462.000000,56634.000000
26460.000000,15793.000000,22434.000000,56591.000000
26469.000000,15780.000000,22437.000000,56608.000000
26457.000000,15770.000000,22432.000000,56572.000000
26418.000000,15763.000000,22417.000000,56597.000000
26463.000000,15727.000000,22377.000000,56558.000000
26425.000000,15718.000000,22384.000000,56555.000000
26399.000000,15711.000000,22352.000000,56544.000000
26413.000000,15752.000000,22358.000000,56510.000000
26389.000000,15724.000000,22364.000000,56578.000000
26337.000000,15720.000000,22316.000000,56530.000000
26325.000000,15728.000000,22283.000000,56551.000000
26304.000000,15696.000000,22267.000000,56556.000000
26315.000000,15646.000000,22303.000000,56525.000000
26311.000000,15665.000000,22266.000000,56512.000000
26270.000000,15656.000000,22249.000000,56459.000000
26246.000000,15672.000000,22182.000000,56491.000000
26237.000000,15629.000000,22184.000000,56478.000000
26226.000000,15600.000000,22232.000000,56455.000000
26215.000000,15626.000000,22170.000000,56490.000000
26223.000000,15668.000000,22172.000000,56434.000000
26202.000000,15619.000000,22196.000000,56455.000000
26222.000000,15582.000000,22145.000000,56471.000000
26234.000000,15606.000000,22113.000000,56420.000000
26137.000000,15549.000000,22134.000000,56454.000000
26117.000000,15530.000000,22119.000000,56419.000000
26132.000000,15569.000000,22035.000000,56424.000000
26137.000000,15550.000000,22076.000000,56389.000000
26136.000000,15537.000000,22090.000000,56395.000000
26123.000000,15573.000000,22021.000000,56397.000000
26081.000000,15520.000000,22044.000000,56388.000000
26078.000000,15483.000000,22036.000000,56334.000000
26075.000000,15502.000000,21981.000000,56366.000000
26068.000000,15484.000000,21984.000000,56348.000000
26012.000000,15480.000000,21954.000000,56342.000000
26010.000000,15517.000000,21928.000000,56358.000000
25995.000000,15432.000000,21925.000000,56329.000000
25997.000000,15398.000000,21846.000000,56308.000000
25955.000000,15424.000000,21870.000000,56304.000000
25988.000000,15391.000000,21869.000000,56225.000000
25929.000000,15432.000000,21785.000000,56292.000000
25897.000000,15349.000000,21792.000000,56278.000000
25860.000000,15316.000000,21736.000000,56270.000000
25839.000000,15373.000000,21734.000000,56255.000000
25839.000000,15328.000000,21728.000000,56198.000000
25830.000000,15251.000000,21668.000000,56195.000000
25784.000000,15227.000000,21640.000000,56195.000000
25743.000000,15254.000000,21626.000000,56161.000000
25740.000000,15216.000000,21570.000000,56138.000000
25724.000000,15235.000000,21635.000000,56112.000000
25701.000000,15238.000000,21578.000000,56125.000000
25673.000000,15232.000000,21595.000000,56180.000000
25684.000000,15215.000000,21553.000000,56148.000000
25703.000000,15176.000000,21559.000000,56144.000000
25644.000000,15191.000000,21523.000000,56129.000000
25671.000000,15190.000000,21551.000000,56120.000000
25669.000000,15171.000000,21559.000000,56080.000000
25665.000000,15128.000000,21512.000000,56094.000000
25653.000000,15197.000000,21507.000000,56119.000000
25636.000000,15187.000000,21562.000000,56095.000000
25657.000000,15180.000000,21553.000000,56116.000000
25669.000000,15177.000000,21552.000000,56162.000000
25661.000000,15212.000000,21516.000000,56159.000000
25725.000000,15171.000000,21542.000000,56118.000000
25719.000000,15175.000000,21525.000000,56155.000000
25757.000000,15203.000000,21600.000000,56125.000000
25729.000000,15226.000000,21564.000000,56180.000000
25751.000000,15217.000000,21574.000000,56179.000000
25785.000000,15246.000000,21636.000000,56126.000000
25821.000000,15267.000000,21690.000000,56202.000000
25843.000000,15285.000000,21680.000000,56243.000000
25851.000000,15345.000000,21688.000000,56233.000000
25898.000000,15316.000000,21728.000000,56238.000000
25890.000000,15320.000000,21757.000000,56250.000000
25951.000000,15331.000000,21770.000000,56230.000000
25975.000000,15333.000000,21771.000000,56274.000000
25996.000000,15412.000000,21809.000000,56322.000000
26059.000000,15456.000000,21852.000000,56324.000000
26078.000000,15485.000000,21902.000000,56326.000000
26101.000000,15454.000000,21918.000000,56370.000000
26175.000000,15565.000000,22026.000000,56390.000000
26245.000000,15562.000000,22062.000000,56407.000000
26258.000000,15560.000000,22161.000000,56447.000000
26330.000000,15626.000000,22232.000000,56497.000000
26369.000000,15669.000000,22245.000000,56513.000000
26453.000000,15723.000000,22327.000000,56574.000000
26520.000000,15778.000000,22446.000000,56641.000000
26607.000000,15819.000000,22505.000000,56637.000000
26654.000000,15892.000000,22552.000000,56731.000000
26776.000000,15912.000000,22612.000000,56724.000000
26799.000000,15981.000000,22674.000000,56772.000000
26908.000000,16025.000000,22785.000000,56739.000000
26924.000000,16057.000000,22804.000000,56796.000000
26981.000000,16096.000000,22874.000000,56785.000000
27054.000000,16134.000000,22879.000000,56820.000000
27023.000000,16168.000000,22927.000000,56854.000000
27069.000000,16180.000000,22931.000000,56891.000000
27112.000000,16139.000000,22924.000000,56839.000000
27055.000000,16113.000000,22919.000000,56875.000000
27117.000000,16170.000000,22886.000000,56862.000000
27079.000000,16148.000000,22931.000000,56827.000000
27047.000000,16153.000000,22916.000000,56834.000000
27056.000000,16146.000000,22910.000000,56871.000000
27071.000000,16149.000000,22880.000000,56840.000000
27092.000000,16174.000000,22935.000000,56836.000000
27081.000000,16132.000000,22930.000000,56809.000000
26997.000000,16165.000000,22889.000000,56848.000000
27003.000000,16129.000000,22894.000000,56815.000000
27000.000000,16137.000000,22902.000000,56824.000000
27000.000000,16100.000000,22849.000000,56808.000000
27010.000000,16082.000000,22836.000000,56814.000000
26989.000000,16071.000000,22856.000000,56804.000000
26946.000000,16117.000000,22824.000000,56797.000000
26926.000000,16057.000000,22848.000000,56803.000000
26882.000000,16082.000000,22787.000000,56812.000000
26886.000000,16025.000000,22806.000000,56770.000000
26871.000000,16068.000000,22741.000000,56759.000000
26834.000000,16019.000000,22800.000000,56788.000000
26878.000000,15973.000000,22754.000000,56768.000000
26878.000000,16030.000000,22754.000000,56749.000000
26847.000000,15973.000000,22764.000000,56788.000000
26895.000000,15991.000000,22782.000000,56747.000000
26863.000000,16001.000000,22759.000000,56739.000000
26834.000000,16018.000000,22728.000000,56753.000000
26846.000000,16017.000000,22755.000000,56740.000000
26837.000000,15993.000000,22723.000000,56781.000000
26798.000000,16005.000000,22750.000000,56765.000000
26807.000000,16015.000000,22711.000000,56744.000000
26844.000000,15985.000000,22706.000000,56726.000000
26844.000000,15945.000000,22726.000000,56712.000000
26848.000000,15973.000000,22689.000000,56751.000000
26838.000000,16048.000000,22704.000000,56747.000000
26801.000000,15990.000000,22717.000000,56763.000000
26823.000000,15986.000000,22707.000000,56730.000000
26796.000000,15989.000000,22693.000000,56740.000000
26793.000000,15945.000000,22667.000000,56715.000000
26771.000000,15968.000000,22660.000000,56740.000000
26765.000000,15980.000000,22655.000000,56714.000000
26736.000000,15944.000000,22623.000000,56724.000000
26726.000000,15933.000000,22642.000000,56706.000000
26765.000000,15920.000000,22654.000000,56672.000000
26752.000000,15953.000000,22588.000000,56703.000000
26713.000000,15918.000000,22611.000000,56690.000000
26710.000000,15900.000000,22568.000000,56647.000000
26754.000000,15916.000000,22579.000000,56715.000000
26706.000000,15905.000000,22583.000000,56659.000000
26657.000000,15913.000000,22560.000000,56686.000000
26656.000000,15870.000000,22566.000000,56676.000000
26669.000000,15846.000000,22525.000000,56628.000000
26610.000000,15884.000000,22531.000000,56653.000000
26632.000000,15853.000000,22521.000000,56646.000000
26636.000000,15836.000000,22487.000000,56639.000000
26628.000000,15864.000000,22508.000000,56633.000000
26597.000000,15880.000000,22468.000000,56634.000000
26610.000000,15845.000000,22461.000000,56630.000000
26598.000000,15806.000000,22464.000000,56617.000000
26590.000000,15810.000000,22427.000000,56670.000000
26601.000000,15808.000000,22455.000000,56642.000000
26593.000000,15863.000000,22414.000000,56638.000000
26611.000000,15837.000000,22474.000000,56630.000000
26595.000000,15820.000000,22430.000000,56655.000000
26580.000000,15826.000000,22402.000000,56601.000000
26598.000000,15813.000000,22401.000000,56607.000000
26558.000000,15817.000000,22395.000000,56642.000000
26598.000000,15824.000000,22414.000000,56614.000000
26605.000000,15734.000000,22387.000000,56592.000000
26553.000000,15792.000000,22390.000000,56596.000000
26598.000000,15798.000000,22367.000000,56595.000000
26562.000000,15792.000000,22374.000000,56549.000000
26539.000000,15767.000000,22336.000000,56599.000000
26533.000000,15785.000000,22332.000000,56551.000000
26532.000000,15741.000000,22303.000000,56563.000000
26525.000000,15766.000000,22304.000000,56554.000000
26496.000000,15741.000000,22304.000000,56569.000000
26474.000000,15735.000000,22278.000000,56550.000000
26510.000000,15745.000000,22261.000000,56585.000000
26450.000000,15730.000000,22311.000000,56532.000000
26458.000000,15687.000000,22295.000000,56543.000000
26408.000000,15668.000000,22224.000000,56515.000000
26440.000000,15712.000000,22233.000000,56481.000000
26402.000000,15716.000000,22193.000000,56545.000000
26425.000000,15679.000000,22202.000000,56534.000000
26354.000000,15683.000000,22183.000000,56484.000000
26358.000000,15633.000000,22166.000000,56488.000000
26351.000000,15653.000000,22100.000000,56502.000000
26308.000000,15636.000000,22142.000000,56466.000000
26327.000000,15599.000000,22109.000000,56446.000000
26260.000000,15620.000000,22088.000000,56445.000000
26240.000000,15603.000000,22058.000000,56468.000000
26278.000000,15566.000000,22049.000000,56403.000000
26216.000000,15573.000000,22066.000000,56386.000000
26180.000000,15559.000000,22009.000000,56463.000000
26171.000000,15554.000000,22036.000000,56403.000000
26192.000000,15474.000000,22019.000000,56370.000000
26133.000000,15525.000000,22002.000000,56334.000000
26095.000000,15538.000000,21946.000000,56361.000000
26121.000000,15459.000000,21987.000000,56344.000000
26101.000000,15456.000000,21973.000000,56361.000000
26095.000000,15488.000000,21943.000000,56313.000000
26060.000000,15471.000000,21912.000000,56299.000000
26031.000000,15450.000000,21931.000000,56296.000000
26016.000000,15434.000000,21883.000000,56328.000000
25962.000000,15401.000000,21845.000000,56314.000000
25989.000000,15400.000000,21855.000000,56277.000000
25972.000000,15359.000000,21847.000000,56249.000000
25946.000000,15397.000000,21792.000000,56296.000000
25950.000000,15384.000000,21775.000000,56272.000000
25939.000000,15375.000000,21812.000000,56283.000000
25940.000000,15400.000000,21795.000000,56254.000000
25922.000000,15345.000000,21802.000000,56274.000000
25946.000000,15380.000000,21792.000000,56233.000000
25976.000000,15333.000000,21748.000000,56252.000000
25919.000000,15336.000000,21742.000000,56266.000000
25932.000000,15343.000000,21696.000000,56246.000000
25926.000000,15268.000000,21702.000000,56220.000000
25924.000000,15308.000000,21674.000000,56231.000000
25914.000000,15355.000000,21745.000000,56219.000000
25932.000000,15293.000000,21654.000000,56255.000000
25857.000000,15324.000000,21690.000000,56220.000000
25916.000000,15294.000000,21664.000000,56219.000000
25867.000000,15284.000000,21645.000000,56191.000000
25818.000000,15272.000000,21612.000000,56200.000000
25789.000000,15245.000000,21599.000000,56169.000000
25784.000000,15215.000000,21548.000000,56165.000000
25764.000000,15211.000000,21537.000000,56148.000000
25746.000000,15195.000000,21554.000000,56121.000000
25733.000000,15183.000000,21515.000000,56125.000000
25716.000000,15142.000000,21512.000000,56091.000000
25675.000000,15168.000000,21468.000000,56078.000000
25639.000000,15172.000000,21446.000000,56115.000000
25640.000000,15123.000000,21413.000000,56069.000000
25615.000000,15096.000000,21359.000000,56052.000000
25637.000000,15060.000000,21353.000000,56033.000000
25557.000000,15065.000000,21344.000000,56003.000000
25570.000000,15089.000000,21326.000000,56037.000000
25582.000000,15054.000000,21262.000000,56001.000000
25516.000000,15048.000000,21299.000000,55997.000000
25483.000000,15031.000000,21272.000000,55984.000000
25524.000000,14999.000000,21281.000000,55950.000000
25529.000000,15030.000000,21249.000000,55973.000000
25545.000000,15011.000000,21231.000000,55965.000000
25538.000000,15038.000000,21198.000000,55987.000000
25511.000000,15036.000000,21238.000000,55939.000000
25548.000000,15033.000000,21263.000000,55966.000000
25508.000000,15002.000000,21291.000000,55970.000000
25544.000000,15039.000000,21261.000000,55972.000000
25564.000000,15013.000000,21290.000000,55963.000000
25569.000000,15017.000000,21306.000000,56025.000000
25623.000000,15044.000000,21288.000000,56048.000000
25635.000000,15050.000000,21271.000000,56067.000000
25622.000000,15094.000000,21350.000000,56032.000000
25627.000000,15118.000000,21345.000000,56070.000000
25699.000000,15062.000000,21346.000000,56009.000000
25694.000000,15083.000000,21369.000000,56030.000000
25685.000000,15118.000000,21351.000000,56067.000000
25710.000000,15109.000000,21448.000000,56076.000000
25682.000000,15121.000000,21382.000000,56083.000000
25729.000000,15107.000000,21421.000000,56104.000000
25703.000000,15137.000000,21454.000000,56070.000000
25749.000000,15143.000000,21476.000000,56095.000000
25742.000000,15146.000000,21476.000000,56118.000000
25769.000000,15181.000000,21492.000000,56129.000000
25752.000000,15207.000000,21520.000000,56156.000000
25778.000000,15170.000000,21547.000000,56105.000000
25813.000000,15192.000000,21569.000000,56166.000000
25788.000000,15242.000000,21621.000000,56167.000000
25829.000000,15229.000000,21585.000000,56153.000000
25857.000000,15245.000000,21646.000000,56186.000000
25921.000000,15298.000000,21701.000000,56192.000000
25948.000000,15322.000000,21773.000000,56230.000000
25957.000000,15373.000000,21731.000000,56285.000000
26059.000000,15391.000000,21877.000000,56269.000000
26068.000000,15426.000000,21863.000000,56332.000000
26109.000000,15502.000000,21960.000000,56377.000000
26230.000000,15509.000000,22025.000000,56377.000000
26282.000000,15568.000000,22106.000000,56414.000000
26345.000000,15598.000000,22203.000000,56454.000000
26447.000000,15664.000000,22291.000000,56509.000000
26493.000000,15729.000000,22391.000000,56609.000000
26606.000000,15796.000000,22491.000000,56595.000000
26664.000000,15834.000000,22560.000000,56627.000000
26789.000000,15914.000000,22628.000000,56679.000000
26799.000000,15921.000000,22705.000000,56729.000000
26828.000000,15996.000000,22711.000000,56740.000000
26923.000000,16026.000000,22785.000000,56729.000000
26945.000000,16019.000000,22817.000000,56750.000000
26969.000000,16072.000000,22846.000000,56785.000000
26946.000000,16114.000000,22866.000000,56781.000000
26969.000000,16108.000000,22843.000000,56817.000000
26989.000000,16100.000000,22885.000000,56794.000000
27027.000000,16112.000000,22920.000000,56789.000000
27012.000000,16132.000000,22890.000000,56828.000000
26992.000000,16068.000000,22880.000000,56847.000000
26986.000000,16076.000000,22868.000000,56829.000000
27030.000000,16083.000000,22888.000000,56811.000000
26996.000000,16122.000000,22864.000000,56832.000000
26951.000000,16112.000000,22836.000000,56845.000000
26997.000000,16101.000000,22903.000000,56804.000000
26979.000000,16086.000000,22891.000000,56829.000000
26942.000000,16133.000000,22884.000000,56839.000000
26969.000000,16082.000000,22881.000000,56797.000000
26973.000000,16069.000000,22885.000000,56775.000000
26970.000000,16069.000000,22862.000000,56808.000000
26975.000000,16079.000000,22865.000000,56785.000000
26999.000000,16108.000000,22847.000000,56802.000000
26921.000000,16107.000000,22836.000000,56801.000000
26935.000000,16126.000000,22819.000000,56805.000000
26944.000000,16068.000000,22836.000000,56781.000000
26933.000000,16067.000000,22812.000000,56770.000000
26914.000000,16056.000000,22816.000000,56784.000000
26960.000000,16057.000000,22762.000000,56781.000000
26922.000000,16049.000000,22774.000000,56791.000000
26947.000000,16093.000000,22769.000000,56746.000000
26922.000000,16077.000000,22779.000000,56771.000000
26930.000000,16064.000000,22800.000000,56785.000000
26896.000000,16043.000000,22804.000000,56760.000000
26939.000000,16034.000000,22760.000000,56745.000000
26902.000000,16024.000000,22717.000000,56752.000000
26888.000000,16032.000000,22730.000000,56745.000000
26889.000000,16057.000000,22724.000000,56753.000000
26841.000000,16024.000000,22728.000000,56742.000000
26874.000000,16031.000000,22719.000000,56726.000000
26867.000000,15984.000000,22749.000000,56709.000000
26872.000000,15986.000000,22699.000000,56757.000000
26862.000000,15985.000000,22697.000000,56741.000000
26832.000000,15998.000000,22650.000000,56721.000000
26818.000000,15985.000000,22684.000000,56742.000000
26818.000000,15963.000000,22671.000000,56702.000000
26887.000000,15957.000000,22646.000000,56699.000000
26855.000000,15956.000000,22667.000000,56686.000000
26798.000000,16001.000000,22652.000000,56709.000000
26822.000000,15928.000000,22663.000000,56675.000000
26784.000000,15926.000000,22644.000000,56668.000000
26718.000000,15929.000000,22621.000000,56732.000000
26735.000000,15957.000000,22616.000000,56707.000000
26737.000000,15905.000000,22589.000000,56693.000000
26720.000000,15856.000000,22592.000000,56676.000000
26728.000000,15895.000000,22598.000000,56672.000000
26742.000000,15864.000000,22605.000000,56636.000000
26698.000000,15909.000000,22550.000000,56677.000000
26712.000000,15866.000000,22490.000000,56639.000000
26661.000000,15864.000000,22538.000000,56644.000000
26645.000000,15885.000000,22530.000000,56611.000000
26715.000000,15841.000000,22493.000000,56631.000000
26586.000000,15841.000000,22491.000000,56628.000000
26630.000000,15800.000000,22506.000000,56616.000000
26619.000000,15807.000000,22497.000000,56569.000000
26630.000000,15799.000000,22498.000000,56574.000000
26613.000000,15782.000000,22443.000000,56562.000000
26598.000000,15803.000000,22431.000000,56599.000000
26644.000000,15808.000000,22450.000000,56616.000000
26565.000000,15822.000000,22427.000000,56599.000000
26608.000000,15767.000000,22441.000000,56546.000000
26546.000000,15795.000000,22382.000000,56586.000000
26558.000000,15811.000000,22381.000000,56614.000000
26572.000000,15771.000000,22419.000000,56545.000000
26555.000000,15790.000000,22379.000000,56576.000000
26603.000000,15762.000000,22377.000000,56550.000000
26559.000000,15735.000000,22332.000000,56547.000000
26549.000000,15756.000000,22372.000000,56565.000000
26520.000000,15754.000000,22333.000000,56548.000000
26515.000000,15719.000000,22321.000000,56539.000000
26485.000000,15717.000000,22317.000000,56531.000000
26478.000000,15733.000000,22249.000000,56572.000000
26426.000000,15692.000000,22276.000000,56518.000000
26459.000000,15688.000000,22268.000000,56513.000000
26422.000000,15667.000000,22226.000000,56479.000000
26416.000000,15669.000000,22175.000000,56510.000000
26374.000000,15635.000000,22213.000000,56451.000000
26356.000000,15645.000000,22172.000000,56464.000000
26346.000000,15636.000000,22178.000000,56499.000000
26351.000000,15630.000000,22174.000000,56444.000000
26348.000000,15609.000000,22160.000000,56451.000000
26310.000000,15595.000000,22134.000000,56474.000000
26309.000000,15658.000000,22121.000000,56450.000000
26349.000000,15632.000000,22081.000000,56383.000000
26305.000000,15611.000000,22144.000000,56435.000000
26356.000000,15584.000000,22083.000000,56407.000000
26336.000000,15580.000000,22066.000000,56453.000000
26266.000000,15565.000000,22097.000000,56430.000000
26308.000000,15600.000000,22068.000000,56406.000000
26259.000000,15573.000000,22049.000000,56370.000000
26269.000000,15539.000000,22039.000000,56416.000000
26222.000000,15552.000000,22027.000000,56388.000000
26203.000000,15561.000000,21983.000000,56403.000000
26284.000000,15542.000000,22046.000000,56384.000000
26215.000000,15550.000000,21958.000000,56372.000000
26200.000000,15559.000000,21981.000000,56357.000000
26173.000000,15520.000000,21959.000000,56374.000000
26182.000000,15524.000000,21952.000000,56355.000000
26157.000000,15465.000000,21904.000000,56364.000000
26120.000000,15452.000000,21875.000000,56329.000000
26120.000000,15484.000000,21856.000000,56294.000000
26098.000000,15454.000000,21910.000000,56313.000000
26059.000000,15463.000000,21829.000000,56341.000000
26046.000000,15403.000000,21866.000000,56303.000000
26011.000000,15404.000000,21840.000000,56290.000000
25978.000000,15400.000000,21851.000000,56297.000000
26005.000000,15383.000000,21816.000000,56261.000000
25997.000000,15312.000000,21764.000000,56225.000000
25932.000000,15365.000000,21787.000000,56255.000000
25972.000000,15348.000000,21754.000000,56257.000000
25945.000000,15304.000000,21768.000000,56245.000000
25963.000000,15336.000000,21769.000000,56254.000000
25984.000000,15323.000000,21722.000000,56223.000000
25940.000000,15308.000000,21734.000000,56238.000000
25928.000000,15305.000000,21748.000000,56271.000000
25930.000000,15344.000000,21685.000000,56196.000000
25884.000000,15270.000000,21691.000000,56225.000000
25896.000000,15310.000000,21686.000000,56231.000000
25888.000000,15285.000000,21695.000000,56172.000000
25840.000000,15274.000000,21689.000000,56211.000000
25874.000000,15261.000000,21661.000000,56163.000000
25817.000000,15273.000000,21615.000000,56210.000000
25821.000000,15236.000000,21627.000000,56149.000000
25806.000000,15204.000000,21619.000000,56157.000000
25825.000000,15258.000000,21585.000000,56139.000000
25823.000000,15202.000000,21545.000000,56151.000000
25790.000000,15175.000000,21538.000000,56109.000000
25779.000000,15161.000000,21498.000000,56102.000000
25748.000000,15126.000000,21494.000000,56074.000000
25701.000000,15128.000000,21440.000000,56094.000000
25704.000000,15115.000000,21441.000000,56054.000000
25647.000000,15116.000000,21401.000000,56033.000000
25688.000000,15077.000000,21371.000000,56046.000000
25635.000000,15104.000000,21298.000000,56026.000000
25633.000000,15085.000000,21329.000000,56003.000000
25599.000000,15079.000000,21307.000000,55995.000000
25572.000000,15048.000000,21254.000000,56026.000000
25548.000000,15026.000000,21295.000000,55979.000000
25580.000000,15038.000000,21199.000000,56011.000000
25527.000000,14990.000000,21233.000000,55926.000000
25551.000000,14992.000000,21232.000000,55929.000000
25552.000000,14995.000000,21186.000000,55982.000000
25515.000000,15009.000000,21202.000000,55965.000000
25536.000000,14983.000000,21244.000000,55947.000000
25542.000000,15035.000000,21166.000000,55990.000000
25511.000000,14989.000000,21210.000000,55959.000000
25540.000000,14987.000000,21203.000000,55967.000000
25512.000000,14986.000000,21203.000000,55947.000000
25530.000000,14985.000000,21199.000000,55970.000000
25525.000000,14979.000000,21198.000000,55964.000000
25562.000000,14987.000000,21209.000000,55951.000000
25512.000000,14983.000000,21220.000000,55947.000000
25516.000000,15017.000000,21216.000000,56015.000000
25571.000000,14969.000000,21260.000000,55965.000000
25565.000000,14981.000000,21263.000000,55966.000000
25561.000000,14978.000000,21256.000000,55989.000000
25574.000000,15014.000000,21258.000000,56013.000000
25637.000000,15035.000000,21282.000000,56014.000000
25642.000000,15010.000000,21343.000000,55980.000000
25642.000000,15088.000000,21309.000000,56078.000000
25662.000000,15092.000000,21337.000000,56025.000000
25689.000000,15127.000000,21342.000000,56092.000000
25715.000000,15121.000000,21404.000000,56094.000000
25753.000000,15109.000000,21433.000000,56108.000000
25786.000000,15137.000000,21469.000000,56108.000000
25817.000000,15156.000000,21507.000000,56121.000000
25873.000000,15177.000000,21550.000000,56117.000000
25892.000000,15242.000000,21568.000000,56167.000000
25947.000000,15296.000000,21589.000000,56203.000000
25987.000000,15300.000000,21650.000000,56177.000000
26024.000000,15325.000000,21738.000000,56233.000000
26089.000000,15384.000000,21792.000000,56300.000000
26184.000000,15441.000000,21814.000000,56297.000000
26273.000000,15518.000000,21926.000000,56369.000000
26281.000000,15515.000000,22010.000000,56402.000000
26382.000000,15588.000000,22061.000000,56437.000000
26475.000000,15629.000000,22160.000000,56514.000000
26562.000000,15647.000000,22272.000000,56502.000000
26617.000000,15730.000000,22296.000000,56580.000000
26678.000000,15764.000000,22397.000000,56592.000000
26855.000000,15818.000000,22473.000000,56637.000000
26849.000000,15937.000000,22544.000000,56670.000000
26967.000000,15923.000000,22605.000000,56696.000000
26984.000000,15967.000000,22625.000000,56720.000000
27005.000000,15969.000000,22703.000000,56741.000000
27010.000000,16015.000000,22695.000000,56779.000000
27042.000000,16042.000000,22692.000000,56774.000000
27069.000000,16035.000000,22728.000000,56755.000000
27057.000000,16066.000000,22718.000000,56803.000000
27089.000000,16095.000000,22744.000000,56731.000000
27078.000000,16086.000000,22716.000000,56806.000000
27081.000000,16074.000000,22744.000000,56773.000000
27054.000000,16012.000000,22757.000000,56778.000000
27084.000000,15985.000000,22768.000000,56773.000000
27059.000000,16053.000000,22734.000000,56769.000000
27064.000000,16006.000000,22735.000000,56714.000000
27029.000000,16046.000000,22674.000000,56764.000000
27004.000000,16005.000000,22703.000000,56725.000000
27025.000000,16064.000000,22693.000000,56762.000000
27024.000000,16014.000000,22681.000000,56733.000000
26990.000000,16014.000000,22648.000000,56779.000000
26968.000000,15954.000000,22681.000000,56713.000000
26948.000000,15974.000000,22636.000000,56697.000000
26941.000000,15965.000000,22631.000000,56721.000000
26935.000000,15936.000000,22619.000000,56702.000000
26917.000000,15969.000000,22640.000000,56729.000000
26901.000000,15953.000000,22595.000000,56711.000000
26934.000000,15974.000000,22567.000000,56687.000000
26918.000000,15928.000000,22617.000000,56718.000000
26880.000000,15961.000000,22589.000000,56704.000000
26908.000000,15964.000000,22596.000000,56716.000000
26918.000000,15950.000000,22571.000000,56745.000000
26956.000000,15937.000000,22591.000000,56697.000000
26927.000000,15923.000000,22601.000000,56702.000000
26888.000000,15894.000000,22575.000000,56719.000000
26923.000000,15899.000000,22557.000000,56670.000000
26935.000000,15946.000000,22547.000000,56728.000000
26875.000000,15947.000000,22547.000000,56709.000000
26873.000000,15941.000000,22542.000000,56703.000000
26862.000000,15913.000000,22564.000000,56674.000000
26862.000000,15900.000000,22533.000000,56674.000000
26848.000000,15938.000000,22521.000000,56713.000000
26911.000000,15938.000000,22553.000000,56674.000000
26863.000000,15910.000000,22510.000000,56689.000000
26826.000000,15926.000000,22489.000000,56690.000000
26837.000000,15884.000000,22509.000000,56645.000000
26832.000000,15873.000000,22481.000000,56676.000000
26826.000000,15873.000000,22497.000000,56676.000000
26827.000000,15864.000000,22453.000000,56659.000000
26778.000000,15835.000000,22489.000000,56633.000000
26782.000000,15865.000000,22460.000000,56656.000000
26758.000000,15888.000000,22475.000000,56642.000000
26816.000000,15884.000000,22413.000000,56630.000000
26725.000000,15878.000000,22436.000000,56624.000000
26771.000000,15827.000000,22461.000000,56625.000000
26793.000000,15854.000000,22454.000000,56606.000000
26746.000000,15807.000000,22429.000000,56612.000000
26726.000000,15853.000000,22423.000000,56664.000000
26761.000000,15797.000000,22437.000000,56574.000000
26704.000000,15819.000000,22371.000000,56653.000000
26697.000000,15774.000000,22379.000000,56616.000000
26729.000000,15783.000000,22373.000000,56582.000000
26667.000000,15802.000000,22311.000000,56607.000000
26687.000000,15809.000000,22358.000000,56600.000000
26670.000000,15761.000000,22358.000000,56593.000000
26695.000000,15775.000000,22340.000000,56629.000000
26648.000000,15758.000000,22321.000000,56609.000000
26665.000000,15735.000000,22311.000000,56561.000000
26595.000000,15736.000000,22299.000000,56553.000000
26592.000000,15705.000000,22303.000000,56567.000000
26652.000000,15759.000000,22309.000000,56547.000000
26601.000000,15759.000000,22294.000000,56517.000000
26601.000000,15710.000000,22313.000000,56552.000000
26606.000000,15764.000000,22242.000000,56564.000000
26535.000000,15708.000000,22251.000000,56506.000000
26568.000000,15712.000000,22214.000000,56528.000000
26566.000000,15732.000000,22241.000000,56529.000000
26578.000000,15731.000000,22211.000000,56519.000000
26547.000000,15697.000000,22220.000000,56530.000000
26551.000000,15675.000000,22205.000000,56473.000000
26492.000000,15665.000000,22158.000000,56518.000000
26494.000000,15675.000000,22118.000000,56486.000000
26508.000000,15661.000000,22148.000000,56484.000000
26483.000000,15631.000000,22129.000000,56427.000000
26448.000000,15579.000000,22090.000000,56446.000000
26438.000000,15641.000000,22113.000000,56442.000000
26458.000000,15606.000000,22078.000000,56460.000000
26446.000000,15627.000000,22068.000000,56456.000000
26415.000000,15603.000000,22039.000000,56442.000000
26394.000000,15600.000000,22054.000000,56420.000000
26386.000000,15569.000000,22031.000000,56415.000000
26334.000000,15568.000000,22004.000000,56420.000000
26326.000000,15568.000000,22003.000000,56417.000000
26335.000000,15546.000000,22011.000000,56389.000000
26282.000000,15487.000000,21972.000000,56361.000000
26300.000000,15545.000000,21926.000000,56406.000000
26309.000000,15536.000000,21946.000000,56363.000000
26281.000000,15502.000000,21914.000000,56366.000000
26281.000000,15499.000000,21907.000000,56347.000000
26217.000000,15485.000000,21903.000000,56374.000000
26207.000000,15441.000000,21877.000000,56336.000000
26240.000000,15438.000000,21880.000000,56349.000000
26208.000000,15456.000000,21818.000000,56308.000000
26225.000000,15408.000000,21826.000000,56287.000000
26155.000000,15390.000000,21869.000000,56264.000000
26152.000000,15464.000000,21789.000000,56325.000000
26147.000000,15414.000000,21833.000000,56267.000000
26124.000000,15405.000000,21800.000000,56339.000000
26110.000000,15396.000000,21800.000000,56266.000000
26128.000000,15336.000000,21726.000000,56267.000000
26107.000000,15319.000000,21736.000000,56254.000000
26030.000000,15384.000000,21713.000000,56246.000000
26043.000000,15319.000000,21699.000000,56243.000000
26067.000000,15283.000000,21711.000000,56206.000000
26029.000000,15374.000000,21706.000000,56255.000000
26018.000000,15289.000000,21701.000000,56209.000000
26009.000000,15291.000000,21646.000000,56249.000000
26022.000000,15266.000000,21655.000000,56208.000000
26002.000000,15309.000000,21623.000000,56215.000000
26009.000000,15265.000000,21602.000000,56144.000000
26003.000000,15273.000000,21607.000000,56175.000000
25995.000000,15295.000000,21617.000000,56231.000000
25968.000000,15249.000000,21621.000000,56185.000000
25978.000000,15247.000000,21579.000000,56198.000000
25948.000000,15259.000000,21578.000000,56226.000000
25954.000000,15305.000000,21577.000000,56211.000000
25969.000000,15215.000000,21545.000000,56165.000000
25976.000000,15258.000000,21595.000000,56183.000000
25966.000000,15233.000000,21535.000000,56151.000000
25981.000000,15237.000000,21556.000000,56145.000000
25958.000000,15284.000000,21531.000000,56176.000000
25950.000000,15234.000000,21548.000000,56187.000000
25886.000000,15216.000000,21513.000000,56209.000000
25912.000000,15211.000000,21496.000000,56137.000000
25835.000000,15216.000000,21466.000000,56157.000000
