660nm,730nm,850nm,940nm
22390.000000,10494.000000,19438.000000,58227.000000
22403.000000,10488.000000,19422.000000,58310.000000
22391.000000,10521.000000,19399.000000,58285.000000
22429.000000,10491.000000,19409.000000,58335.000000
22425.000000,10483.000000,19455.000000,58207.000000
22418.000000,10474.000000,19478.000000,58251.000000
22427.000000,10497.000000,19410.000000,58239.000000
22431.000000,10498.000000,19544.000000,58167.000000
22442.000000,10516.000000,19459.000000,58258.000000
22438.000000,10544.000000,19468.000000,58229.000000
22519.000000,10533.000000,19519.000000,58140.000000
22494.000000,10550.000000,19467.000000,58274.000000
22496.000000,10566.000000,19563.000000,58183.000000
22514.000000,10589.000000,19560.000000,58247.000000
22530.000000,10584.000000,19518.000000,58239.000000
22539.000000,10622.000000,19627.000000,58155.000000
22556.000000,10554.000000,19595.000000,58163.000000
22550.000000,10593.000000,19548.000000,58249.000000
22572.000000,10596.000000,19512.000000,58265.000000
22576.000000,10591.000000,19605.000000,58299.000000
22607.000000,10622.000000,19575.000000,58286.000000
22557.000000,10572.000000,19601.000000,58242.000000
22577.000000,10612.000000,19633.000000,58300.000000
22564.000000,10596.000000,19622.000000,58303.000000
22567.000000,10578.000000,19689.000000,58250.000000
22559.000000,10598.000000,19631.000000,58254.000000
22538.000000,10588.000000,19602.000000,58343.000000
22536.000000,10617.000000,19608.000000,58276.000000
22524.000000,10563.000000,19606.000000,58371.000000
22492.000000,10561.000000,19622.000000,58313.000000
22475.000000,10556.000000,19647.000000,58248.000000
22490.000000,10559.000000,19565.000000,58321.000000
22483.000000,10521.000000,19564.000000,58310.000000
22484.000000,10537.000000,19549.000000,58216.000000
22448.000000,10530.000000,19593.000000,58274.000000
22471.000000,10504.000000,19540.000000,58359.000000
22439.000000,10513.000000,19490.000000,58323.000000
22440.000000,10495.000000,19482.000000,58342.000000
22425.000000,10449.000000,19494.000000,58293.000000
22400.000000,10484.000000,19512.000000,58269.000000
22390.000000,10476.000000,19624.000000,58203.000000
22367.000000,10441.000000,19548.000000,58234.000000
22356.000000,10447.000000,19600.000000,58166.000000
22386.000000,10443.000000,19539.000000,58257.000000
22386.000000,10426.000000,19568.000000,58303.000000
22338.000000,10394.000000,19575.000000,58292.000000
22299.000000,10417.000000,19560.000000,58304.000000
22337.000000,10409.000000,19592.000000,58393.000000
22337.000000,10416.000000,19622.000000,58264.000000
22304.000000,10427.000000,19643.000000,58292.000000
22309.000000,10388.000000,19573.000000,58323.000000
22303.000000,10368.000000,19594.000000,58322.000000
22242.000000,10376.000000,19585.000000,58226.000000
22247.000000,10436.000000,19506.000000,58303.000000
22249.000000,10348.000000,19505.000000,58292.000000
22188.000000,10356.000000,19590.000000,58369.000000
22215.000000,10331.000000,19582.000000,58291.000000
22207.000000,10327.000000,19644.000000,58362.000000
22224.000000,10347.000000,19665.000000,58347.000000
22220.000000,10273.000000,19616.000000,58295.000000
22167.000000,10332.000000,19680.000000,58246.000000
22232.000000,10347.000000,19648.000000,58282.000000
22200.000000,10331.000000,19600.000000,58308.000000
22240.000000,10334.000000,19694.000000,58337.000000
22213.000000,10362.000000,19715.000000,58353.000000
22237.000000,10351.000000,19798.000000,58439.000000
22236.000000,10369.000000,19812.000000,58430.000000
22246.000000,10350.000000,19912.000000,58390.000000
22233.000000,10404.000000,19911.000000,58413.000000
22267.000000,10388.000000,19967.000000,58422.000000
22270.000000,10341.000000,20039.000000,58478.000000
22285.000000,10346.000000,20028.000000,58569.000000
22310.000000,10358.000000,20128.000000,58599.000000
22305.000000,10373.000000,20110.000000,58736.000000
22273.000000,10367.000000,20189.000000,58736.000000
22294.000000,10362.000000,20270.000000,58689.000000
22230.000000,10351.000000,20374.000000,58758.000000
22254.000000,10342.000000,20480.000000,58658.000000
22232.000000,10330.000000,20471.000000,58698.000000
22218.000000,10292.000000,20455.000000,58819.000000
22229.000000,10274.000000,20433.000000,58864.000000
22221.000000,10260.000000,20490.000000,58904.000000
22171.000000,10252.000000,20512.000000,58860.000000
22166.000000,10255.000000,20557.000000,58847.000000
22140.000000,10230.000000,20671.000000,58813.000000
22096.000000,10256.000000,20557.000000,58812.000000
22150.000000,10233.000000,20529.000000,58835.000000
22128.000000,10192.000000,20490.000000,58801.000000
22107.000000,10205.000000,20457.000000,58890.000000
22084.000000,10179.000000,20483.000000,58853.000000
22071.000000,10180.000000,20403.000000,58918.000000
22034.000000,10205.000000,20517.000000,58824.000000
22045.000000,10161.000000,20510.000000,58810.000000
22048.000000,10173.000000,20558.000000,58762.000000
22013.000000,10199.000000,20547.000000,58666.000000
22051.000000,10182.000000,20437.000000,58790.000000
22089.000000,10211.000000,20401.000000,58771.000000
22078.000000,10180.000000,20340.000000,58816.000000
22079.000000,10223.000000,20423.000000,58770.000000
22104.000000,10183.000000,20400.000000,58857.000000
22061.000000,10229.000000,20399.000000,58854.000000
22081.000000,10192.000000,20436.000000,58777.000000
22113.000000,10209.000000,20478.000000,58776.000000
22111.000000,10199.000000,20402.000000,58755.000000
22095.000000,10183.000000,20420.000000,58757.000000
22110.000000,10201.000000,20472.000000,58681.000000
22094.000000,10219.000000,20385.000000,58722.000000
22078.000000,10181.000000,20418.000000,58739.000000
22085.000000,10221.000000,20325.000000,58757.000000
22025.000000,10213.000000,20340.000000,58768.000000
22050.000000,10168.000000,20291.000000,58851.000000
22014.000000,10162.000000,20360.000000,58756.000000
21997.000000,10153.000000,20408.000000,58720.000000
21999.000000,10089.000000,20447.000000,58753.000000
21953.000000,10110.000000,20371.000000,58687.000000
22006.000000,10074.000000,20390.000000,58690.000000
21967.000000,10125.000000,20489.000000,58638.000000
21947.000000,10126.000000,20385.000000,58692.000000
21954.000000,10108.000000,20382.000000,58729.000000
21978.000000,10122.000000,20372.000000,58718.000000
21927.000000,10118.000000,20252.000000,58772.000000
21952.000000,10086.000000,20357.000000,58760.000000
21915.000000,10063.000000,20380.000000,58739.000000
21927.000000,10084.000000,20410.000000,58780.000000
21921.000000,10067.000000,20362.000000,58718.000000
21920.000000,10070.000000,20356.000000,58714.000000
21902.000000,10052.000000,20419.000000,58636.000000
21939.000000,10057.000000,20423.000000,58634.000000
21878.000000,10101.000000,20322.000000,58720.000000
21942.000000,10074.000000,20354.000000,58727.000000
21917.000000,10057.000000,20262.000000,58770.000000
21916.000000,10074.000000,20378.000000,58721.000000
21913.000000,10051.000000,20373.000000,58693.000000
21912.000000,10053.000000,20372.000000,58693.000000
21923.000000,10049.000000,20428.000000,58599.000000
21885.000000,10037.000000,20350.000000,58701.000000
21904.000000,10029.000000,20339.000000,58616.000000
21875.000000,10061.000000,20306.000000,58712.000000
21918.000000,10041.000000,20313.000000,58745.000000
21876.000000,10046.000000,20394.000000,58658.000000
21877.000000,10022.000000,20429.000000,58689.000000
21842.000000,10052.000000,20410.000000,58726.000000
21913.000000,10036.000000,20415.000000,58674.000000
21870.000000,10020.000000,20410.000000,58678.000000
21891.000000,10025.000000,20416.000000,58694.000000
21865.000000,10049.000000,20484.000000,58625.000000
21889.000000,10021.000000,20535.000000,58674.000000
21876.000000,10048.000000,20657.000000,58637.000000
21897.000000,10021.000000,20676.000000,58663.000000
21922.000000,10052.000000,20748.000000,58705.000000
21904.000000,10063.000000,20725.000000,58629.000000
21942.000000,10092.000000,20606.000000,58702.000000
21932.000000,10098.000000,20612.000000,58721.000000
21974.000000,10138.000000,20661.000000,58558.000000
22008.000000,10145.000000,20659.000000,58668.000000
22016.000000,10178.000000,20637.000000,58685.000000
22052.000000,10224.000000,20702.000000,58661.000000
22099.000000,10204.000000,20625.000000,58691.000000
22117.000000,10277.000000,20637.000000,58674.000000
22158.000000,10291.000000,20696.000000,58602.000000
22209.000000,10315.000000,20670.000000,58625.000000
22225.000000,10358.000000,20645.000000,58617.000000
22247.000000,10391.000000,20644.000000,58576.000000
22278.000000,10410.000000,20569.000000,58666.000000
22309.000000,10439.000000,20560.000000,58698.000000
22346.000000,10430.000000,20567.000000,58678.000000
22379.000000,10470.000000,20586.000000,58595.000000
22391.000000,10490.000000,20622.000000,58628.000000
22391.000000,10522.000000,20667.000000,58564.000000
22407.000000,10499.000000,20703.000000,58577.000000
22445.000000,10538.000000,20594.000000,58638.000000
22406.000000,10497.000000,20625.000000,58607.000000
22413.000000,10515.000000,20503.000000,58689.000000
22396.000000,10516.000000,20528.000000,58665.000000
22428.000000,10516.000000,20532.000000,58699.000000
22396.000000,10473.000000,20594.000000,58643.000000
22392.000000,10501.000000,20607.000000,58593.000000
22417.000000,10470.000000,20676.000000,58535.000000
22396.000000,10486.000000,20674.000000,58493.000000
22357.000000,10496.000000,20658.000000,58575.000000
22411.000000,10488.000000,20634.000000,58578.000000
22363.000000,10513.000000,20627.000000,58622.000000
22376.000000,10475.000000,20622.000000,58730.000000
22333.000000,10468.000000,20650.000000,58703.000000
22326.000000,10423.000000,20661.000000,58632.000000
22351.000000,10470.000000,20617.000000,58614.000000
22307.000000,10421.000000,20670.000000,58583.000000
22327.000000,10417.000000,20609.000000,58583.000000
22302.000000,10420.000000,20504.000000,58665.000000
22304.000000,10392.000000,20493.000000,58705.000000
22251.000000,10396.000000,20646.000000,58584.000000
22307.000000,10404.000000,20574.000000,58624.000000
22283.000000,10397.000000,20659.000000,58619.000000
22275.000000,10397.000000,20730.000000,58557.000000
22290.000000,10373.000000,20674.000000,58476.000000
22308.000000,10367.000000,20591.000000,58502.000000
22280.000000,10385.000000,20603.000000,58569.000000
22302.000000,10368.000000,20530.000000,58568.000000
22306.000000,10408.000000,20450.000000,58682.000000
22297.000000,10385.000000,20537.000000,58659.000000
22325.000000,10412.000000,20561.000000,58559.000000
22276.000000,10390.000000,20544.000000,58551.000000
22347.000000,10405.000000,20531.000000,58553.000000
22315.000000,10408.000000,20518.000000,58506.000000
22306.000000,10367.000000,20519.000000,58477.000000
22325.000000,10440.000000,20398.000000,58520.000000
22298.000000,10393.000000,20424.000000,58602.000000
22302.000000,10379.000000,20399.000000,58603.000000
22311.000000,10408.000000,20494.000000,58548.000000
22327.000000,10399.000000,20468.000000,58546.000000
22300.000000,10359.000000,20520.000000,58592.000000
22336.000000,10411.000000,20593.000000,58537.000000
22336.000000,10405.000000,20663.000000,58508.000000
22302.000000,10389.000000,20625.000000,58481.000000
22313.000000,10380.000000,20535.000000,58512.000000
22318.000000,10358.000000,20554.000000,58576.000000
22301.000000,10358.000000,20524.000000,58583.000000
22320.000000,10371.000000,20433.000000,58647.000000
22301.000000,10356.000000,20500.000000,58691.000000
22279.000000,10360.000000,20662.000000,58616.000000
22276.000000,10343.000000,20604.000000,58584.000000
22296.000000,10354.000000,20600.000000,58594.000000
22270.000000,10389.000000,20578.000000,58574.000000
22302.000000,10361.000000,20565.000000,58564.000000
22252.000000,10366.000000,20610.000000,58564.000000
22279.000000,10337.000000,20505.000000,58653.000000
22253.000000,10313.000000,20559.000000,58662.000000
22280.000000,10349.000000,20601.000000,58723.000000
22265.000000,10336.000000,20634.000000,58679.000000
22238.000000,10294.000000,20687.000000,58666.000000
22304.000000,10306.000000,20688.000000,58624.000000
22259.000000,10315.000000,20779.000000,58658.000000
22268.000000,10310.000000,20842.000000,58670.000000
22284.000000,10330.000000,20815.000000,58611.000000
22265.000000,10305.000000,20831.000000,58690.000000
22252.000000,10310.000000,20838.000000,58754.000000
22239.000000,10311.000000,20884.000000,58847.000000
22250.000000,10321.000000,20997.000000,58842.000000
22233.000000,10299.000000,21038.000000,58861.000000
22208.000000,10269.000000,21122.000000,58917.000000
22199.000000,10252.000000,21234.000000,58872.000000
22198.000000,10253.000000,21281.000000,58923.000000
22221.000000,10257.000000,21276.000000,58906.000000
22165.000000,10228.000000,21302.000000,59005.000000
22180.000000,10239.000000,21306.000000,59046.000000
22172.000000,10285.000000,21389.000000,59097.000000
22167.000000,10212.000000,21461.000000,59099.000000
22178.000000,10230.000000,21499.000000,59089.000000
22127.000000,10212.000000,21484.000000,59105.000000
22153.000000,10244.000000,21474.000000,59150.000000
22114.000000,10189.000000,21505.000000,59110.000000
22158.000000,10231.000000,21535.000000,59066.000000
22118.000000,10212.000000,21519.000000,59078.000000
22103.000000,10165.000000,21425.000000,59080.000000
22127.000000,10172.000000,21423.000000,59132.000000
22103.000000,10198.000000,21443.000000,59138.000000
22117.000000,10187.000000,21478.000000,59067.000000
22115.000000,10144.000000,21471.000000,59091.000000
22088.000000,10201.000000,21396.000000,59062.000000
22080.000000,10168.000000,21412.000000,59069.000000
22071.000000,10169.000000,21420.000000,59099.000000
22086.000000,10157.000000,21434.000000,59068.000000
22035.000000,10159.000000,21435.000000,59064.000000
22090.000000,10167.000000,21353.000000,59006.000000
22016.000000,10155.000000,21341.000000,59063.000000
22056.000000,10118.000000,21362.000000,59073.000000
22054.000000,10121.000000,21333.000000,59108.000000
22022.000000,10074.000000,21350.000000,59012.000000
21996.000000,10103.000000,21403.000000,58990.000000
22002.000000,10081.000000,21368.000000,59020.000000
22006.000000,10090.000000,21305.000000,59020.000000
21972.000000,10068.000000,21310.000000,58994.000000
21963.000000,10052.000000,21289.000000,59066.000000
21985.000000,10093.000000,21314.000000,59065.000000
21972.000000,10064.000000,21293.000000,59075.000000
21973.000000,10082.000000,21289.000000,59047.000000
21964.000000,10065.000000,21231.000000,58958.000000
21960.000000,10104.000000,21284.000000,58996.000000
21981.000000,10113.000000,21323.000000,58951.000000
22004.000000,10103.000000,21316.000000,58969.000000
22005.000000,10145.000000,21263.000000,58973.000000
22022.000000,10148.000000,21231.000000,58916.000000
21983.000000,10112.000000,21206.000000,58998.000000
22019.000000,10122.000000,21168.000000,58989.000000
22020.000000,10138.000000,21142.000000,58989.000000
22025.000000,10150.000000,21165.000000,59018.000000
22039.000000,10129.000000,21174.000000,59064.000000
22001.000000,10133.000000,21253.000000,58992.000000
22014.000000,10137.000000,21226.000000,58990.000000
22034.000000,10140.000000,21241.000000,58916.000000
22029.000000,10122.000000,21261.000000,58904.000000
22001.000000,10120.000000,21198.000000,58957.000000
22030.000000,10125.000000,21182.000000,58947.000000
22012.000000,10100.000000,21161.000000,58995.000000
21975.000000,10094.000000,21141.000000,58990.000000
21991.000000,10092.000000,21165.000000,59013.000000
21944.000000,10078.000000,21211.000000,59051.000000
21926.000000,10055.000000,21244.000000,58933.000000
21905.000000,10079.000000,21247.000000,58993.000000
21915.000000,10054.000000,21245.000000,58918.000000
21850.000000,10073.000000,21231.000000,58918.000000
21889.000000,10026.000000,21179.000000,58895.000000
21825.000000,10018.000000,21145.000000,58869.000000
21845.000000,10007.000000,21097.000000,58930.000000
21863.000000,10028.000000,21060.000000,58933.000000
21875.000000,10009.000000,21059.000000,58957.000000
21866.000000,9990.000000,21056.000000,59022.000000
21888.000000,10027.000000,21064.000000,58966.000000
21897.000000,10028.000000,21071.000000,59018.000000
21924.000000,10010.000000,21029.000000,58944.000000
21926.000000,10053.000000,21074.000000,58964.000000
21937.000000,10065.000000,21038.000000,58904.000000
21966.000000,10084.000000,21113.000000,58847.000000
21972.000000,10076.000000,21144.000000,58763.000000
22003.000000,10130.000000,21088.000000,58825.000000
21982.000000,10104.000000,20981.000000,58840.000000
22035.000000,10099.000000,20988.000000,58834.000000
21998.000000,10086.000000,20926.000000,58833.000000
21982.000000,10099.000000,20947.000000,58932.000000
21962.000000,10082.000000,20941.000000,58963.000000
21964.000000,10093.000000,20984.000000,58986.000000
21978.000000,10080.000000,21018.000000,58922.000000
21935.000000,10085.000000,21007.000000,58890.000000
21912.000000,10076.000000,21089.000000,58809.000000
21922.000000,10067.000000,21099.000000,58784.000000
21924.000000,10091.000000,21087.000000,58736.000000
21908.000000,10078.000000,20985.000000,58825.000000
21896.000000,10080.000000,20986.000000,58798.000000
21883.000000,10063.000000,20890.000000,58866.000000
21906.000000,10071.000000,20870.000000,58836.000000
21923.000000,10083.000000,20835.000000,58848.000000
21916.000000,10098.000000,20853.000000,58871.000000
21952.000000,10138.000000,20888.000000,58875.000000
21981.000000,10134.000000,20905.000000,58875.000000
21972.000000,10164.000000,20990.000000,58756.000000
22024.000000,10191.000000,20950.000000,58737.000000
22033.000000,10156.000000,20975.000000,58720.000000
22089.000000,10221.000000,20908.000000,58659.000000
22099.000000,10264.000000,20841.000000,58691.000000
22179.000000,10316.000000,20827.000000,58667.000000
22184.000000,10342.000000,20745.000000,58832.000000
22206.000000,10388.000000,20681.000000,58813.000000
22264.000000,10365.000000,20766.000000,58810.000000
22300.000000,10402.000000,20821.000000,58780.000000
22312.000000,10436.000000,20866.000000,58728.000000
22377.000000,10478.000000,20871.000000,58691.000000
22406.000000,10500.000000,20848.000000,58654.000000
22402.000000,10537.000000,20798.000000,58618.000000
22468.000000,10558.000000,20780.000000,58588.000000
22476.000000,10562.000000,20696.000000,58703.000000
22480.000000,10573.000000,20761.000000,58654.000000
22523.000000,10601.000000,20692.000000,58703.000000
22503.000000,10613.000000,20674.000000,58725.000000
22536.000000,10610.000000,20610.000000,58823.000000
22538.000000,10590.000000,20710.000000,58824.000000
22532.000000,10610.000000,20684.000000,58740.000000
22533.000000,10590.000000,20827.000000,58705.000000
22520.000000,10613.000000,20822.000000,58677.000000
22485.000000,10580.000000,20878.000000,58582.000000
22501.000000,10617.000000,20735.000000,58574.000000
22537.000000,10602.000000,20703.000000,58628.000000
22540.000000,10569.000000,20647.000000,58694.000000
22517.000000,10594.000000,20594.000000,58765.000000
22494.000000,10613.000000,20642.000000,58791.000000
22509.000000,10607.000000,20641.000000,58767.000000
22506.000000,10575.000000,20762.000000,58724.000000
22504.000000,10599.000000,20750.000000,58701.000000
22513.000000,10602.000000,20812.000000,58653.000000
22514.000000,10590.000000,20788.000000,58581.000000
22509.000000,10589.000000,20678.000000,58626.000000
22518.000000,10560.000000,20638.000000,58585.000000
22487.000000,10573.000000,20575.000000,58695.000000
22456.000000,10580.000000,20559.000000,58684.000000
22477.000000,10554.000000,20604.000000,58731.000000
22476.000000,10547.000000,20515.000000,58729.000000
22485.000000,10544.000000,20587.000000,58716.000000
22477.000000,10545.000000,20604.000000,58751.000000
22477.000000,10565.000000,20721.000000,58599.000000
22427.000000,10560.000000,20659.000000,58591.000000
22439.000000,10491.000000,20688.000000,58523.000000
22430.000000,10563.000000,20572.000000,58518.000000
22426.000000,10552.000000,20559.000000,58566.000000
22449.000000,10546.000000,20479.000000,58645.000000
22473.000000,10547.000000,20448.000000,58679.000000
22477.000000,10536.000000,20491.000000,58675.000000
22472.000000,10579.000000,20517.000000,58700.000000
22452.000000,10536.000000,20624.000000,58621.000000
22480.000000,10538.000000,20704.000000,58623.000000
22476.000000,10512.000000,20652.000000,58608.000000
22414.000000,10539.000000,20692.000000,58535.000000
22442.000000,10559.000000,20599.000000,58568.000000
22494.000000,10549.000000,20634.000000,58499.000000
22450.000000,10508.000000,20593.000000,58587.000000
22456.000000,10526.000000,20511.000000,58502.000000
22428.000000,10517.000000,20450.000000,58662.000000
22420.000000,10520.000000,20453.000000,58707.000000
22424.000000,10502.000000,20470.000000,58684.000000
22419.000000,10506.000000,20526.000000,58670.000000
22403.000000,10460.000000,20637.000000,58612.000000
22388.000000,10465.000000,20697.000000,58544.000000
22387.000000,10459.000000,20642.000000,58516.000000
22396.000000,10468.000000,20686.000000,58538.000000
22388.000000,10463.000000,20511.000000,58660.000000
22346.000000,10464.000000,20459.000000,58689.000000
22358.000000,10429.000000,20453.000000,58686.000000
22340.000000,10456.000000,20467.000000,58757.000000
22332.000000,10431.000000,20624.000000,58663.000000
22368.000000,10405.000000,20616.000000,58702.000000
22310.000000,10438.000000,20689.000000,58601.000000
22344.000000,10449.000000,20724.000000,58657.000000
22309.000000,10401.000000,20700.000000,58567.000000
22311.000000,10430.000000,20808.000000,58557.000000
22305.000000,10418.000000,20663.000000,58620.000000
22337.000000,10390.000000,20693.000000,58694.000000
22299.000000,10422.000000,20596.000000,58768.000000
22283.000000,10410.000000,20676.000000,58794.000000
22297.000000,10412.000000,20703.000000,58850.000000
22275.000000,10386.000000,20861.000000,58856.000000
22279.000000,10381.000000,21057.000000,58725.000000
22297.000000,10383.000000,21011.000000,58812.000000
22324.000000,10402.000000,21002.000000,58783.000000
22293.000000,10400.000000,20996.000000,58915.000000
22295.000000,10359.000000,21021.000000,59029.000000
22260.000000,10389.000000,21185.000000,58921.000000
22280.000000,10392.000000,21303.000000,59192.000000
22251.000000,10365.000000,21291.000000,59056.000000
22221.000000,10361.000000,21326.000000,59091.000000
22224.000000,10342.000000,21395.000000,59054.000000
22257.000000,10345.000000,21393.000000,59181.000000
22214.000000,10348.000000,21551.000000,59213.000000
22213.000000,10294.000000,21557.000000,59048.000000
22224.000000,10342.000000,21521.000000,59042.000000
22225.000000,10356.000000,21430.000000,59121.000000
22229.000000,10362.000000,21329.000000,59211.000000
22200.000000,10336.000000,21293.000000,59274.000000
22192.000000,10313.000000,21370.000000,59292.000000
22187.000000,10308.000000,21449.000000,59265.000000
22175.000000,10327.000000,21525.000000,59161.000000
22151.000000,10273.000000,21562.000000,59015.000000
22145.000000,10264.000000,21574.000000,58988.000000
22131.000000,10315.000000,21486.000000,59048.000000
22137.000000,10264.000000,21453.000000,59157.000000
22173.000000,10293.000000,21298.000000,59292.000000
22150.000000,10285.000000,21329.000000,59260.000000
22097.000000,10289.000000,21448.000000,59220.000000
22104.000000,10250.000000,21437.000000,59243.000000
22089.000000,10253.000000,21563.000000,59004.000000
22125.000000,10247.000000,21607.000000,58968.000000
22085.000000,10248.000000,21409.000000,59115.000000
22094.000000,10227.000000,21319.000000,59193.000000
22064.000000,10250.000000,21302.000000,59304.000000
22080.000000,10224.000000,21346.000000,59226.000000
22057.000000,10177.000000,21417.000000,59143.000000
22061.000000,10222.000000,21493.000000,59133.000000
22032.000000,10252.000000,21544.000000,58982.000000
22048.000000,10182.000000,21526.000000,58969.000000
22032.000000,10189.000000,21360.000000,59150.000000
22039.000000,10160.000000,21274.000000,59168.000000
22012.000000,10165.000000,21256.000000,59209.000000
22051.000000,10178.000000,21329.000000,59248.000000
22010.000000,10163.000000,21364.000000,59145.000000
22044.000000,10185.000000,21467.000000,59123.000000
22045.000000,10199.000000,21506.000000,59034.000000
22059.000000,10184.000000,21499.000000,58986.000000
22048.000000,10203.000000,21411.000000,59030.000000
22097.000000,10216.000000,21297.000000,59097.000000
22063.000000,10207.000000,21260.000000,59176.000000
22116.000000,10200.000000,21279.000000,59176.000000
22117.000000,10206.000000,21393.000000,59131.000000
22060.000000,10184.000000,21502.000000,59050.000000
22070.000000,10199.000000,21550.000000,58966.000000
22052.000000,10169.000000,21482.000000,58972.000000
22060.000000,10198.000000,21387.000000,59061.000000
22050.000000,10203.000000,21278.000000,59110.000000
22071.000000,10195.000000,21220.000000,59204.000000
22083.000000,10183.000000,21273.000000,59224.000000
22087.000000,10177.000000,21383.000000,59219.000000
22058.000000,10203.000000,21418.000000,59174.000000
22029.000000,10164.000000,21464.000000,59098.000000
22052.000000,10203.000000,21520.000000,58961.000000
22044.000000,10149.000000,21441.000000,58984.000000
22001.000000,10196.000000,21259.000000,59082.000000
22027.000000,10150.000000,21252.000000,59129.000000
22030.000000,10192.000000,21269.000000,59167.000000
21978.000000,10152.000000,21272.000000,59192.000000
21987.000000,10131.000000,21407.000000,59117.000000
21968.000000,10149.000000,21406.000000,59076.000000
21946.000000,10130.000000,21433.000000,58909.000000
21975.000000,10128.000000,21419.000000,58942.000000
21975.000000,10124.000000,21346.000000,59035.000000
21996.000000,10118.000000,21228.000000,59080.000000
21927.000000,10113.000000,21448.000000,58894.000000
21942.000000,10124.000000,21428.000000,59007.000000
21939.000000,10099.000000,21257.000000,59028.000000
21928.000000,10110.000000,21234.000000,59076.000000
21967.000000,10114.000000,21154.000000,59104.000000
21936.000000,10097.000000,21184.000000,59161.000000
21920.000000,10105.000000,21277.000000,59014.000000
21969.000000,10093.000000,21280.000000,59043.000000
21942.000000,10127.000000,21249.000000,58894.000000
21911.000000,10112.000000,21268.000000,58875.000000
21922.000000,10102.000000,21232.000000,58934.000000
21906.000000,10097.000000,21096.000000,58957.000000
21907.000000,10074.000000,21031.000000,59035.000000
21913.000000,10108.000000,21036.000000,59059.000000
21894.000000,10070.000000,21087.000000,59088.000000
21900.000000,10100.000000,21251.000000,58953.000000
21886.000000,10121.000000,21225.000000,58809.000000
21891.000000,10080.000000,21123.000000,58880.000000
21886.000000,10082.000000,20983.000000,58908.000000
21882.000000,10084.000000,20948.000000,58942.000000
21901.000000,10051.000000,20910.000000,59009.000000
21902.000000,10079.000000,20940.000000,59022.000000
21900.000000,10075.000000,21027.000000,58980.000000
21911.000000,10080.000000,21075.000000,58814.000000
21920.000000,10088.000000,21024.000000,58784.000000
21917.000000,10148.000000,21065.000000,58739.000000
21961.000000,10108.000000,21041.000000,58820.000000
22003.000000,10153.000000,20825.000000,58860.000000
21990.000000,10159.000000,20799.000000,58946.000000
22016.000000,10178.000000,20849.000000,59017.000000
21994.000000,10191.000000,20867.000000,58978.000000
22002.000000,10209.000000,21009.000000,58726.000000
22054.000000,10209.000000,20979.000000,58745.000000
22095.000000,10258.000000,20899.000000,58789.000000
22120.000000,10266.000000,20852.000000,58863.000000
22122.000000,10325.000000,20770.000000,58907.000000
22201.000000,10366.000000,20677.000000,58960.000000
22221.000000,10399.000000,20882.000000,58843.000000
22295.000000,10408.000000,20921.000000,58812.000000
22304.000000,10454.000000,20913.000000,58709.000000
22401.000000,10497.000000,20908.000000,58691.000000
22414.000000,10518.000000,20809.000000,58746.000000
22456.000000,10546.000000,20705.000000,58916.000000
22472.000000,10597.000000,20708.000000,58923.000000
22523.000000,10595.000000,20765.000000,58915.000000
22543.000000,10646.000000,20826.000000,58798.000000
22554.000000,10623.000000,20917.000000,58718.000000
22567.000000,10646.000000,20886.000000,58688.000000
22596.000000,10688.000000,20886.000000,58744.000000
22588.000000,10668.000000,20806.000000,58796.000000
22601.000000,10675.000000,20681.000000,58839.000000
22617.000000,10639.000000,20678.000000,58966.000000
22609.000000,10695.000000,20761.000000,58988.000000
22626.000000,10675.000000,20826.000000,58878.000000
22597.000000,10670.000000,20910.000000,58729.000000
22595.000000,10658.000000,20931.000000,58672.000000
22625.000000,10659.000000,20914.000000,58753.000000
22568.000000,10656.000000,20849.000000,58713.000000
22611.000000,10657.000000,20830.000000,58751.000000
22605.000000,10659.000000,20675.000000,58891.000000
22582.000000,10664.000000,20700.000000,58929.000000
22568.000000,10638.000000,20663.000000,58931.000000
22540.000000,10663.000000,20814.000000,58879.000000
22562.000000,10657.000000,20896.000000,58805.000000
22558.000000,10640.000000,20863.000000,58693.000000
22541.000000,10610.000000,20746.000000,58716.000000
22558.000000,10611.000000,20622.000000,58859.000000
22538.000000,10602.000000,20634.000000,58892.000000
22515.000000,10621.000000,20727.000000,58926.000000
22501.000000,10588.000000,20754.000000,58836.000000
22518.000000,10604.000000,20868.000000,58725.000000
22501.000000,10574.000000,20891.000000,58711.000000
22520.000000,10574.000000,20786.000000,58689.000000
22536.000000,10582.000000,20594.000000,58868.000000
22457.000000,10599.000000,20647.000000,58959.000000
22510.000000,10575.000000,20644.000000,58898.000000
22479.000000,10587.000000,20830.000000,58728.000000
22473.000000,10583.000000,20812.000000,58678.000000
22480.000000,10601.000000,20751.000000,58620.000000
22507.000000,10571.000000,20704.000000,58720.000000
22495.000000,10574.000000,20638.000000,58794.000000
22481.000000,10537.000000,20530.000000,58835.000000
22455.000000,10597.000000,20623.000000,58906.000000
22488.000000,10566.000000,20572.000000,58891.000000
22516.000000,10582.000000,20701.000000,58877.000000
22489.000000,10574.000000,20696.000000,58834.000000
22488.000000,10549.000000,20773.000000,58788.000000
22500.000000,10578.000000,20891.000000,58700.000000
22473.000000,10534.000000,20877.000000,58676.000000
22461.000000,10556.000000,20755.000000,58722.000000
22472.000000,10560.000000,20702.000000,58833.000000
22447.000000,10545.000000,20681.000000,58933.000000
22466.000000,10526.000000,20710.000000,58905.000000
22443.000000,10523.000000,21016.000000,58782.000000
22437.000000,10545.000000,21066.000000,58679.000000
22455.000000,10531.000000,20997.000000,58761.000000
22438.000000,10537.000000,20981.000000,58790.000000
22453.000000,10492.000000,20857.000000,58932.000000
22434.000000,10493.000000,20896.000000,59023.000000
22446.000000,10511.000000,20909.000000,59109.000000
22437.000000,10489.000000,21031.000000,59133.000000
22419.000000,10509.000000,21372.000000,58960.000000
22427.000000,10528.000000,21337.000000,58934.000000
22413.000000,10486.000000,21334.000000,58920.000000
22402.000000,10502.000000,21326.000000,59068.000000
22380.000000,10496.000000,21236.000000,59194.000000
22391.000000,10514.000000,21274.000000,59212.000000
22401.000000,10454.000000,21345.000000,59312.000000
22354.000000,10469.000000,21442.000000,59325.000000
22383.000000,10425.000000,21668.000000,59152.000000
22364.000000,10437.000000,21668.000000,59103.000000
22395.000000,10451.000000,21635.000000,59110.000000
22417.000000,10512.000000,21631.000000,59190.000000
22407.000000,10456.000000,21445.000000,59255.000000
22394.000000,10477.000000,21419.000000,59389.000000
22351.000000,10457.000000,21607.000000,59367.000000
22372.000000,10459.000000,21658.000000,59296.000000
22345.000000,10471.000000,21711.000000,59150.000000
22326.000000,10437.000000,21664.000000,59090.000000
22342.000000,10430.000000,21556.000000,59239.000000
22331.000000,10430.000000,21518.000000,59244.000000
22334.000000,10399.000000,21457.000000,59358.000000
22308.000000,10431.000000,21432.000000,59374.000000
22293.000000,10413.000000,21497.000000,59211.000000
22282.000000,10400.000000,21479.000000,59252.000000
22258.000000,10428.000000,21557.000000,59194.000000
22295.000000,10416.000000,21541.000000,59222.000000
22273.000000,10378.000000,21454.000000,59279.000000
22271.000000,10378.000000,21424.000000,59129.000000
22251.000000,10368.000000,21611.000000,59119.000000
22246.000000,10326.000000,21526.000000,59239.000000
22273.000000,10366.000000,21515.000000,59246.000000
22238.000000,10338.000000,21510.000000,59262.000000
22241.000000,10356.000000,21503.000000,59248.000000
22244.000000,10338.000000,21531.000000,59245.000000
22229.000000,10362.000000,21515.000000,59263.000000
22225.000000,10308.000000,21517.000000,59268.000000
22188.000000,10362.000000,21530.000000,59253.000000
22165.000000,10332.000000,21495.000000,59263.000000
22178.000000,10334.000000,21517.000000,59243.000000
22160.000000,10284.000000,21501.000000,59263.000000
22162.000000,10325.000000,21510.000000,59234.000000
22152.000000,10281.000000,21500.000000,59200.000000
22145.000000,10265.000000,21497.000000,59211.000000
22184.000000,10290.000000,21467.000000,59230.000000
22144.000000,10278.000000,21461.000000,59244.000000
22165.000000,10297.000000,21454.000000,59229.000000
22162.000000,10267.000000,21438.000000,59219.000000
22152.000000,10287.000000,21444.000000,59258.000000
22139.000000,10269.000000,21458.000000,59210.000000
22173.000000,10257.000000,21436.000000,59221.000000
22119.000000,10263.000000,21413.000000,59181.000000
22158.000000,10255.000000,21442.000000,59220.000000
22145.000000,10242.000000,21418.000000,59214.000000
22147.000000,10254.000000,21396.000000,59185.000000
22139.000000,10261.000000,21395.000000,59196.000000
22171.000000,10237.000000,21407.000000,59166.000000
22125.000000,10283.000000,21381.000000,59204.000000
22155.000000,10258.000000,21391.000000,59188.000000
22149.000000,10274.000000,21367.000000,59143.000000
22157.000000,10239.000000,21357.000000,59155.000000
22124.000000,10242.000000,21341.000000,59164.000000
22119.000000,10248.000000,21353.000000,59162.000000
22122.000000,10240.000000,21299.000000,59147.000000
22154.000000,10285.000000,21293.000000,59139.000000
22130.000000,10285.000000,21304.000000,59133.000000
22108.000000,10259.000000,21285.000000,59125.000000
22112.000000,10243.000000,21275.000000,59112.000000
22099.000000,10208.000000,21289.000000,59082.000000
22120.000000,10210.000000,21249.000000,59090.000000
22115.000000,10208.000000,21249.000000,59112.000000
22061.000000,10219.000000,21201.000000,59074.000000
22082.000000,10228.000000,21228.000000,59087.000000
22054.000000,10185.000000,21215.000000,59097.000000
22060.000000,10181.000000,21231.000000,59089.000000
22058.000000,10203.000000,21203.000000,59074.000000
22061.000000,10208.000000,21218.000000,59045.000000
22055.000000,10179.000000,21219.000000,59077.000000
22045.000000,10168.000000,21181.000000,59061.000000
22034.000000,10190.000000,21148.000000,59066.000000
22023.000000,10190.000000,21170.000000,59040.000000
21974.000000,10145.000000,21145.000000,59048.000000
22017.000000,10167.000000,21158.000000,59047.000000
22017.000000,10097.000000,21142.000000,59013.000000
22027.000000,10113.000000,21143.000000,59021.000000
22002.000000,10151.000000,21154.000000,59032.000000
21979.000000,10160.000000,21124.000000,59054.000000
21985.000000,10125.000000,21113.000000,59026.000000
21962.000000,10123.000000,21143.000000,59034.000000
21963.000000,10125.000000,21116.000000,59014.000000
21984.000000,10134.000000,21057.000000,59032.000000
21998.000000,10145.000000,21104.000000,59029.000000
22005.000000,10121.000000,21078.000000,59005.000000
21977.000000,10142.000000,21067.000000,59001.000000
21938.000000,10116.000000,21042.000000,58977.000000
21942.000000,10100.000000,21050.000000,58979.000000
21935.000000,10132.000000,21058.000000,58974.000000
21941.000000,10139.000000,21027.000000,58964.000000
21948.000000,10109.000000,21037.000000,58991.000000
21933.000000,10105.000000,21042.000000,58965.000000
21924.000000,10085.000000,20986.000000,58987.000000
21940.000000,10100.000000,21036.000000,59003.000000
21926.000000,10105.000000,21007.000000,58971.000000
21963.000000,10142.000000,21016.000000,58979.000000
21974.000000,10144.000000,21004.000000,58957.000000
21972.000000,10139.000000,20995.000000,58964.000000
21993.000000,10117.000000,21026.000000,58957.000000
21952.000000,10132.000000,21000.000000,59017.000000
21959.000000,10153.000000,21025.000000,58956.000000
21974.000000,10132.000000,21020.000000,58994.000000
22023.000000,10169.000000,21022.000000,58980.000000
22017.000000,10190.000000,21065.000000,58987.000000
22076.000000,10209.000000,21022.000000,58976.000000
22039.000000,10209.000000,21058.000000,58977.000000
22065.000000,10233.000000,21029.000000,58976.000000
22137.000000,10251.000000,21012.000000,59024.000000
22130.000000,10272.000000,21034.000000,58995.000000
22179.000000,10324.000000,21033.000000,58993.000000
22166.000000,10341.000000,21027.000000,59004.000000
22209.000000,10348.000000,20999.000000,58978.000000
22235.000000,10420.000000,21010.000000,58981.000000
22316.000000,10409.000000,20967.000000,58933.000000
22361.000000,10434.000000,20944.000000,58945.000000
22363.000000,10453.000000,20975.000000,58946.000000
22426.000000,10508.000000,20925.000000,58943.000000
22442.000000,10540.000000,20935.000000,58919.000000
22451.000000,10557.000000,20898.000000,58907.000000
22520.000000,10604.000000,20874.000000,58914.000000
22522.000000,10598.000000,20897.000000,58898.000000
22543.000000,10620.000000,20860.000000,58858.000000
22568.000000,10649.000000,20830.000000,58849.000000
22573.000000,10655.000000,20826.000000,58867.000000
22596.000000,10662.000000,20844.000000,58892.000000
22625.000000,10668.000000,20814.000000,58839.000000
22633.000000,10658.000000,20801.000000,58859.000000
22623.000000,10674.000000,20842.000000,58887.000000
22624.000000,10663.000000,20869.000000,58870.000000
22594.000000,10686.000000,20835.000000,58907.000000
22587.000000,10674.000000,20824.000000,58858.000000
22602.000000,10646.000000,20797.000000,58874.000000
22587.000000,10640.000000,20841.000000,58893.000000
22579.000000,10651.000000,20851.000000,58883.000000
22579.000000,10650.000000,20867.000000,58902.000000
22596.000000,10637.000000,20842.000000,58870.000000
22578.000000,10671.000000,20826.000000,58889.000000
22570.000000,10678.000000,20815.000000,58875.000000
22576.000000,10626.000000,20834.000000,58862.000000
22551.000000,10618.000000,20819.000000,58853.000000
22528.000000,10623.000000,20840.000000,58897.000000
22543.000000,10626.000000,20847.000000,58911.000000
22533.000000,10604.000000,20817.000000,58871.000000
22542.000000,10616.000000,20847.000000,58899.000000
22537.000000,10606.000000,20865.000000,58891.000000
22514.000000,10581.000000,20862.000000,58887.000000
22522.000000,10606.000000,20876.000000,58907.000000
22531.000000,10566.000000,20884.000000,58922.000000
22511.000000,10595.000000,20955.000000,58928.000000
22505.000000,10599.000000,20921.000000,58927.000000
22530.000000,10583.000000,20943.000000,58957.000000
22500.000000,10567.000000,20976.000000,58941.000000
22525.000000,10560.000000,20987.000000,58983.000000
22484.000000,10560.000000,21017.000000,59013.000000
22494.000000,10569.000000,21047.000000,59017.000000
22478.000000,10586.000000,21078.000000,59046.000000
22473.000000,10541.000000,21126.000000,59065.000000
22510.000000,10578.000000,21191.000000,59068.000000
22493.000000,10562.000000,21221.000000,59114.000000
22484.000000,10561.000000,21318.000000,59157.000000
22445.000000,10539.000000,21341.000000,59176.000000
22448.000000,10517.000000,21408.000000,59210.000000
22485.000000,10555.000000,21443.000000,59230.000000
22457.000000,10527.000000,21478.000000,59323.000000
22459.000000,10532.000000,21549.000000,59293.000000
22457.000000,10521.000000,21586.000000,59342.000000
22458.000000,10529.000000,21631.000000,59364.000000
22423.000000,10535.000000,21657.000000,59381.000000
22445.000000,10526.000000,21692.000000,59394.000000
22463.000000,10534.000000,21696.000000,59405.000000
22460.000000,10473.000000,21711.000000,59415.000000
22419.000000,10499.000000,21699.000000,59421.000000
22416.000000,10518.000000,21708.000000,59459.000000
22412.000000,10486.000000,21703.000000,59408.000000
22402.000000,10519.000000,21772.000000,59408.000000
22405.000000,10495.000000,21679.000000,59403.000000
22406.000000,10479.000000,21719.000000,59428.000000
22380.000000,10475.000000,21678.000000,59413.000000
22416.000000,10478.000000,21682.000000,59379.000000
22378.000000,10479.000000,21684.000000,59400.000000
22383.000000,10448.000000,21721.000000,59372.000000
22366.000000,10471.000000,21670.000000,59400.000000
22393.000000,10445.000000,21672.000000,59405.000000
22366.000000,10459.000000,21674.000000,59371.000000
22366.000000,10481.000000,21664.000000,59373.000000
22335.000000,10462.000000,21640.000000,59358.000000
22306.000000,10428.000000,21633.000000,59366.000000
22317.000000,10424.000000,21649.000000,59365.000000
22340.000000,10400.000000,21622.000000,59362.000000
22326.000000,10398.000000,21606.000000,59372.000000
22273.000000,10402.000000,21575.000000,59341.000000
22306.000000,10423.000000,21565.000000,59369.000000
22341.000000,10403.000000,21578.000000,59326.000000
22312.000000,10385.000000,21567.000000,59341.000000
22281.000000,10417.000000,21562.000000,59343.000000
22252.000000,10372.000000,21538.000000,59364.000000
22236.000000,10376.000000,21582.000000,59307.000000
22250.000000,10357.000000,21576.000000,59319.000000
22253.000000,10367.000000,21537.000000,59307.000000
22220.000000,10356.000000,21539.000000,59307.000000
22234.000000,10325.000000,21548.000000,59327.000000
22212.000000,10349.000000,21502.000000,59256.000000
22200.000000,10345.000000,21485.000000,59288.000000
22209.000000,10308.000000,21513.000000,59288.000000
22205.000000,10290.000000,21486.000000,59294.000000
22175.000000,10325.000000,21476.000000,59280.000000
22208.000000,10334.000000,21500.000000,59281.000000
22174.000000,10303.000000,21473.000000,59267.000000
22191.000000,10304.000000,21436.000000,59269.000000
22146.000000,10293.000000,21463.000000,59270.000000
22173.000000,10315.000000,21461.000000,59251.000000
22170.000000,10296.000000,21488.000000,59273.000000
22168.000000,10254.000000,21458.000000,59256.000000
22142.000000,10267.000000,21447.000000,59276.000000
22210.000000,10255.000000,21461.000000,59274.000000
22148.000000,10246.000000,21457.000000,59273.000000
22161.000000,10275.000000,21453.000000,59304.000000
22120.000000,10262.000000,21457.000000,59269.000000
22168.000000,10273.000000,21430.000000,59290.000000
22196.000000,10258.000000,21447.000000,59251.000000
22173.000000,10285.000000,21426.000000,59296.000000
22160.000000,10261.000000,21436.000000,59272.000000
22158.000000,10295.000000,21482.000000,59252.000000
22151.000000,10288.000000,21429.000000,59296.000000
22176.000000,10298.000000,21447.000000,59250.000000
22160.000000,10259.000000,21427.000000,59279.000000
22164.000000,10292.000000,21396.000000,59244.000000
22132.000000,10276.000000,21412.000000,59252.000000
22139.000000,10280.000000,21430.000000,59264.000000
22119.000000,10268.000000,21399.000000,59257.000000
22146.000000,10269.000000,21393.000000,59232.000000
22167.000000,10262.000000,21359.000000,59257.000000
22138.000000,10275.000000,21354.000000,59212.000000
22112.000000,10237.000000,21346.000000,59235.000000
22105.000000,10249.000000,21385.000000,59224.000000
22099.000000,10227.000000,21386.000000,59218.000000
22122.000000,10226.000000,21359.000000,59266.000000
22079.000000,10222.000000,21339.000000,59220.000000
22062.000000,10226.000000,21342.000000,59208.000000
22068.000000,10194.000000,21325.000000,59225.000000
22049.000000,10180.000000,21315.000000,59210.000000
22019.000000,10193.000000,21315.000000,59195.000000
22046.000000,10195.000000,21318.000000,59194.000000
22035.000000,10212.000000,21278.000000,59176.000000
22056.000000,10202.000000,21291.000000,59209.000000
22026.000000,10147.000000,21295.000000,59192.000000
22017.000000,10180.000000,21265.000000,59178.000000
22055.000000,10182.000000,21281.000000,59187.000000
22084.000000,10184.000000,21264.000000,59157.000000
22065.000000,10205.000000,21248.000000,59170.000000
22038.000000,10178.000000,21269.000000,59179.000000
22068.000000,10198.000000,21254.000000,59169.000000
22062.000000,10204.000000,21233.000000,59177.000000
22057.000000,10189.000000,21210.000000,59141.000000
22028.000000,10214.000000,21194.000000,59137.000000
22064.000000,10198.000000,21205.000000,59131.000000
22067.000000,10202.000000,21202.000000,59114.000000
22072.000000,10200.000000,21133.000000,59097.000000
22051.000000,10214.000000,21145.000000,59111.000000
22038.000000,10180.000000,21141.000000,59096.000000
22056.000000,10190.000000,21106.000000,59062.000000
22045.000000,10160.000000,21104.000000,59087.000000
22052.000000,10207.000000,21096.000000,59078.000000
22035.000000,10202.000000,21069.000000,59040.000000
22001.000000,10166.000000,21083.000000,59072.000000
22003.000000,10157.000000,21051.000000,59070.000000
22005.000000,10177.000000,21044.000000,59066.000000
22029.000000,10195.000000,21084.000000,59074.000000
22058.000000,10170.000000,21060.000000,59064.000000
22021.000000,10148.000000,21041.000000,59082.000000
22051.000000,10190.000000,21073.000000,59088.000000
22065.000000,10190.000000,21089.000000,59083.000000
22039.000000,10201.000000,21058.000000,59068.000000
22074.000000,10225.000000,21097.000000,59056.000000
22081.000000,10265.000000,21081.000000,59079.000000
22134.000000,10241.000000,21060.000000,59048.000000
22160.000000,10305.000000,21073.000000,59049.000000
22193.000000,10320.000000,21073.000000,59052.000000
22213.000000,10380.000000,21058.000000,59064.000000
22296.000000,10413.000000,21047.000000,59056.000000
22285.000000,10450.000000,21077.000000,59112.000000
22358.000000,10484.000000,21041.000000,59086.000000
22451.000000,10517.000000,21045.000000,59074.000000
22502.000000,10541.000000,21039.000000,59047.000000
22508.000000,10590.000000,21050.000000,59043.000000
22565.000000,10643.000000,21030.000000,59057.000000
22596.000000,10680.000000,21036.000000,59043.000000
22643.000000,10694.000000,21037.000000,59023.000000
22657.000000,10749.000000,21038.000000,59054.000000
22705.000000,10764.000000,21028.000000,59046.000000
22725.000000,10772.000000,21018.000000,59072.000000
22723.000000,10819.000000,21019.000000,59046.000000
22734.000000,10829.000000,21001.000000,59035.000000
22755.000000,10826.000000,21024.000000,59020.000000
22782.000000,10800.000000,20982.000000,59011.000000
22782.000000,10812.000000,20959.000000,58993.000000
22755.000000,10814.000000,20965.000000,58986.000000
22753.000000,10816.000000,20955.000000,58976.000000
22726.000000,10807.000000,20934.000000,58982.000000
22708.000000,10781.000000,20918.000000,59013.000000
22732.000000,10785.000000,20915.000000,58935.000000
22731.000000,10768.000000,20903.000000,58979.000000
22754.000000,10814.000000,20914.000000,58949.000000
22756.000000,10804.000000,20915.000000,58984.000000
22749.000000,10788.000000,20918.000000,59030.000000
22726.000000,10766.000000,20933.000000,58965.000000
22729.000000,10724.000000,20928.000000,59002.000000
22705.000000,10762.000000,20962.000000,58979.000000
22731.000000,10767.000000,20970.000000,58979.000000
22746.000000,10772.000000,20993.000000,59001.000000
22760.000000,10747.000000,20978.000000,59010.000000
22772.000000,10775.000000,20958.000000,58989.000000
22727.000000,10757.000000,20968.000000,59033.000000
22712.000000,10752.000000,20945.000000,59057.000000
22729.000000,10752.000000,20981.000000,59016.000000
22755.000000,10748.000000,20985.000000,59028.000000
22743.000000,10769.000000,20992.000000,59033.000000
22729.000000,10747.000000,20990.000000,59004.000000
22743.000000,10713.000000,21006.000000,59032.000000
22712.000000,10723.000000,21012.000000,59044.000000
22724.000000,10734.000000,21044.000000,59047.000000
22721.000000,10735.000000,21035.000000,59089.000000
22719.000000,10726.000000,21063.000000,59042.000000
22715.000000,10739.000000,21052.000000,59081.000000
22761.000000,10763.000000,21087.000000,59089.000000
22716.000000,10708.000000,21109.000000,59128.000000
22704.000000,10737.000000,21186.000000,59148.000000
22723.000000,10739.000000,21210.000000,59164.000000
22717.000000,10690.000000,21257.000000,59185.000000
22666.000000,10706.000000,21302.000000,59224.000000
22707.000000,10698.000000,21348.000000,59229.000000
22704.000000,10702.000000,21387.000000,59283.000000
22678.000000,10682.000000,21435.000000,59307.000000
22706.000000,10708.000000,21516.000000,59332.000000
22694.000000,10716.000000,21579.000000,59414.000000
22688.000000,10667.000000,21638.000000,59388.000000
22667.000000,10679.000000,21653.000000,59432.000000
22683.000000,10648.000000,21716.000000,59459.000000
22638.000000,10710.000000,21730.000000,59467.000000
22684.000000,10672.000000,21764.000000,59534.000000
22682.000000,10676.000000,21806.000000,59502.000000
22688.000000,10695.000000,21843.000000,59543.000000
22694.000000,10688.000000,21888.000000,59564.000000
22696.000000,10669.000000,21884.000000,59560.000000
22683.000000,10643.000000,21849.000000,59537.000000
22654.000000,10665.000000,21881.000000,59571.000000
22668.000000,10663.000000,21859.000000,59560.000000
22675.000000,10667.000000,21864.000000,59558.000000
22652.000000,10709.000000,21874.000000,59551.000000
22644.000000,10675.000000,21862.000000,59533.000000
22648.000000,10631.000000,21859.000000,59557.000000
22666.000000,10629.000000,21846.000000,59559.000000
22649.000000,10634.000000,21830.000000,59531.000000
22658.000000,10611.000000,21839.000000,59530.000000
22622.000000,10639.000000,21799.000000,59552.000000
22637.000000,10623.000000,21814.000000,59535.000000
22648.000000,10630.000000,21812.000000,59533.000000
22645.000000,10636.000000,21812.000000,59506.000000
22611.000000,10633.000000,21780.000000,59498.000000
22607.000000,10600.000000,21768.000000,59480.000000
22620.000000,10609.000000,21724.000000,59512.000000
22583.000000,10575.000000,21737.000000,59489.000000
22590.000000,10595.000000,21741.000000,59513.000000
22643.000000,10576.000000,21750.000000,59483.000000
22623.000000,10591.000000,21721.000000,59475.000000
22620.000000,10597.000000,21748.000000,59489.000000
22600.000000,10574.000000,21702.000000,59483.000000
22595.000000,10588.000000,21708.000000,59481.000000
22607.000000,10583.000000,21709.000000,59492.000000
22619.000000,10568.000000,21692.000000,59475.000000
22609.000000,10622.000000,21739.000000,59468.000000
22582.000000,10576.000000,21689.000000,59474.000000
22601.000000,10560.000000,21707.000000,59473.000000
22591.000000,10572.000000,21743.000000,59467.000000
22597.000000,10569.000000,21691.000000,59470.000000
22573.000000,10581.000000,21699.000000,59503.000000
22565.000000,10552.000000,21748.000000,59496.000000
22560.000000,10539.000000,21715.000000,59484.000000
22544.000000,10535.000000,21735.000000,59483.000000
22516.000000,10545.000000,21729.000000,59449.000000
22492.000000,10524.000000,21693.000000,59486.000000
22528.000000,10507.000000,21684.000000,59472.000000
22502.000000,10509.000000,21728.000000,59477.000000
22509.000000,10500.000000,21684.000000,59477.000000
22478.000000,10515.000000,21685.000000,59491.000000
22482.000000,10486.000000,21687.000000,59466.000000
22466.000000,10461.000000,21657.000000,59451.000000
22498.000000,10450.000000,21655.000000,59438.000000
22485.000000,10452.000000,21664.000000,59449.000000
22484.000000,10449.000000,21638.000000,59449.000000
22463.000000,10453.000000,21643.000000,59415.000000
22454.000000,10462.000000,21648.000000,59475.000000
22476.000000,10440.000000,21655.000000,59420.000000
22475.000000,10474.000000,21621.000000,59396.000000
22474.000000,10456.000000,21603.000000,59428.000000
22453.000000,10473.000000,21606.000000,59433.000000
22441.000000,10451.000000,21602.000000,59428.000000
22473.000000,10508.000000,21620.000000,59434.000000
22474.000000,10437.000000,21608.000000,59426.000000
22453.000000,10428.000000,21595.000000,59402.000000
22489.000000,10482.000000,21578.000000,59438.000000
22480.000000,10457.000000,21572.000000,59407.000000
22464.000000,10472.000000,21576.000000,59394.000000
22448.000000,10443.000000,21551.000000,59380.000000
22481.000000,10448.000000,21567.000000,59359.000000
22491.000000,10499.000000,21498.000000,59346.000000
22466.000000,10466.000000,21477.000000,59364.000000
22474.000000,10438.000000,21467.000000,59339.000000
22459.000000,10461.000000,21455.000000,59320.000000
22504.000000,10458.000000,21428.000000,59328.000000
22483.000000,10452.000000,21408.000000,59313.000000
22466.000000,10472.000000,21413.000000,59317.000000
22505.000000,10444.000000,21410.000000,59295.000000
22485.000000,10476.000000,21430.000000,59295.000000
22460.000000,10429.000000,21402.000000,59296.000000
22465.000000,10444.000000,21381.000000,59313.000000
22468.000000,10449.000000,21393.000000,59292.000000
22484.000000,10459.000000,21404.000000,59250.000000
22444.000000,10448.000000,21371.000000,59293.000000
22456.000000,10476.000000,21399.000000,59254.000000
22432.000000,10431.000000,21416.000000,59279.000000
22395.000000,10400.000000,21358.000000,59241.000000
22372.000000,10390.000000,21373.000000,59244.000000
22374.000000,10392.000000,21356.000000,59281.000000
22388.000000,10402.000000,21389.000000,59251.000000
22357.000000,10369.000000,21362.000000,59291.000000
22329.000000,10367.000000,21375.000000,59291.000000
22354.000000,10344.000000,21363.000000,59266.000000
22348.000000,10409.000000,21366.000000,59278.000000
22313.000000,10383.000000,21393.000000,59300.000000
22321.000000,10297.000000,21336.000000,59266.000000
22313.000000,10312.000000,21357.000000,59263.000000
22294.000000,10324.000000,21370.000000,59272.000000
22281.000000,10320.000000,21360.000000,59286.000000
22276.000000,10327.000000,21356.000000,59250.000000
22258.000000,10298.000000,21355.000000,59286.000000
22240.000000,10303.000000,21326.000000,59230.000000
22252.000000,10310.000000,21336.000000,59258.000000
22276.000000,10307.000000,21300.000000,59256.000000
22284.000000,10311.000000,21325.000000,59235.000000
22310.000000,10331.000000,21321.000000,59255.000000
22299.000000,10312.000000,21311.000000,59231.000000
22295.000000,10365.000000,21307.000000,59248.000000
22313.000000,10323.000000,21274.000000,59255.000000
22320.000000,10356.000000,21300.000000,59216.000000
22318.000000,10356.000000,21252.000000,59200.000000
22315.000000,10320.000000,21256.000000,59227.000000
22290.000000,10321.000000,21265.000000,59196.000000
22320.000000,10348.000000,21277.000000,59206.000000
22331.000000,10392.000000,21270.000000,59187.000000
22362.000000,10378.000000,21258.000000,59219.000000
22327.000000,10382.000000,21258.000000,59215.000000
22386.000000,10364.000000,21244.000000,59232.000000
22349.000000,10352.000000,21275.000000,59237.000000
22379.000000,10399.000000,21238.000000,59200.000000
22436.000000,10421.000000,21242.000000,59230.000000
22457.000000,10452.000000,21222.000000,59221.000000
22491.000000,10469.000000,21216.000000,59190.000000
22497.000000,10484.000000,21211.000000,59173.000000
22535.000000,10514.000000,21206.000000,59190.000000
22589.000000,10575.000000,21226.000000,59188.000000
22617.000000,10594.000000,21181.000000,59199.000000
22683.000000,10623.000000,21195.000000,59220.000000
22691.000000,10670.000000,21170.000000,59171.000000
22738.000000,10669.000000,21180.000000,59167.000000
22768.000000,10735.000000,21151.000000,59192.000000
22817.000000,10733.000000,21128.000000,59149.000000
22849.000000,10790.000000,21118.000000,59147.000000
22919.000000,10833.000000,21101.000000,59162.000000
22941.000000,10879.000000,21127.000000,59139.000000
22999.000000,10907.000000,21094.000000,59135.000000
23010.000000,10945.000000,21068.000000,59151.000000
23045.000000,10942.000000,21081.000000,59112.000000
23050.000000,10988.000000,21062.000000,59116.000000
23057.000000,10973.000000,21031.000000,59110.000000
23071.000000,10963.000000,21039.000000,59094.000000
23039.000000,10965.000000,21047.000000,59103.000000
23079.000000,10953.000000,21047.000000,59103.000000
23044.000000,10937.000000,21035.000000,59124.000000
23089.000000,10967.000000,21052.000000,59120.000000
23063.000000,10966.000000,21045.000000,59072.000000
23046.000000,10924.000000,21008.000000,59083.000000
23023.000000,10961.000000,21020.000000,59054.000000
23001.000000,10924.000000,21009.000000,59097.000000
23011.000000,10906.000000,21047.000000,59076.000000
23014.000000,10913.000000,21020.000000,59115.000000
23002.000000,10957.000000,21042.000000,59097.000000
22991.000000,10947.000000,21046.000000,59082.000000
22951.000000,10915.000000,21045.000000,59134.000000
22990.000000,10895.000000,21075.000000,59107.000000
22949.000000,10883.000000,21072.000000,59126.000000
22995.000000,10883.000000,21081.000000,59133.000000
22958.000000,10866.000000,21118.000000,59144.000000
22911.000000,10866.000000,21119.000000,59163.000000
22947.000000,10848.000000,21126.000000,59150.000000
22891.000000,10844.000000,21164.000000,59172.000000
22916.000000,10856.000000,21215.000000,59182.000000
22881.000000,10845.000000,21229.000000,59199.000000
22909.000000,10832.000000,21253.000000,59231.000000
22892.000000,10824.000000,21278.000000,59245.000000
22851.000000,10844.000000,21344.000000,59275.000000
22847.000000,10813.000000,21366.000000,59296.000000
22884.000000,10821.000000,21432.000000,59323.000000
22899.000000,10817.000000,21460.000000,59379.000000
22878.000000,10807.000000,21522.000000,59408.000000
22880.000000,10811.000000,21553.000000,59413.000000
22875.000000,10802.000000,21636.000000,59454.000000
22872.000000,10833.000000,21679.000000,59494.000000
22868.000000,10823.000000,21716.000000,59531.000000
22849.000000,10783.000000,21791.000000,59522.000000
22868.000000,10787.000000,21829.000000,59581.000000
22846.000000,10839.000000,21850.000000,59603.000000
22851.000000,10819.000000,21925.000000,59585.000000
22851.000000,10809.000000,21912.000000,59636.000000
22845.000000,10776.000000,21950.000000,59630.000000
22849.000000,10787.000000,21944.000000,59673.000000
22816.000000,10757.000000,22005.000000,59690.000000
22804.000000,10756.000000,22042.000000,59670.000000
22813.000000,10775.000000,22028.000000,59715.000000
22793.000000,10721.000000,22024.000000,59667.000000
22765.000000,10722.000000,21989.000000,59688.000000
22777.000000,10722.000000,22000.000000,59684.000000
22763.000000,10731.000000,22019.000000,59641.000000
22750.000000,10704.000000,21993.000000,59671.000000
22764.000000,10718.000000,21957.000000,59657.000000
22730.000000,10722.000000,21984.000000,59645.000000
22704.000000,10697.000000,21955.000000,59627.000000
22717.000000,10704.000000,21942.000000,59636.000000
22722.000000,10692.000000,21937.000000,59658.000000
22681.000000,10675.000000,21908.000000,59664.000000
22674.000000,10648.000000,21905.000000,59641.000000
22709.000000,10677.000000,21935.000000,59630.000000
22697.000000,10653.000000,21914.000000,59620.000000
22688.000000,10653.000000,21901.000000,59658.000000
22707.000000,10668.000000,21906.000000,59628.000000
22706.000000,10676.000000,21883.000000,59632.000000
22726.000000,10659.000000,21858.000000,59605.000000
22714.000000,10661.000000,21841.000000,59597.000000
22701.000000,10639.000000,21829.000000,59618.000000
22691.000000,10668.000000,21824.000000,59579.000000
22737.000000,10670.000000,21831.000000,59575.000000
22723.000000,10661.000000,21800.000000,59549.000000
22730.000000,10698.000000,21793.000000,59622.000000
22745.000000,10675.000000,21811.000000,59600.000000
22755.000000,10678.000000,21829.000000,59565.000000
22742.000000,10666.000000,21802.000000,59572.000000
22746.000000,10692.000000,21837.000000,59560.000000
22747.000000,10723.000000,21786.000000,59572.000000
22747.000000,10656.000000,21785.000000,59569.000000
22750.000000,10665.000000,21780.000000,59556.000000
22717.000000,10679.000000,21800.000000,59530.000000
22722.000000,10644.000000,21771.000000,59582.000000
22696.000000,10643.000000,21786.000000,59543.000000
22677.000000,10635.000000,21717.000000,59566.000000
22665.000000,10598.000000,21774.000000,59554.000000
22665.000000,10640.000000,21709.000000,59535.000000
22660.000000,10579.000000,21732.000000,59546.000000
22629.000000,10557.000000,21711.000000,59521.000000
22637.000000,10586.000000,21705.000000,59521.000000
22622.000000,10575.000000,21686.000000,59517.000000
22627.000000,10595.000000,21702.000000,59506.000000
22612.000000,10551.000000,21699.000000,59525.000000
22601.000000,10540.000000,21701.000000,59512.000000
22597.000000,10542.000000,21640.000000,59513.000000
22547.000000,10522.000000,21683.000000,59517.000000
22555.000000,10538.000000,21650.000000,59485.000000
22548.000000,10523.000000,21641.000000,59505.000000
22553.000000,10522.000000,21624.000000,59458.000000
22567.000000,10528.000000,21633.000000,59489.000000
22539.000000,10485.000000,21618.000000,59469.000000
22524.000000,10498.000000,21631.000000,59458.000000
22560.000000,10523.000000,21566.000000,59444.000000
22547.000000,10498.000000,21593.000000,59456.000000
22536.000000,10501.000000,21587.000000,59437.000000
22553.000000,10506.000000,21526.000000,59426.000000
22533.000000,10496.000000,21545.000000,59461.000000
22519.000000,10530.000000,21496.000000,59387.000000
22506.000000,10482.000000,21526.000000,59416.000000
22540.000000,10489.000000,21524.000000,59413.000000
22524.000000,10490.000000,21485.000000,59410.000000
22498.000000,10495.000000,21489.000000,59415.000000
22502.000000,10453.000000,21477.000000,59379.000000
22504.000000,10459.000000,21450.000000,59403.000000
22512.000000,10462.000000,21462.000000,59372.000000
22527.000000,10470.000000,21456.000000,59358.000000
22497.000000,10488.000000,21471.000000,59416.000000
22512.000000,10473.000000,21443.000000,59330.000000
22499.000000,10426.000000,21442.000000,59401.000000
22494.000000,10481.000000,21430.000000,59357.000000
22492.000000,10425.000000,21415.000000,59375.000000
22491.000000,10463.000000,21445.000000,59361.000000
22475.000000,10467.000000,21394.000000,59339.000000
22482.000000,10465.000000,21412.000000,59374.000000
22498.000000,10472.000000,21391.000000,59342.000000
22448.000000,10448.000000,21386.000000,59334.000000
22479.000000,10453.000000,21371.000000,59320.000000
22450.000000,10426.000000,21340.000000,59315.000000
22426.000000,10400.000000,21349.000000,59355.000000
22392.000000,10377.000000,21325.000000,59315.000000
22397.000000,10402.000000,21335.000000,59326.000000
22380.000000,10377.000000,21313.000000,59300.000000
22403.000000,10361.000000,21298.000000,59301.000000
22355.000000,10360.000000,21287.000000,59277.000000
22370.000000,10336.000000,21291.000000,59280.000000
22333.000000,10328.000000,21282.000000,59293.000000
22311.000000,10311.000000,21305.000000,59292.000000
22282.000000,10293.000000,21265.000000,59269.000000
22281.000000,10323.000000,21302.000000,59305.000000
22285.000000,10289.000000,21265.000000,59245.000000
22257.000000,10278.000000,21282.000000,59268.000000
22291.000000,10274.000000,21269.000000,59273.000000
22287.000000,10282.000000,21252.000000,59269.000000
22299.000000,10290.000000,21252.000000,59266.000000
22297.000000,10313.000000,21260.000000,59280.000000
22293.000000,10323.000000,21252.000000,59282.000000
22324.000000,10335.000000,21279.000000,59303.000000
22289.000000,10289.000000,21251.000000,59254.000000
22351.000000,10310.000000,21235.000000,59271.000000
22348.000000,10356.000000,21224.000000,59281.000000
22354.000000,10368.000000,21264.000000,59285.000000
22402.000000,10342.000000,21260.000000,59259.000000
22407.000000,10325.000000,21292.000000,59290.000000
22406.000000,10362.000000,21239.000000,59276.000000
22415.000000,10386.000000,21300.000000,59289.000000
22399.000000,10420.000000,21270.000000,59240.000000
22449.000000,10417.000000,21283.000000,59296.000000
22469.000000,10426.000000,21288.000000,59296.000000
22468.000000,10433.000000,21300.000000,59307.000000
22512.000000,10464.000000,21284.000000,59283.000000
22504.000000,10464.000000,21249.000000,59302.000000
22553.000000,10483.000000,21252.000000,59303.000000
22543.000000,10511.000000,21250.000000,59326.000000
22577.000000,10531.000000,21250.000000,59268.000000
22574.000000,10556.000000,21249.000000,59278.000000
22598.000000,10548.000000,21217.000000,59251.000000
22642.000000,10568.000000,21215.000000,59228.000000
22636.000000,10621.000000,21168.000000,59241.000000
22670.000000,10654.000000,21153.000000,59221.000000
22697.000000,10649.000000,21127.000000,59221.000000
22717.000000,10652.000000,21135.000000,59233.000000
22777.000000,10669.000000,21118.000000,59235.000000
22766.000000,10726.000000,21135.000000,59218.000000
22817.000000,10767.000000,21114.000000,59210.000000
22829.000000,10787.000000,21127.000000,59170.000000
22882.000000,10779.000000,21126.000000,59208.000000
22870.000000,10849.000000,21128.000000,59198.000000
22908.000000,10801.000000,21132.000000,59179.000000
22905.000000,10858.000000,21108.000000,59196.000000
22886.000000,10800.000000,21100.000000,59174.000000
22938.000000,10823.000000,21066.000000,59201.000000
22894.000000,10807.000000,21094.000000,59178.000000
22911.000000,10818.000000,21063.000000,59224.000000
22916.000000,10821.000000,21103.000000,59164.000000
22867.000000,10838.000000,21076.000000,59181.000000
22865.000000,10835.000000,21079.000000,59190.000000
22851.000000,10768.000000,21057.000000,59164.000000
22845.000000,10780.000000,21094.000000,59172.000000
22856.000000,10767.000000,21058.000000,59170.000000
22875.000000,10756.000000,21109.000000,59179.000000
22876.000000,10818.000000,21100.000000,59188.000000
22850.000000,10812.000000,21070.000000,59161.000000
22890.000000,10792.000000,21049.000000,59194.000000
22847.000000,10780.000000,21090.000000,59205.000000
22841.000000,10808.000000,21092.000000,59155.000000
22856.000000,10785.000000,21087.000000,59204.000000
22846.000000,10768.000000,21128.000000,59214.000000
22855.000000,10770.000000,21172.000000,59182.000000
22814.000000,10751.000000,21185.000000,59260.000000
22843.000000,10768.000000,21190.000000,59261.000000
22856.000000,10766.000000,21226.000000,59272.000000
22822.000000,10755.000000,21258.000000,59304.000000
22838.000000,10768.000000,21287.000000,59350.000000
22833.000000,10743.000000,21339.000000,59325.000000
22821.000000,10754.000000,21395.000000,59348.000000
22824.000000,10764.000000,21434.000000,59398.000000
22815.000000,10739.000000,21458.000000,59412.000000
22779.000000,10709.000000,21515.000000,59450.000000
22796.000000,10732.000000,21562.000000,59512.000000
22809.000000,10706.000000,21686.000000,59527.000000
22784.000000,10726.000000,21714.000000,59566.000000
22754.000000,10688.000000,21743.000000,59553.000000
22747.000000,10698.000000,21781.000000,59618.000000
22710.000000,10665.000000,21845.000000,59618.000000
22720.000000,10665.000000,21862.000000,59659.000000
22720.000000,10658.000000,21931.000000,59675.000000
22711.000000,10658.000000,21926.000000,59665.000000
22681.000000,10641.000000,21925.000000,59701.000000
22673.000000,10650.000000,21953.000000,59696.000000
22686.000000,10633.000000,21951.000000,59705.000000
22636.000000,10585.000000,21920.000000,59710.000000
22622.000000,10625.000000,21949.000000,59686.000000
22636.000000,10601.000000,21950.000000,59706.000000
22621.000000,10574.000000,21949.000000,59654.000000
22615.000000,10561.000000,21926.000000,59696.000000
22591.000000,10605.000000,21940.000000,59676.000000
22583.000000,10586.000000,21907.000000,59681.000000
22576.000000,10590.000000,21906.000000,59675.000000
22566.000000,10538.000000,21877.000000,59658.000000
22547.000000,10560.000000,21873.000000,59666.000000
22579.000000,10546.000000,21863.000000,59662.000000
22525.000000,10533.000000,21854.000000,59658.000000
22522.000000,10484.000000,21870.000000,59658.000000
22509.000000,10477.000000,21854.000000,59606.000000
22528.000000,10490.000000,21811.000000,59633.000000
22484.000000,10485.000000,21829.000000,59638.000000
22515.000000,10436.000000,21822.000000,59628.000000
22484.000000,10455.000000,21794.000000,59599.000000
22473.000000,10462.000000,21770.000000,59605.000000
22464.000000,10468.000000,21757.000000,59582.000000
22478.000000,10479.000000,21766.000000,59581.000000
22478.000000,10449.000000,21776.000000,59602.000000
22468.000000,10470.000000,21775.000000,59612.000000
22444.000000,10437.000000,21750.000000,59570.000000
22442.000000,10436.000000,21750.000000,59598.000000
22415.000000,10461.000000,21771.000000,59587.000000
22433.000000,10400.000000,21724.000000,59586.000000
22441.000000,10423.000000,21743.000000,59564.000000
22464.000000,10448.000000,21723.000000,59531.000000
22459.000000,10439.000000,21733.000000,59587.000000
22418.000000,10444.000000,21685.000000,59552.000000
22468.000000,10456.000000,21678.000000,59568.000000
22438.000000,10456.000000,21709.000000,59563.000000
22429.000000,10409.000000,21706.000000,59558.000000
22410.000000,10412.000000,21661.000000,59542.000000
22436.000000,10433.000000,21670.000000,59520.000000
22441.000000,10422.000000,21624.000000,59550.000000
22434.000000,10424.000000,21649.000000,59526.000000
22438.000000,10414.000000,21626.000000,59531.000000
22428.000000,10381.000000,21609.000000,59523.000000
22439.000000,10419.000000,21599.000000,59534.000000
22421.000000,10419.000000,21584.000000,59491.000000
22408.000000,10407.000000,21587.000000,59485.000000
22425.000000,10421.000000,21592.000000,59460.000000
22390.000000,10387.000000,21558.000000,59478.000000
22385.000000,10377.000000,21577.000000,59488.000000
22369.000000,10378.000000,21566.000000,59462.000000
22390.000000,10358.000000,21564.000000,59506.000000
22401.000000,10373.000000,21532.000000,59478.000000
22382.000000,10335.000000,21519.000000,59477.000000
22393.000000,10346.000000,21546.000000,59469.000000
22377.000000,10354.000000,21528.000000,59453.000000
22388.000000,10385.000000,21510.000000,59459.000000
22379.000000,10356.000000,21505.000000,59494.000000
22358.000000,10381.000000,21539.000000,59469.000000
22368.000000,10352.000000,21509.000000,59463.000000
22360.000000,10363.000000,21521.000000,59461.000000
22387.000000,10358.000000,21517.000000,59460.000000
22350.000000,10335.000000,21476.000000,59460.000000
22355.000000,10384.000000,21503.000000,59459.000000
22356.000000,10353.000000,21456.000000,59436.000000
22398.000000,10366.000000,21448.000000,59443.000000
22393.000000,10384.000000,21460.000000,59446.000000
22392.000000,10380.000000,21402.000000,59407.000000
22377.000000,10329.000000,21447.000000,59452.000000
22381.000000,10398.000000,21420.000000,59410.000000
22365.000000,10395.000000,21462.000000,59423.000000
22364.000000,10371.000000,21416.000000,59408.000000
22377.000000,10399.000000,21425.000000,59398.000000
22366.000000,10313.000000,21390.000000,59410.000000
22364.000000,10368.000000,21386.000000,59427.000000
22339.000000,10382.000000,21377.000000,59390.000000
22373.000000,10320.000000,21377.000000,59403.000000
22334.000000,10322.000000,21355.000000,59364.000000
22372.000000,10369.000000,21374.000000,59381.000000
22363.000000,10350.000000,21355.000000,59366.000000
22362.000000,10335.000000,21357.000000,59383.000000
22348.000000,10280.000000,21297.000000,59350.000000
22283.000000,10303.000000,21283.000000,59352.000000
22354.000000,10316.000000,21324.000000,59335.000000
22323.000000,10332.000000,21329.000000,59347.000000
22314.000000,10279.000000,21291.000000,59320.000000
22338.000000,10315.000000,21281.000000,59329.000000
22362.000000,10351.000000,21247.000000,59325.000000
22339.000000,10342.000000,21262.000000,59326.000000
22352.000000,10335.000000,21236.000000,59311.000000
22370.000000,10372.000000,21235.000000,59358.000000
22337.000000,10324.000000,21233.000000,59293.000000
22368.000000,10299.000000,21248.000000,59306.000000
22391.000000,10335.000000,21226.000000,59297.000000
22381.000000,10345.000000,21189.000000,59262.000000
22419.000000,10349.000000,21204.000000,59281.000000
22373.000000,10332.000000,21168.000000,59241.000000
22388.000000,10339.000000,21163.000000,59271.000000
22398.000000,10341.000000,21166.000000,59272.000000
22421.000000,10347.000000,21130.000000,59274.000000
22407.000000,10358.000000,21170.000000,59260.000000
22389.000000,10350.000000,21105.000000,59238.000000
22399.000000,10336.000000,21136.000000,59234.000000
22376.000000,10350.000000,21136.000000,59239.000000
22421.000000,10359.000000,21097.000000,59218.000000
22401.000000,10373.000000,21065.000000,59249.000000
22451.000000,10389.000000,21080.000000,59208.000000
22420.000000,10402.000000,21065.000000,59222.000000
22457.000000,10420.000000,21057.000000,59241.000000
22503.000000,10398.000000,21051.000000,59210.000000
22505.000000,10439.000000,21072.000000,59191.000000
22549.000000,10494.000000,21084.000000,59204.000000
22548.000000,10454.000000,21074.000000,59203.000000
22590.000000,10522.000000,21074.000000,59207.000000
22623.000000,10538.000000,21076.000000,59228.000000
22643.000000,10544.000000,21045.000000,59250.000000
22658.000000,10584.000000,21075.000000,59223.000000
22710.000000,10608.000000,21083.000000,59196.000000
22777.000000,10651.000000,21062.000000,59230.000000
22798.000000,10659.000000,21093.000000,59211.000000
22816.000000,10725.000000,21090.000000,59223.000000
22864.000000,10748.000000,21095.000000,59208.000000
22924.000000,10788.000000,21046.000000,59169.000000
22913.000000,10809.000000,21025.000000,59199.000000
22961.000000,10846.000000,21067.000000,59205.000000
23008.000000,10886.000000,21054.000000,59196.000000
23046.000000,10901.000000,21031.000000,59201.000000
23099.000000,10909.000000,21009.000000,59185.000000
23079.000000,10942.000000,20997.000000,59176.000000
23154.000000,10949.000000,21027.000000,59185.000000
23118.000000,10989.000000,20987.000000,59156.000000
23155.000000,10982.000000,20985.000000,59151.000000
23175.000000,10981.000000,20942.000000,59186.000000
23149.000000,11005.000000,20972.000000,59145.000000
23151.000000,10973.000000,20951.000000,59132.000000
23129.000000,10989.000000,20943.000000,59137.000000
23117.000000,10983.000000,20930.000000,59132.000000
23091.000000,10953.000000,20886.000000,59125.000000
23135.000000,10988.000000,20953.000000,59157.000000
23102.000000,10961.000000,20943.000000,59121.000000
23116.000000,10957.000000,20916.000000,59108.000000
23110.000000,10939.000000,20956.000000,59125.000000
23104.000000,10958.000000,20910.000000,59108.000000
23071.000000,10955.000000,20909.000000,59127.000000
23049.000000,10940.000000,20918.000000,59126.000000
23071.000000,10904.000000,20918.000000,59136.000000
23046.000000,10918.000000,20918.000000,59098.000000
23050.000000,10923.000000,20919.000000,59135.000000
23051.000000,10891.000000,20909.000000,59122.000000
23078.000000,10910.000000,20917.000000,59107.000000
23049.000000,10889.000000,20921.000000,59099.000000
23028.000000,10931.000000,20933.000000,59119.000000
23054.000000,10933.000000,20920.000000,59094.000000
23038.000000,10921.000000,20915.000000,59130.000000
23048.000000,10886.000000,20901.000000,59133.000000
23039.000000,10882.000000,20875.000000,59117.000000
23061.000000,10884.000000,20907.000000,59135.000000
23016.000000,10891.000000,20937.000000,59109.000000
22986.000000,10895.000000,20926.000000,59141.000000
23025.000000,10905.000000,20966.000000,59149.000000
23013.000000,10901.000000,20986.000000,59148.000000
23038.000000,10878.000000,20974.000000,59187.000000
23018.000000,10910.000000,21027.000000,59203.000000
23048.000000,10865.000000,21037.000000,59218.000000
23048.000000,10869.000000,21076.000000,59240.000000
23034.000000,10884.000000,21173.000000,59261.000000
23041.000000,10863.000000,21197.000000,59305.000000
23064.000000,10880.000000,21274.000000,59366.000000
23030.000000,10873.000000,21333.000000,59404.000000
23090.000000,10896.000000,21374.000000,59423.000000
23065.000000,10915.000000,21432.000000,59460.000000
23083.000000,10914.000000,21504.000000,59479.000000
23099.000000,10899.000000,21577.000000,59511.000000
23090.000000,10917.000000,21621.000000,59540.000000
23132.000000,10925.000000,21645.000000,59545.000000
23090.000000,10919.000000,21705.000000,59596.000000
23082.000000,10909.000000,21736.000000,59624.000000
23071.000000,10889.000000,21755.000000,59624.000000
23086.000000,10934.000000,21766.000000,59644.000000
23038.000000,10876.000000,21796.000000,59640.000000
23044.000000,10885.000000,21801.000000,59675.000000
23052.000000,10874.000000,21815.000000,59685.000000
23053.000000,10881.000000,21821.000000,59631.000000
23086.000000,10894.000000,21793.000000,59659.000000
23068.000000,10863.000000,21783.000000,59650.000000
23050.000000,10891.000000,21804.000000,59649.000000
23070.000000,10869.000000,21786.000000,59642.000000
23067.000000,10868.000000,21749.000000,59635.000000
23075.000000,10870.000000,21739.000000,59636.000000
23057.000000,10904.000000,21729.000000,59644.000000
23061.000000,10897.000000,21754.000000,59637.000000
23046.000000,10877.000000,21749.000000,59631.000000
23061.000000,10846.000000,21737.000000,59619.000000
23067.000000,10836.000000,21732.000000,59614.000000
23068.000000,10852.000000,21735.000000,59626.000000
23052.000000,10865.000000,21757.000000,59616.000000
23034.000000,10873.000000,21695.000000,59609.000000
23026.000000,10850.000000,21701.000000,59614.000000
23013.000000,10844.000000,21723.000000,59590.000000
23021.000000,10828.000000,21708.000000,59593.000000
23011.000000,10792.000000,21736.000000,59609.000000
23001.000000,10820.000000,21690.000000,59584.000000
23023.000000,10804.000000,21704.000000,59606.000000
23014.000000,10831.000000,21711.000000,59585.000000
22981.000000,10816.000000,21678.000000,59622.000000
22947.000000,10782.000000,21727.000000,59609.000000
22962.000000,10776.000000,21709.000000,59613.000000
22977.000000,10775.000000,21685.000000,59584.000000
22942.000000,10750.000000,21714.000000,59628.000000
22966.000000,10745.000000,21704.000000,59589.000000
22940.000000,10766.000000,21720.000000,59642.000000
22937.000000,10764.000000,21736.000000,59607.000000
22932.000000,10749.000000,21714.000000,59617.000000
22939.000000,10792.000000,21747.000000,59599.000000
22938.000000,10761.000000,21697.000000,59618.000000
22928.000000,10718.000000,21726.000000,59637.000000
22894.000000,10733.000000,21736.000000,59632.000000
22901.000000,10738.000000,21709.000000,59621.000000
22895.000000,10714.000000,21691.000000,59620.000000
22895.000000,10699.000000,21693.000000,59575.000000
22904.000000,10701.000000,21693.000000,59575.000000
22883.000000,10681.000000,21726.000000,59610.000000
22904.000000,10718.000000,21676.000000,59601.000000
22866.000000,10701.000000,21716.000000,59609.000000
22845.000000,10701.000000,21695.000000,59620.000000
22855.000000,10713.000000,21662.000000,59555.000000
22833.000000,10703.000000,21668.000000,59611.000000
22870.000000,10709.000000,21645.000000,59557.000000
22852.000000,10643.000000,21681.000000,59580.000000
22841.000000,10672.000000,21679.000000,59577.000000
22867.000000,10718.000000,21670.000000,59590.000000
22808.000000,10652.000000,21639.000000,59571.000000
22813.000000,10624.000000,21595.000000,59571.000000
22827.000000,10621.000000,21623.000000,59543.000000
22780.000000,10613.000000,21586.000000,59543.000000
22820.000000,10655.000000,21598.000000,59546.000000
22758.000000,10636.000000,21583.000000,59530.000000
22791.000000,10623.000000,21550.000000,59520.000000
22770.000000,10629.000000,21552.000000,59530.000000
22767.000000,10599.000000,21559.000000,59556.000000
22784.000000,10588.000000,21563.000000,59509.000000
22777.000000,10596.000000,21550.000000,59516.000000
22781.000000,10630.000000,21569.000000,59524.000000
22796.000000,10616.000000,21570.000000,59498.000000
22803.000000,10593.000000,21489.000000,59494.000000
22773.000000,10596.000000,21510.000000,59486.000000
22807.000000,10619.000000,21491.000000,59482.000000
22797.000000,10608.000000,21485.000000,59477.000000
22797.000000,10618.000000,21440.000000,59471.000000
22815.000000,10642.000000,21432.000000,59490.000000
22796.000000,10640.000000,21417.000000,59488.000000
22819.000000,10642.000000,21437.000000,59433.000000
22805.000000,10607.000000,21444.000000,59471.000000
22813.000000,10598.000000,21407.000000,59453.000000
22793.000000,10588.000000,21409.000000,59464.000000
22803.000000,10620.000000,21387.000000,59419.000000
22799.000000,10619.000000,21420.000000,59425.000000
22780.000000,10612.000000,21366.000000,59420.000000
22783.000000,10580.000000,21401.000000,59422.000000
22732.000000,10599.000000,21374.000000,59424.000000
22755.000000,10580.000000,21385.000000,59431.000000
22745.000000,10576.000000,21356.000000,59430.000000
22724.000000,10568.000000,21369.000000,59408.000000
22714.000000,10554.000000,21368.000000,59437.000000
22732.000000,10553.000000,21366.000000,59442.000000
22722.000000,10548.000000,21355.000000,59432.000000
22755.000000,10562.000000,21381.000000,59401.000000
22710.000000,10543.000000,21326.000000,59400.000000
22720.000000,10539.000000,21361.000000,59423.000000
22678.000000,10543.000000,21306.000000,59393.000000
22683.000000,10522.000000,21336.000000,59387.000000
22698.000000,10555.000000,21288.000000,59389.000000
22646.000000,10511.000000,21296.000000,59373.000000
22655.000000,10524.000000,21285.000000,59391.000000
22657.000000,10505.000000,21268.000000,59375.000000
22640.000000,10496.000000,21232.000000,59345.000000
22656.000000,10489.000000,21270.000000,59348.000000
22660.000000,10472.000000,21232.000000,59337.000000
22621.000000,10470.000000,21220.000000,59336.000000
22620.000000,10491.000000,21231.000000,59334.000000
22625.000000,10433.000000,21148.000000,59321.000000
22609.000000,10452.000000,21153.000000,59263.000000
22586.000000,10482.000000,21127.000000,59259.000000
22592.000000,10452.000000,21116.000000,59277.000000
22598.000000,10460.000000,21144.000000,59298.000000
22558.000000,10444.000000,21124.000000,59278.000000
22562.000000,10450.000000,21094.000000,59269.000000
22555.000000,10409.000000,21109.000000,59274.000000
22581.000000,10403.000000,21074.000000,59274.000000
22581.000000,10421.000000,21094.000000,59212.000000
22576.000000,10419.000000,21127.000000,59272.000000
22594.000000,10458.000000,21104.000000,59276.000000
22583.000000,10402.000000,21119.000000,59283.000000
22583.000000,10421.000000,21117.000000,59303.000000
22569.000000,10463.000000,21116.000000,59237.000000
22563.000000,10468.000000,21092.000000,59295.000000
22568.000000,10432.000000,21134.000000,59302.000000
22588.000000,10449.000000,21104.000000,59271.000000
22606.000000,10419.000000,21121.000000,59268.000000
22596.000000,10440.000000,21104.000000,59306.000000
22573.000000,10460.000000,21129.000000,59283.000000
22599.000000,10449.000000,21118.000000,59299.000000
22585.000000,10444.000000,21114.000000,59226.000000
22618.000000,10463.000000,21100.000000,59271.000000
22571.000000,10463.000000,21086.000000,59239.000000
22595.000000,10492.000000,21132.000000,59258.000000
22592.000000,10477.000000,21064.000000,59261.000000
22649.000000,10477.000000,21059.000000,59232.000000
22657.000000,10534.000000,21080.000000,59233.000000
22651.000000,10523.000000,21010.000000,59229.000000
22647.000000,10492.000000,20976.000000,59218.000000
22705.000000,10560.000000,20988.000000,59186.000000
22736.000000,10582.000000,20993.000000,59203.000000
22787.000000,10605.000000,20974.000000,59178.000000
22804.000000,10675.000000,20988.000000,59217.000000
22838.000000,10674.000000,20978.000000,59206.000000
22852.000000,10666.000000,20960.000000,59199.000000
22910.000000,10737.000000,20913.000000,59173.000000
22991.000000,10765.000000,20946.000000,59202.000000
23036.000000,10837.000000,20947.000000,59173.000000
23037.000000,10820.000000,20908.000000,59153.000000
23073.000000,10894.000000,20945.000000,59174.000000
23105.000000,10882.000000,20951.000000,59178.000000
23167.000000,10925.000000,20898.000000,59169.000000
23132.000000,10938.000000,20923.000000,59201.000000
23191.000000,10977.000000,20898.000000,59147.000000
23213.000000,10977.000000,20910.000000,59161.000000
23196.000000,11005.000000,20938.000000,59166.000000
23202.000000,10996.000000,20937.000000,59148.000000
23183.000000,10994.000000,20907.000000,59170.000000
23252.000000,10974.000000,20880.000000,59163.000000
23223.000000,10955.000000,20903.000000,59153.000000
23189.000000,10992.000000,20902.000000,59174.000000
23200.000000,10953.000000,20907.000000,59131.000000
23185.000000,10954.000000,20894.000000,59141.000000
23214.000000,10942.000000,20901.000000,59140.000000
23217.000000,10946.000000,20875.000000,59116.000000
23211.000000,10968.000000,20892.000000,59154.000000
23207.000000,11009.000000,20905.000000,59165.000000
23168.000000,10929.000000,20907.000000,59131.000000
23157.000000,10962.000000,20882.000000,59143.000000
23160.000000,10944.000000,20922.000000,59151.000000
23199.000000,10947.000000,20948.000000,59156.000000
23166.000000,10913.000000,20919.000000,59166.000000
23133.000000,10907.000000,20982.000000,59242.000000
23103.000000,10930.000000,20999.000000,59214.000000
23120.000000,10928.000000,21021.000000,59231.000000
23122.000000,10893.000000,21052.000000,59210.000000
23128.000000,10913.000000,21137.000000,59282.000000
23132.000000,10900.000000,21165.000000,59307.000000
23103.000000,10878.000000,21226.000000,59365.000000
23131.000000,10883.000000,21271.000000,59385.000000
23127.000000,10852.000000,21281.000000,59396.000000
23094.000000,10908.000000,21366.000000,59447.000000
23139.000000,10861.000000,21431.000000,59485.000000
23109.000000,10890.000000,21497.000000,59510.000000
23099.000000,10901.000000,21521.000000,59533.000000
23141.000000,10862.000000,21585.000000,59542.000000
23140.000000,10885.000000,21677.000000,59573.000000
23137.000000,10908.000000,21665.000000,59627.000000
23152.000000,10867.000000,21689.000000,59632.000000
23150.000000,10894.000000,21729.000000,59637.000000
23121.000000,10866.000000,21768.000000,59671.000000
23110.000000,10886.000000,21757.000000,59657.000000
23098.000000,10885.000000,21795.000000,59677.000000
23122.000000,10865.000000,21800.000000,59664.000000
23128.000000,10846.000000,21793.000000,59662.000000
23125.000000,10899.000000,21780.000000,59670.000000
23136.000000,10883.000000,21777.000000,59686.000000
23147.000000,10879.000000,21782.000000,59681.000000
23129.000000,10868.000000,21749.000000,59654.000000
23089.000000,10872.000000,21759.000000,59655.000000
23099.000000,10857.000000,21765.000000,59645.000000
23114.000000,10870.000000,21733.000000,59660.000000
23072.000000,10863.000000,21730.000000,59625.000000
23100.000000,10856.000000,21727.000000,59634.000000
23099.000000,10902.000000,21708.000000,59624.000000
23068.000000,10845.000000,21715.000000,59624.000000
23069.000000,10812.000000,21688.000000,59592.000000
23049.000000,10834.000000,21681.000000,59599.000000
23051.000000,10835.000000,21639.000000,59595.000000
23056.000000,10839.000000,21665.000000,59611.000000
23063.000000,10802.000000,21631.000000,59580.000000
23060.000000,10830.000000,21631.000000,59550.000000
23046.000000,10791.000000,21585.000000,59559.000000
23027.000000,10781.000000,21597.000000,59533.000000
22993.000000,10801.000000,21576.000000,59542.000000
23017.000000,10787.000000,21595.000000,59578.000000
23015.000000,10804.000000,21545.000000,59565.000000
23036.000000,10752.000000,21567.000000,59538.000000
23017.000000,10761.000000,21542.000000,59550.000000
23054.000000,10757.000000,21526.000000,59560.000000
23030.000000,10789.000000,21520.000000,59507.000000
22988.000000,10783.000000,21554.000000,59544.000000
23005.000000,10772.000000,21507.000000,59506.000000
23016.000000,10761.000000,21489.000000,59517.000000
22991.000000,10794.000000,21518.000000,59522.000000
22968.000000,10765.000000,21535.000000,59513.000000
22994.000000,10725.000000,21492.000000,59501.000000
22970.000000,10713.000000,21451.000000,59515.000000
22952.000000,10705.000000,21482.000000,59507.000000
22966.000000,10721.000000,21454.000000,59512.000000
22926.000000,10721.000000,21475.000000,59516.000000
22923.000000,10736.000000,21429.000000,59475.000000
22908.000000,10690.000000,21455.000000,59483.000000
22947.000000,10716.000000,21439.000000,59498.000000
22880.000000,10684.000000,21450.000000,59516.000000
22894.000000,10662.000000,21461.000000,59475.000000
22837.000000,10644.000000,21402.000000,59493.000000
22850.000000,10669.000000,21428.000000,59488.000000
22822.000000,10631.000000,21403.000000,59455.000000
22854.000000,10634.000000,21396.000000,59476.000000
22833.000000,10622.000000,21372.000000,59461.000000
22835.000000,10653.000000,21383.000000,59451.000000
22815.000000,10602.000000,21349.000000,59458.000000
22846.000000,10596.000000,21414.000000,59413.000000
22824.000000,10610.000000,21350.000000,59425.000000
22823.000000,10631.000000,21336.000000,59426.000000
22830.000000,10621.000000,21338.000000,59429.000000
22811.000000,10630.000000,21334.000000,59417.000000
22811.000000,10603.000000,21318.000000,59421.000000
22804.000000,10627.000000,21310.000000,59445.000000
22793.000000,10562.000000,21311.000000,59414.000000
22800.000000,10579.000000,21345.000000,59426.000000
22778.000000,10572.000000,21330.000000,59392.000000
22798.000000,10564.000000,21303.000000,59430.000000
22779.000000,10581.000000,21279.000000,59375.000000
22768.000000,10558.000000,21309.000000,59406.000000
22746.000000,10556.000000,21295.000000,59415.000000
22758.000000,10562.000000,21309.000000,59417.000000
22790.000000,10585.000000,21261.000000,59395.000000
22772.000000,10573.000000,21276.000000,59377.000000
22722.000000,10574.000000,21271.000000,59402.000000
22715.000000,10575.000000,21248.000000,59378.000000
22765.000000,10558.000000,21213.000000,59391.000000
22740.000000,10540.000000,21210.000000,59345.000000
22770.000000,10558.000000,21204.000000,59375.000000
22755.000000,10551.000000,21233.000000,59370.000000
22726.000000,10532.000000,21218.000000,59353.000000
22751.000000,10566.000000,21167.000000,59370.000000
22733.000000,10572.000000,21165.000000,59346.000000
22696.000000,10544.000000,21163.000000,59337.000000
22725.000000,10523.000000,21162.000000,59319.000000
22702.000000,10505.000000,21206.000000,59338.000000
22673.000000,10506.000000,21108.000000,59318.000000
22700.000000,10501.000000,21119.000000,59297.000000
22714.000000,10529.000000,21146.000000,59299.000000
22672.000000,10488.000000,21101.000000,59296.000000
22657.000000,10474.000000,21095.000000,59283.000000
22657.000000,10464.000000,21102.000000,59288.000000
22641.000000,10477.000000,21080.000000,59294.000000
22649.000000,10490.000000,21087.000000,59285.000000
22656.000000,10432.000000,21071.000000,59236.000000
22632.000000,10459.000000,21030.000000,59254.000000
22639.000000,10445.000000,21053.000000,59277.000000
22640.000000,10434.000000,21044.000000,59223.000000
22621.000000,10451.000000,21022.000000,59276.000000
22626.000000,10442.000000,21001.000000,59262.000000
22607.000000,10437.000000,20989.000000,59198.000000
22610.000000,10469.000000,20984.000000,59264.000000
22625.000000,10427.000000,21018.000000,59185.000000
22612.000000,10441.000000,20947.000000,59200.000000
22607.000000,10435.000000,20982.000000,59195.000000
22573.000000,10437.000000,20975.000000,59214.000000
22612.000000,10452.000000,20948.000000,59211.000000
22616.000000,10456.000000,20914.000000,59216.000000
22581.000000,10430.000000,20927.000000,59204.000000
22622.000000,10473.000000,20907.000000,59183.000000
22603.000000,10434.000000,20951.000000,59175.000000
22609.000000,10446.000000,20935.000000,59187.000000
22616.000000,10437.000000,20923.000000,59195.000000
22621.000000,10422.000000,20916.000000,59187.000000
22621.000000,10463.000000,20929.000000,59197.000000
22638.000000,10462.000000,20935.000000,59207.000000
22606.000000,10445.000000,20959.000000,59190.000000
22630.000000,10468.000000,20939.000000,59160.000000
22620.000000,10479.000000,20983.000000,59214.000000
22601.000000,10461.000000,20976.000000,59199.000000
22630.000000,10444.000000,20967.000000,59211.000000
22637.000000,10465.000000,20987.000000,59241.000000
22675.000000,10470.000000,20977.000000,59187.000000
22666.000000,10477.000000,20998.000000,59212.000000
22651.000000,10522.000000,21007.000000,59196.000000
22671.000000,10506.000000,20991.000000,59230.000000
22700.000000,10562.000000,20977.000000,59205.000000
22745.000000,10593.000000,20985.000000,59208.000000
22765.000000,10603.000000,20965.000000,59228.000000
22811.000000,10653.000000,20968.000000,59205.000000
22856.000000,10671.000000,21011.000000,59236.000000
22851.000000,10668.000000,20983.000000,59189.000000
22906.000000,10692.000000,20958.000000,59176.000000
22945.000000,10739.000000,20924.000000,59188.000000
22962.000000,10756.000000,20915.000000,59146.000000
22988.000000,10743.000000,20906.000000,59168.000000
23017.000000,10830.000000,20881.000000,59145.000000
23072.000000,10855.000000,20852.000000,59135.000000
23105.000000,10866.000000,20869.000000,59106.000000
23117.000000,10875.000000,20846.000000,59130.000000
23133.000000,10896.000000,20849.000000,59128.000000
23147.000000,10920.000000,20826.000000,59117.000000
23174.000000,10897.000000,20822.000000,59111.000000
23167.000000,10921.000000,20855.000000,59139.000000
23133.000000,10912.000000,20847.000000,59094.000000
23130.000000,10931.000000,20862.000000,59121.000000
23148.000000,10922.000000,20873.000000,59168.000000
23157.000000,10898.000000,20907.000000,59132.000000
23125.000000,10916.000000,20911.000000,59148.000000
23146.000000,10928.000000,20886.000000,59192.000000
23130.000000,10920.000000,20920.000000,59164.000000
23114.000000,10896.000000,20927.000000,59152.000000
23129.000000,10896.000000,20949.000000,59164.000000
23121.000000,10872.000000,20924.000000,59185.000000
23112.000000,10868.000000,20902.000000,59194.000000
23104.000000,10841.000000,20945.000000,59180.000000
23101.000000,10852.000000,20902.000000,59186.000000
23059.000000,10840.000000,20948.000000,59163.000000
23072.000000,10863.000000,20915.000000,59225.000000
23062.000000,10802.000000,20919.000000,59198.000000
23065.000000,10806.000000,20923.000000,59170.000000
23093.000000,10831.000000,20930.000000,59202.000000
23074.000000,10814.000000,20947.000000,59187.000000
23072.000000,10827.000000,20980.000000,59215.000000
23041.000000,10840.000000,20973.000000,59227.000000
23046.000000,10845.000000,20988.000000,59210.000000
23050.000000,10825.000000,20980.000000,59230.000000
23053.000000,10815.000000,21019.000000,59236.000000
23059.000000,10804.000000,21046.000000,59254.000000
23040.000000,10852.000000,21079.000000,59265.000000
23015.000000,10847.000000,21102.000000,59308.000000
23009.000000,10811.000000,21169.000000,59306.000000
23025.000000,10796.000000,21209.000000,59328.000000
23045.000000,10824.000000,21268.000000,59355.000000
22995.000000,10801.000000,21327.000000,59390.000000
23008.000000,10788.000000,21341.000000,59444.000000
23016.000000,10788.000000,21423.000000,59513.000000
23018.000000,10783.000000,21494.000000,59492.000000
23015.000000,10768.000000,21552.000000,59572.000000
22984.000000,10779.000000,21622.000000,59593.000000
23005.000000,10790.000000,21672.000000,59622.000000
22967.000000,10794.000000,21706.000000,59664.000000
22974.000000,10750.000000,21742.000000,59674.000000
22968.000000,10763.000000,21819.000000,59693.000000
22968.000000,10755.000000,21853.000000,59747.000000
22994.000000,10762.000000,21888.000000,59745.000000
22948.000000,10745.000000,21936.000000,59803.000000
22937.000000,10713.000000,21995.000000,59796.000000
22913.000000,10746.000000,21951.000000,59801.000000
22949.000000,10699.000000,21972.000000,59789.000000
22902.000000,10694.000000,21944.000000,59799.000000
22949.000000,10710.000000,21963.000000,59781.000000
22902.000000,10704.000000,21965.000000,59798.000000
22912.000000,10735.000000,21953.000000,59791.000000
22908.000000,10674.000000,21953.000000,59772.000000
22893.000000,10681.000000,21925.000000,59760.000000
22901.000000,10701.000000,21910.000000,59789.000000
22890.000000,10691.000000,21914.000000,59764.000000
22900.000000,10678.000000,21910.000000,59790.000000
22870.000000,10685.000000,21924.000000,59782.000000
22874.000000,10666.000000,21883.000000,59780.000000
22860.000000,10670.000000,21918.000000,59804.000000
22821.000000,10616.000000,21877.000000,59760.000000
22865.000000,10663.000000,21880.000000,59752.000000
22901.000000,10686.000000,21894.000000,59743.000000
22847.000000,10689.000000,21866.000000,59747.000000
22825.000000,10674.000000,21886.000000,59734.000000
22867.000000,10637.000000,21851.000000,59763.000000
22842.000000,10627.000000,21839.000000,59788.000000
22867.000000,10633.000000,21848.000000,59710.000000
22855.000000,10643.000000,21826.000000,59727.000000
22809.000000,10627.000000,21814.000000,59712.000000
22829.000000,10621.000000,21804.000000,59735.000000
22811.000000,10635.000000,21837.000000,59735.000000
22835.000000,10611.000000,21799.000000,59757.000000
22799.000000,10611.000000,21795.000000,59720.000000
22843.000000,10592.000000,21829.000000,59700.000000
22789.000000,10564.000000,21789.000000,59705.000000
22803.000000,10572.000000,21788.000000,59710.000000
22796.000000,10572.000000,21802.000000,59668.000000
22776.000000,10580.000000,21767.000000,59688.000000
22758.000000,10616.000000,21794.000000,59678.000000
22789.000000,10576.000000,21768.000000,59671.000000
22794.000000,10577.000000,21779.000000,59702.000000
22770.000000,10553.000000,21771.000000,59694.000000
22748.000000,10547.000000,21774.000000,59707.000000
22782.000000,10576.000000,21760.000000,59636.000000
22756.000000,10559.000000,21723.000000,59651.000000
22778.000000,10533.000000,21773.000000,59678.000000
22773.000000,10545.000000,21728.000000,59665.000000
22732.000000,10540.000000,21732.000000,59687.000000
22739.000000,10544.000000,21736.000000,59661.000000
22710.000000,10543.000000,21735.000000,59657.000000
22762.000000,10557.000000,21739.000000,59667.000000
22749.000000,10540.000000,21720.000000,59676.000000
22743.000000,10501.000000,21711.000000,59646.000000
22771.000000,10531.000000,21710.000000,59653.000000
22749.000000,10557.000000,21668.000000,59617.000000
22744.000000,10559.000000,21689.000000,59632.000000
22789.000000,10574.000000,21665.000000,59613.000000
22787.000000,10533.000000,21648.000000,59611.000000
22767.000000,10550.000000,21669.000000,59607.000000
22789.000000,10548.000000,21646.000000,59631.000000
22787.000000,10565.000000,21659.000000,59607.000000
22772.000000,10547.000000,21655.000000,59607.000000
22787.000000,10554.000000,21636.000000,59615.000000
22786.000000,10595.000000,21634.000000,59595.000000
22791.000000,10548.000000,21677.000000,59605.000000
22780.000000,10567.000000,21632.000000,59596.000000
22823.000000,10571.000000,21621.000000,59583.000000
22805.000000,10585.000000,21610.000000,59613.000000
22794.000000,10528.000000,21590.000000,59581.000000
22793.000000,10563.000000,21585.000000,59570.000000
22771.000000,10560.000000,21614.000000,59581.000000
22780.000000,10586.000000,21547.000000,59571.000000
22797.000000,10569.000000,21567.000000,59588.000000
22789.000000,10580.000000,21564.000000,59572.000000
22779.000000,10535.000000,21544.000000,59559.000000
22763.000000,10548.000000,21550.000000,59556.000000
22766.000000,10558.000000,21540.000000,59578.000000
22759.000000,10525.000000,21533.000000,59575.000000
22754.000000,10513.000000,21550.000000,59564.000000
22745.000000,10537.000000,21559.000000,59553.000000
22757.000000,10501.000000,21507.000000,59561.000000
22761.000000,10509.000000,21484.000000,59557.000000
22727.000000,10530.000000,21501.000000,59526.000000
22752.000000,10510.000000,21467.000000,59522.000000
22691.000000,10479.000000,21474.000000,59521.000000
22689.000000,10466.000000,21448.000000,59505.000000
22691.000000,10498.000000,21435.000000,59524.000000
22710.000000,10457.000000,21429.000000,59509.000000
22720.000000,10464.000000,21424.000000,59472.000000
22712.000000,10491.000000,21460.000000,59496.000000
22688.000000,10459.000000,21431.000000,59465.000000
22713.000000,10455.000000,21395.000000,59472.000000
22685.000000,10492.000000,21387.000000,59448.000000
22714.000000,10456.000000,21362.000000,59471.000000
22677.000000,10447.000000,21401.000000,59448.000000
22663.000000,10478.000000,21366.000000,59476.000000
22654.000000,10434.000000,21355.000000,59481.000000
22671.000000,10446.000000,21332.000000,59459.000000
22690.000000,10434.000000,21353.000000,59468.000000
22709.000000,10447.000000,21325.000000,59439.000000
22677.000000,10463.000000,21284.000000,59428.000000
22637.000000,10455.000000,21285.000000,59404.000000
22666.000000,10459.000000,21289.000000,59407.000000
22674.000000,10457.000000,21294.000000,59409.000000
22684.000000,10473.000000,21264.000000,59402.000000
22718.000000,10479.000000,21266.000000,59383.000000
22697.000000,10473.000000,21203.000000,59350.000000
22752.000000,10516.000000,21229.000000,59389.000000
22768.000000,10539.000000,21221.000000,59392.000000
22797.000000,10530.000000,21232.000000,59349.000000
22782.000000,10544.000000,21185.000000,59387.000000
22810.000000,10544.000000,21198.000000,59359.000000
22851.000000,10571.000000,21200.000000,59380.000000
22863.000000,10603.000000,21187.000000,59339.000000
22887.000000,10631.000000,21192.000000,59348.000000
22933.000000,10642.000000,21180.000000,59332.000000
22942.000000,10677.000000,21215.000000,59315.000000
22960.000000,10702.000000,21179.000000,59383.000000
22996.000000,10733.000000,21202.000000,59359.000000
23039.000000,10766.000000,21198.000000,59371.000000
23086.000000,10794.000000,21203.000000,59368.000000
23150.000000,10785.000000,21181.000000,59363.000000
23155.000000,10853.000000,21225.000000,59398.000000
23218.000000,10905.000000,21234.000000,59390.000000
23242.000000,10899.000000,21202.000000,59357.000000
23270.000000,10944.000000,21181.000000,59375.000000
23327.000000,10999.000000,21156.000000,59383.000000
23354.000000,11037.000000,21199.000000,59378.000000
23390.000000,11062.000000,21179.000000,59353.000000
23399.000000,11017.000000,21194.000000,59367.000000
23436.000000,11093.000000,21188.000000,59370.000000
23473.000000,11093.000000,21185.000000,59345.000000
23458.000000,11097.000000,21150.000000,59347.000000
23455.000000,11096.000000,21148.000000,59327.000000
23458.000000,11089.000000,21141.000000,59333.000000
23476.000000,11111.000000,21156.000000,59343.000000
23474.000000,11081.000000,21150.000000,59342.000000
23459.000000,11081.000000,21129.000000,59323.000000
23434.000000,11074.000000,21127.000000,59357.000000
23406.000000,11073.000000,21098.000000,59323.000000
23414.000000,11075.000000,21056.000000,59287.000000
23421.000000,11080.000000,21040.000000,59277.000000
23409.000000,11077.000000,21067.000000,59255.000000
23409.000000,11046.000000,21033.000000,59281.000000
23389.000000,11056.000000,21043.000000,59289.000000
23383.000000,11037.000000,21044.000000,59288.000000
23383.000000,11030.000000,21053.000000,59238.000000
23362.000000,11023.000000,21051.000000,59250.000000
23384.000000,10987.000000,21038.000000,59253.000000
23380.000000,11017.000000,21046.000000,59263.000000
23369.000000,11042.000000,21031.000000,59283.000000
23367.000000,11001.000000,21042.000000,59249.000000
23380.000000,10986.000000,21064.000000,59269.000000
23368.000000,11025.000000,21066.000000,59289.000000
23330.000000,11006.000000,21063.000000,59278.000000
23350.000000,10968.000000,21042.000000,59310.000000
23372.000000,10979.000000,21049.000000,59281.000000
23375.000000,10969.000000,21053.000000,59249.000000
23374.000000,10979.000000,21028.000000,59260.000000
23343.000000,10982.000000,21032.000000,59247.000000
23345.000000,11004.000000,21043.000000,59261.000000
23356.000000,10969.000000,21069.000000,59268.000000
23347.000000,10988.000000,21042.000000,59279.000000
23354.000000,11008.000000,21077.000000,59238.000000
23349.000000,11016.000000,21048.000000,59281.000000
23359.000000,10959.000000,21067.000000,59296.000000
23344.000000,10991.000000,21068.000000,59288.000000
23315.000000,10970.000000,21052.000000,59264.000000
23341.000000,10965.000000,21091.000000,59323.000000
23336.000000,10957.000000,21115.000000,59320.000000
23331.000000,10979.000000,21116.000000,59307.000000
23358.000000,10964.000000,21156.000000,59336.000000
23310.000000,10979.000000,21188.000000,59356.000000
23324.000000,10976.000000,21244.000000,59342.000000
23348.000000,10938.000000,21266.000000,59409.000000
23303.000000,10958.000000,21314.000000,59433.000000
23324.000000,10926.000000,21320.000000,59464.000000
23304.000000,10964.000000,21386.000000,59447.000000
23314.000000,10894.000000,21395.000000,59484.000000
23291.000000,10915.000000,21474.000000,59535.000000
23274.000000,10917.000000,21580.000000,59568.000000
23308.000000,10901.000000,21635.000000,59609.000000
23242.000000,10911.000000,21670.000000,59645.000000
23248.000000,10893.000000,21731.000000,59684.000000
23289.000000,10930.000000,21778.000000,59718.000000
23285.000000,10909.000000,21832.000000,59736.000000
23259.000000,10904.000000,21901.000000,59761.000000
23281.000000,10904.000000,21975.000000,59794.000000
23233.000000,10890.000000,22046.000000,59822.000000
23249.000000,10891.000000,22073.000000,59878.000000
23264.000000,10916.000000,22056.000000,59884.000000
23208.000000,10916.000000,22129.000000,59902.000000
23269.000000,10901.000000,22116.000000,59913.000000
23281.000000,10908.000000,22123.000000,59855.000000
23227.000000,10862.000000,22115.000000,59881.000000
23234.000000,10872.000000,22094.000000,59903.000000
23234.000000,10866.000000,22094.000000,59898.000000
23247.000000,10855.000000,22101.000000,59893.000000
23221.000000,10862.000000,22099.000000,59910.000000
23244.000000,10867.000000,22084.000000,59907.000000
23218.000000,10832.000000,22086.000000,59910.000000
23186.000000,10862.000000,22070.000000,59901.000000
23187.000000,10836.000000,22090.000000,59871.000000
23161.000000,10817.000000,22050.000000,59871.000000
23166.000000,10824.000000,22058.000000,59860.000000
23175.000000,10843.000000,22046.000000,59874.000000
23143.000000,10821.000000,22046.000000,59865.000000
23191.000000,10778.000000,22027.000000,59867.000000
23151.000000,10803.000000,21986.000000,59872.000000
23198.000000,10792.000000,21978.000000,59833.000000
23160.000000,10795.000000,22016.000000,59836.000000
23164.000000,10788.000000,21971.000000,59817.000000
23120.000000,10786.000000,21990.000000,59813.000000
23140.000000,10800.000000,21984.000000,59836.000000
23110.000000,10781.000000,21970.000000,59821.000000
23119.000000,10794.000000,21971.000000,59832.000000
23103.000000,10779.000000,21917.000000,59804.000000
23082.000000,10763.000000,21955.000000,59822.000000
23069.000000,10754.000000,21917.000000,59779.000000
23142.000000,10774.000000,21943.000000,59802.000000
23109.000000,10745.000000,21924.000000,59774.000000
23114.000000,10720.000000,21925.000000,59815.000000
23098.000000,10769.000000,21923.000000,59791.000000
23113.000000,10753.000000,21873.000000,59800.000000
23126.000000,10743.000000,21889.000000,59778.000000
23119.000000,10733.000000,21911.000000,59819.000000
23102.000000,10748.000000,21877.000000,59783.000000
23081.000000,10738.000000,21901.000000,59777.000000
23090.000000,10764.000000,21890.000000,59741.000000
23109.000000,10738.000000,21872.000000,59749.000000
23098.000000,10741.000000,21878.000000,59747.000000
23086.000000,10707.000000,21867.000000,59785.000000
23086.000000,10735.000000,21873.000000,59744.000000
23093.000000,10728.000000,21879.000000,59763.000000
23070.000000,10708.000000,21844.000000,59763.000000
23124.000000,10774.000000,21820.000000,59760.000000
23063.000000,10716.000000,21793.000000,59709.000000
23070.000000,10726.000000,21816.000000,59731.000000
23085.000000,10700.000000,21812.000000,59757.000000
23031.000000,10685.000000,21815.000000,59727.000000
23031.000000,10700.000000,21806.000000,59762.000000
23026.000000,10710.000000,21781.000000,59763.000000
23027.000000,10700.000000,21752.000000,59717.000000
23001.000000,10655.000000,21764.000000,59724.000000
22961.000000,10644.000000,21753.000000,59676.000000
22980.000000,10660.000000,21745.000000,59703.000000
22957.000000,10651.000000,21765.000000,59664.000000
22945.000000,10635.000000,21750.000000,59700.000000
22952.000000,10621.000000,21748.000000,59697.000000
22931.000000,10623.000000,21737.000000,59678.000000
22942.000000,10621.000000,21763.000000,59722.000000
22958.000000,10626.000000,21727.000000,59704.000000
22934.000000,10606.000000,21725.000000,59678.000000
22927.000000,10604.000000,21695.000000,59654.000000
22933.000000,10604.000000,21697.000000,59660.000000
22927.000000,10608.000000,21649.000000,59656.000000
22919.000000,10598.000000,21697.000000,59682.000000
22941.000000,10586.000000,21716.000000,59648.000000
22894.000000,10616.000000,21692.000000,59656.000000
22936.000000,10629.000000,21686.000000,59666.000000
22946.000000,10587.000000,21686.000000,59659.000000
22910.000000,10612.000000,21655.000000,59662.000000
22915.000000,10591.000000,21705.000000,59638.000000
22909.000000,10607.000000,21635.000000,59637.000000
22929.000000,10596.000000,21647.000000,59611.000000
22957.000000,10598.000000,21636.000000,59620.000000
22935.000000,10629.000000,21640.000000,59602.000000
22928.000000,10605.000000,21604.000000,59619.000000
22917.000000,10661.000000,21623.000000,59630.000000
22917.000000,10615.000000,21604.000000,59641.000000
22936.000000,10659.000000,21605.000000,59601.000000
22954.000000,10639.000000,21611.000000,59606.000000
22975.000000,10624.000000,21600.000000,59585.000000
22940.000000,10654.000000,21546.000000,59601.000000
22992.000000,10648.000000,21552.000000,59577.000000
22994.000000,10652.000000,21506.000000,59595.000000
22967.000000,10658.000000,21527.000000,59566.000000
23032.000000,10640.000000,21510.000000,59553.000000
23044.000000,10698.000000,21490.000000,59574.000000
23076.000000,10700.000000,21492.000000,59521.000000
23072.000000,10725.000000,21486.000000,59520.000000
23082.000000,10766.000000,21482.000000,59529.000000
23119.000000,10796.000000,21476.000000,59537.000000
23127.000000,10776.000000,21440.000000,59513.000000
23163.000000,10846.000000,21455.000000,59490.000000
23195.000000,10900.000000,21422.000000,59501.000000
23250.000000,10850.000000,21437.000000,59509.000000
23264.000000,10875.000000,21387.000000,59486.000000
23360.000000,10957.000000,21418.000000,59484.000000
23375.000000,10995.000000,21383.000000,59486.000000
23406.000000,10976.000000,21362.000000,59481.000000
23402.000000,11013.000000,21373.000000,59473.000000
23432.000000,11051.000000,21333.000000,59489.000000
23457.000000,11079.000000,21333.000000,59443.000000
23475.000000,11071.000000,21362.000000,59478.000000
23500.000000,11128.000000,21396.000000,59485.000000
23534.000000,11143.000000,21328.000000,59491.000000
23560.000000,11151.000000,21337.000000,59470.000000
23540.000000,11136.000000,21280.000000,59483.000000
23527.000000,11141.000000,21318.000000,59456.000000
23559.000000,11128.000000,21348.000000,59464.000000
23559.000000,11137.000000,21323.000000,59457.000000
23537.000000,11138.000000,21316.000000,59464.000000
23504.000000,11125.000000,21350.000000,59460.000000
23526.000000,11132.000000,21307.000000,59481.000000
23525.000000,11082.000000,21312.000000,59455.000000
23469.000000,11089.000000,21303.000000,59457.000000
23488.000000,11109.000000,21343.000000,59455.000000
23452.000000,11083.000000,21327.000000,59437.000000
23518.000000,11089.000000,21314.000000,59441.000000
23493.000000,11075.000000,21337.000000,59451.000000
23458.000000,11058.000000,21349.000000,59483.000000
23463.000000,11042.000000,21321.000000,59468.000000
23429.000000,11070.000000,21277.000000,59486.000000
23486.000000,11097.000000,21285.000000,59441.000000
23434.000000,11061.000000,21326.000000,59453.000000
23432.000000,11033.000000,21290.000000,59457.000000
23414.000000,11037.000000,21281.000000,59461.000000
23437.000000,11023.000000,21285.000000,59436.000000
23441.000000,11049.000000,21233.000000,59414.000000
23429.000000,11031.000000,21237.000000,59444.000000
23396.000000,11045.000000,21230.000000,59428.000000
23407.000000,11054.000000,21210.000000,59420.000000
23453.000000,11034.000000,21198.000000,59382.000000
23444.000000,11060.000000,21195.000000,59383.000000
23440.000000,11050.000000,21194.000000,59424.000000
23448.000000,11055.000000,21179.000000,59388.000000
23476.000000,11098.000000,21192.000000,59364.000000
23485.000000,11086.000000,21142.000000,59375.000000
23502.000000,11096.000000,21157.000000,59365.000000
23494.000000,11101.000000,21164.000000,59362.000000
23547.000000,11124.000000,21159.000000,59334.000000
23537.000000,11083.000000,21162.000000,59373.000000
23503.000000,11081.000000,21183.000000,59356.000000
23526.000000,11107.000000,21154.000000,59347.000000
23510.000000,11075.000000,21143.000000,59361.000000
23522.000000,11097.000000,21148.000000,59367.000000
23503.000000,11065.000000,21125.000000,59347.000000
23460.000000,11031.000000,21142.000000,59364.000000
23451.000000,11050.000000,21153.000000,59319.000000
23460.000000,11048.000000,21144.000000,59326.000000
23442.000000,11043.000000,21166.000000,59377.000000
23407.000000,11016.000000,21147.000000,59347.000000
23434.000000,11012.000000,21146.000000,59367.000000
23385.000000,10974.000000,21145.000000,59380.000000
23388.000000,11000.000000,21135.000000,59347.000000
23355.000000,10974.000000,21127.000000,59370.000000
23375.000000,10968.000000,21161.000000,59363.000000
23318.000000,10962.000000,21166.000000,59365.000000
23332.000000,10971.000000,21134.000000,59379.000000
23360.000000,10951.000000,21162.000000,59374.000000
23291.000000,10921.000000,21215.000000,59405.000000
23311.000000,10886.000000,21187.000000,59404.000000
23304.000000,10930.000000,21226.000000,59419.000000
23279.000000,10901.000000,21252.000000,59436.000000
23303.000000,10895.000000,21272.000000,59425.000000
23264.000000,10898.000000,21306.000000,59422.000000
23277.000000,10893.000000,21326.000000,59464.000000
23249.000000,10913.000000,21355.000000,59506.000000
23279.000000,10901.000000,21397.000000,59507.000000
23260.000000,10888.000000,21439.000000,59523.000000
23259.000000,10848.000000,21484.000000,59550.000000
23221.000000,10875.000000,21537.000000,59563.000000
23222.000000,10845.000000,21587.000000,59616.000000
23208.000000,10837.000000,21674.000000,59643.000000
23244.000000,10877.000000,21728.000000,59704.000000
23241.000000,10842.000000,21776.000000,59723.000000
23205.000000,10872.000000,21797.000000,59717.000000
23192.000000,10870.000000,21823.000000,59804.000000
23184.000000,10831.000000,21920.000000,59806.000000
23200.000000,10832.000000,21998.000000,59805.000000
23197.000000,10815.000000,22022.000000,59865.000000
23221.000000,10853.000000,22076.000000,59890.000000
23189.000000,10800.000000,22060.000000,59911.000000
23159.000000,10819.000000,22092.000000,59945.000000
23194.000000,10828.000000,22116.000000,59917.000000
23191.000000,10816.000000,22150.000000,59917.000000
23161.000000,10841.000000,22126.000000,59915.000000
23163.000000,10789.000000,22142.000000,59939.000000
23156.000000,10798.000000,22162.000000,59942.000000
23161.000000,10801.000000,22131.000000,59941.000000
23148.000000,10789.000000,22126.000000,59907.000000
23164.000000,10788.000000,22140.000000,59916.000000
23159.000000,10808.000000,22096.000000,59906.000000
23197.000000,10806.000000,22091.000000,59918.000000
23166.000000,10831.000000,22102.000000,59929.000000
23198.000000,10801.000000,22095.000000,59891.000000
23206.000000,10810.000000,22089.000000,59902.000000
23196.000000,10789.000000,22101.000000,59885.000000
23176.000000,10795.000000,22073.000000,59917.000000
23186.000000,10790.000000,22065.000000,59913.000000
23194.000000,10804.000000,22040.000000,59909.000000
23180.000000,10779.000000,22018.000000,59923.000000
23195.000000,10812.000000,22041.000000,59888.000000
23171.000000,10769.000000,22009.000000,59862.000000
23189.000000,10810.000000,21985.000000,59874.000000
23198.000000,10818.000000,22000.000000,59854.000000
23183.000000,10792.000000,22001.000000,59883.000000
23183.000000,10781.000000,22020.000000,59822.000000
23203.000000,10820.000000,22007.000000,59848.000000
23149.000000,10770.000000,21975.000000,59843.000000
23125.000000,10755.000000,21953.000000,59856.000000
23145.000000,10800.000000,21968.000000,59845.000000
23160.000000,10782.000000,21916.000000,59829.000000
23134.000000,10779.000000,21941.000000,59832.000000
23202.000000,10782.000000,21926.000000,59793.000000
23134.000000,10777.000000,21927.000000,59815.000000
23159.000000,10795.000000,21932.000000,59807.000000
23158.000000,10753.000000,21927.000000,59802.000000
23169.000000,10750.000000,21947.000000,59789.000000
23169.000000,10760.000000,21944.000000,59791.000000
23135.000000,10735.000000,21911.000000,59798.000000
23125.000000,10802.000000,21901.000000,59841.000000
23113.000000,10749.000000,21913.000000,59806.000000
23159.000000,10765.000000,21912.000000,59805.000000
23137.000000,10785.000000,21910.000000,59784.000000
23146.000000,10784.000000,21867.000000,59788.000000
23127.000000,10749.000000,21858.000000,59767.000000
23104.000000,10742.000000,21862.000000,59772.000000
23128.000000,10753.000000,21855.000000,59791.000000
23095.000000,10752.000000,21851.000000,59789.000000
23139.000000,10772.000000,21806.000000,59768.000000
23126.000000,10786.000000,21822.000000,59767.000000
23117.000000,10771.000000,21825.000000,59756.000000
23165.000000,10788.000000,21806.000000,59768.000000
23171.000000,10812.000000,21830.000000,59770.000000
23159.000000,10827.000000,21825.000000,59738.000000
23212.000000,10851.000000,21815.000000,59721.000000
23227.000000,10840.000000,21819.000000,59755.000000
23232.000000,10841.000000,21796.000000,59723.000000
23219.000000,10870.000000,21793.000000,59730.000000
23291.000000,10884.000000,21761.000000,59726.000000
23325.000000,10922.000000,21778.000000,59739.000000
23325.000000,10951.000000,21774.000000,59722.000000
23392.000000,10965.000000,21756.000000,59718.000000
23407.000000,10975.000000,21762.000000,59699.000000
23399.000000,11015.000000,21763.000000,59708.000000
23451.000000,11031.000000,21721.000000,59698.000000
23479.000000,11057.000000,21732.000000,59718.000000
23510.000000,11064.000000,21726.000000,59677.000000
23532.000000,11086.000000,21712.000000,59679.000000
23547.000000,11146.000000,21715.000000,59664.000000
23565.000000,11139.000000,21691.000000,59672.000000
23559.000000,11128.000000,21702.000000,59662.000000
23603.000000,11163.000000,21694.000000,59649.000000
23549.000000,11182.000000,21654.000000,59642.000000
23583.000000,11155.000000,21672.000000,59666.000000
23621.000000,11183.000000,21680.000000,59660.000000
23629.000000,11178.000000,21651.000000,59634.000000
23593.000000,11165.000000,21622.000000,59634.000000
23590.000000,11164.000000,21607.000000,59652.000000
23593.000000,11137.000000,21616.000000,59630.000000
23557.000000,11147.000000,21580.000000,59641.000000
23607.000000,11169.000000,21597.000000,59609.000000
23600.000000,11194.000000,21565.000000,59626.000000
23577.000000,11108.000000,21549.000000,59592.000000
23596.000000,11162.000000,21545.000000,59584.000000
23576.000000,11147.000000,21537.000000,59580.000000
23599.000000,11155.000000,21537.000000,59585.000000
23567.000000,11125.000000,21489.000000,59617.000000
23608.000000,11158.000000,21518.000000,59563.000000
23602.000000,11144.000000,21493.000000,59556.000000
23575.000000,11121.000000,21472.000000,59549.000000
23597.000000,11157.000000,21499.000000,59567.000000
23584.000000,11154.000000,21463.000000,59556.000000
23592.000000,11150.000000,21456.000000,59546.000000
23572.000000,11151.000000,21474.000000,59549.000000
23563.000000,11133.000000,21472.000000,59542.000000
23557.000000,11138.000000,21479.000000,59560.000000
23541.000000,11146.000000,21474.000000,59549.000000
23556.000000,11109.000000,21454.000000,59543.000000
23569.000000,11128.000000,21486.000000,59534.000000
23562.000000,11113.000000,21466.000000,59566.000000
23547.000000,11119.000000,21457.000000,59570.000000
23560.000000,11116.000000,21452.000000,59565.000000
23572.000000,11130.000000,21503.000000,59593.000000
23530.000000,11117.000000,21448.000000,59550.000000
23521.000000,11119.000000,21489.000000,59551.000000
23539.000000,11105.000000,21486.000000,59538.000000
23513.000000,11086.000000,21502.000000,59570.000000
23514.000000,11089.000000,21491.000000,59567.000000
23509.000000,11090.000000,21452.000000,59585.000000
