660nm,730nm,850nm,940nm
32133.000000,19509.000000,23840.000000,58187.000000
32134.000000,19549.000000,23851.000000,58170.000000
32079.000000,19542.000000,23865.000000,58130.000000
32076.000000,19532.000000,23822.000000,58139.000000
32078.000000,19506.000000,23785.000000,58124.000000
32092.000000,19542.000000,23798.000000,58152.000000
32088.000000,19499.000000,23795.000000,58131.000000
32070.000000,19505.000000,23806.000000,58137.000000
32078.000000,19501.000000,23774.000000,58141.000000
31992.000000,19480.000000,23743.000000,58108.000000
31996.000000,19459.000000,23723.000000,58106.000000
32020.000000,19475.000000,23728.000000,58092.000000
32001.000000,19450.000000,23737.000000,58111.000000
31971.000000,19426.000000,23670.000000,58069.000000
31956.000000,19428.000000,23697.000000,58090.000000
31960.000000,19419.000000,23651.000000,58071.000000
31938.000000,19421.000000,23637.000000,58076.000000
31955.000000,19417.000000,23650.000000,58067.000000
31964.000000,19439.000000,23666.000000,58065.000000
31950.000000,19419.000000,23639.000000,58037.000000
31938.000000,19393.000000,23655.000000,58046.000000
31922.000000,19367.000000,23592.000000,58037.000000
31892.000000,19408.000000,23606.000000,58006.000000
31854.000000,19397.000000,23589.000000,58034.000000
31885.000000,19374.000000,23594.000000,58023.000000
31828.000000,19316.000000,23551.000000,57989.000000
31815.000000,19315.000000,23526.000000,57973.000000
31823.000000,19343.000000,23532.000000,58005.000000
31808.000000,19271.000000,23490.000000,57988.000000
31778.000000,19313.000000,23455.000000,57962.000000
31803.000000,19311.000000,23493.000000,57961.000000
31785.000000,19257.000000,23454.000000,57960.000000
31766.000000,19248.000000,23464.000000,57953.000000
31724.000000,19216.000000,23423.000000,57923.000000
31721.000000,19247.000000,23435.000000,57935.000000
31728.000000,19227.000000,23444.000000,57911.000000
31699.000000,19241.000000,23383.000000,57944.000000
31702.000000,19206.000000,23403.000000,57879.000000
31708.000000,19198.000000,23393.000000,57924.000000
31712.000000,19216.000000,23377.000000,57935.000000
31712.000000,19195.000000,23335.000000,57903.000000
31664.000000,19209.000000,23331.000000,57875.000000
31670.000000,19221.000000,23337.000000,57885.000000
31682.000000,19197.000000,23304.000000,57864.000000
31643.000000,19168.000000,23331.000000,57890.000000
31612.000000,19140.000000,23340.000000,57862.000000
31633.000000,19160.000000,23356.000000,57857.000000
31609.000000,19193.000000,23306.000000,57895.000000
31633.000000,19170.000000,23364.000000,57868.000000
31707.000000,19194.000000,23413.000000,57946.000000
31702.000000,19233.000000,23440.000000,57910.000000
31679.000000,19260.000000,23453.000000,57934.000000
31709.000000,19267.000000,23461.000000,57960.000000
31712.000000,19264.000000,23458.000000,57946.000000
31741.000000,19286.000000,23488.000000,57972.000000
31726.000000,19265.000000,23506.000000,57946.000000
31772.000000,19265.000000,23511.000000,57995.000000
31773.000000,19279.000000,23551.000000,57978.000000
31828.000000,19328.000000,23687.000000,58082.000000
31872.000000,19349.000000,23688.000000,58113.000000
31906.000000,19428.000000,23746.000000,58105.000000
31944.000000,19415.000000,23786.000000,58114.000000
32023.000000,19516.000000,23911.000000,58217.000000
32060.000000,19544.000000,23980.000000,58242.000000
32287.000000,19720.000000,24187.000000,58373.000000
32305.000000,19756.000000,24224.000000,58390.000000
32352.000000,19760.000000,24254.000000,58411.000000
32386.000000,19793.000000,24226.000000,58403.000000
32382.000000,19790.000000,24283.000000,58372.000000
32383.000000,19805.000000,24262.000000,58414.000000
32399.000000,19761.000000,24269.000000,58392.000000
32291.000000,19760.000000,24214.000000,58344.000000
32295.000000,19751.000000,24172.000000,58359.000000
32320.000000,19744.000000,24155.000000,58355.000000
32305.000000,19731.000000,24191.000000,58357.000000
32291.000000,19718.000000,24181.000000,58361.000000
32259.000000,19664.000000,24148.000000,58322.000000
32267.000000,19657.000000,24143.000000,58317.000000
32223.000000,19673.000000,24104.000000,58315.000000
32244.000000,19649.000000,24103.000000,58313.000000
32206.000000,19706.000000,24094.000000,58311.000000
32199.000000,19638.000000,24069.000000,58314.000000
32221.000000,19642.000000,24054.000000,58270.000000
32159.000000,19616.000000,24038.000000,58279.000000
32159.000000,19635.000000,24025.000000,58263.000000
32215.000000,19638.000000,24011.000000,58284.000000
32183.000000,19595.000000,23992.000000,58263.000000
32150.000000,19638.000000,24013.000000,58238.000000
32118.000000,19588.000000,24017.000000,58259.000000
32158.000000,19583.000000,23949.000000,58210.000000
32137.000000,19589.000000,23990.000000,58209.000000
32081.000000,19557.000000,23930.000000,58200.000000
32060.000000,19526.000000,23863.000000,58157.000000
32040.000000,19529.000000,23859.000000,58212.000000
32003.000000,19504.000000,23845.000000,58138.000000
31980.000000,19461.000000,23765.000000,58122.000000
31954.000000,19482.000000,23803.000000,58138.000000
31970.000000,19450.000000,23753.000000,58111.000000
31943.000000,19450.000000,23763.000000,58117.000000
31915.000000,19415.000000,23735.000000,58112.000000
31912.000000,19408.000000,23746.000000,58067.000000
31952.000000,19406.000000,23731.000000,58093.000000
31872.000000,19394.000000,23660.000000,58029.000000
31870.000000,19359.000000,23660.000000,58088.000000
31877.000000,19361.000000,23654.000000,58037.000000
31813.000000,19345.000000,23638.000000,58048.000000
31831.000000,19332.000000,23603.000000,58016.000000
31793.000000,19312.000000,23567.000000,57992.000000
31813.000000,19279.000000,23562.000000,58039.000000
31806.000000,19315.000000,23573.000000,58032.000000
31791.000000,19299.000000,23542.000000,57989.000000
31793.000000,19275.000000,23527.000000,57959.000000
31792.000000,19293.000000,23510.000000,57954.000000
31774.000000,19286.000000,23522.000000,57946.000000
31769.000000,19246.000000,23486.000000,57974.000000
31753.000000,19290.000000,23534.000000,57993.000000
31736.000000,19269.000000,23486.000000,57976.000000
31708.000000,19268.000000,23447.000000,57951.000000
31701.000000,19231.000000,23416.000000,57960.000000
31716.000000,19224.000000,23425.000000,57946.000000
31692.000000,19208.000000,23411.000000,57946.000000
31718.000000,19225.000000,23413.000000,57959.000000
31669.000000,19191.000000,23357.000000,57902.000000
31615.000000,19188.000000,23353.000000,57886.000000
31639.000000,19158.000000,23325.000000,57885.000000
31603.000000,19147.000000,23315.000000,57867.000000
31643.000000,19130.000000,23354.000000,57874.000000
31597.000000,19120.000000,23310.000000,57874.000000
31593.000000,19156.000000,23292.000000,57864.000000
31578.000000,19142.000000,23315.000000,57888.000000
31581.000000,19129.000000,23307.000000,57832.000000
31616.000000,19139.000000,23308.000000,57844.000000
31559.000000,19119.000000,23269.000000,57858.000000
31550.000000,19126.000000,23291.000000,57825.000000
31561.000000,19113.000000,23317.000000,57870.000000
31551.000000,19083.000000,23245.000000,57833.000000
31560.000000,19110.000000,23233.000000,57829.000000
31481.000000,19066.000000,23213.000000,57823.000000
31512.000000,19056.000000,23183.000000,57786.000000
31455.000000,19028.000000,23196.000000,57802.000000
31475.000000,19047.000000,23186.000000,57782.000000
31403.000000,19050.000000,23181.000000,57787.000000
31403.000000,19023.000000,23171.000000,57803.000000
31439.000000,19030.000000,23217.000000,57777.000000
31446.000000,19045.000000,23216.000000,57748.000000
31452.000000,19073.000000,23245.000000,57855.000000
31455.000000,19077.000000,23257.000000,57826.000000
31513.000000,19100.000000,23294.000000,57864.000000
31516.000000,19076.000000,23300.000000,57875.000000
31495.000000,19122.000000,23289.000000,57858.000000
31537.000000,19111.000000,23327.000000,57829.000000
31537.000000,19116.000000,23288.000000,57873.000000
31542.000000,19127.000000,23344.000000,57895.000000
31563.000000,19114.000000,23338.000000,57899.000000
31592.000000,19138.000000,23348.000000,57906.000000
31579.000000,19151.000000,23389.000000,57878.000000
31625.000000,19158.000000,23421.000000,57941.000000
31621.000000,19170.000000,23436.000000,57948.000000
31661.000000,19193.000000,23459.000000,57965.000000
31821.000000,19289.000000,23642.000000,58029.000000
31844.000000,19300.000000,23670.000000,58069.000000
31858.000000,19338.000000,23718.000000,58108.000000
31927.000000,19383.000000,23761.000000,58133.000000
31948.000000,19407.000000,23791.000000,58135.000000
32038.000000,19487.000000,23919.000000,58233.000000
32183.000000,19594.000000,24041.000000,58274.000000
32135.000000,19637.000000,24076.000000,58303.000000
32140.000000,19615.000000,24048.000000,58282.000000
32146.000000,19610.000000,24045.000000,58274.000000
32183.000000,19622.000000,24047.000000,58262.000000
32164.000000,19600.000000,24036.000000,58242.000000
32127.000000,19612.000000,24043.000000,58264.000000
32060.000000,19530.000000,23961.000000,58250.000000
32078.000000,19550.000000,23973.000000,58272.000000
32061.000000,19518.000000,23970.000000,58241.000000
32004.000000,19476.000000,23887.000000,58207.000000
31991.000000,19505.000000,23895.000000,58189.000000
31958.000000,19484.000000,23869.000000,58175.000000
31978.000000,19436.000000,23872.000000,58199.000000
31972.000000,19488.000000,23856.000000,58169.000000
31949.000000,19458.000000,23824.000000,58168.000000
31922.000000,19431.000000,23802.000000,58141.000000
31890.000000,19391.000000,23796.000000,58139.000000
31888.000000,19414.000000,23777.000000,58144.000000
31874.000000,19420.000000,23762.000000,58114.000000
31892.000000,19398.000000,23748.000000,58123.000000
31851.000000,19411.000000,23763.000000,58125.000000
31857.000000,19430.000000,23764.000000,58096.000000
31896.000000,19372.000000,23719.000000,58112.000000
31844.000000,19341.000000,23712.000000,58123.000000
31853.000000,19402.000000,23717.000000,58115.000000
31805.000000,19374.000000,23691.000000,58061.000000
31815.000000,19342.000000,23700.000000,58078.000000
31802.000000,19336.000000,23698.000000,58088.000000
31808.000000,19357.000000,23670.000000,58060.000000
31798.000000,19319.000000,23636.000000,58054.000000
31782.000000,19326.000000,23620.000000,58066.000000
31781.000000,19269.000000,23597.000000,58043.000000
31782.000000,19299.000000,23612.000000,58059.000000
31754.000000,19270.000000,23599.000000,58002.000000
31751.000000,19252.000000,23563.000000,58066.000000
31703.000000,19256.000000,23583.000000,57980.000000
31726.000000,19256.000000,23555.000000,58003.000000
31752.000000,19242.000000,23548.000000,57982.000000
31699.000000,19252.000000,23574.000000,57966.000000
31690.000000,19226.000000,23492.000000,57961.000000
31736.000000,19253.000000,23523.000000,58016.000000
31708.000000,19239.000000,23502.000000,57967.000000
31673.000000,19223.000000,23508.000000,57959.000000
31695.000000,19242.000000,23495.000000,57968.000000
31721.000000,19235.000000,23499.000000,57971.000000
31703.000000,19220.000000,23490.000000,57976.000000
31699.000000,19224.000000,23488.000000,57975.000000
31662.000000,19242.000000,23494.000000,58000.000000
31665.000000,19233.000000,23481.000000,57964.000000
31652.000000,19261.000000,23512.000000,57944.000000
31662.000000,19222.000000,23479.000000,57971.000000
31657.000000,19156.000000,23442.000000,57951.000000
31618.000000,19166.000000,23428.000000,57923.000000
31624.000000,19150.000000,23385.000000,57895.000000
31603.000000,19168.000000,23393.000000,57956.000000
31602.000000,19123.000000,23406.000000,57922.000000
31569.000000,19117.000000,23361.000000,57894.000000
31567.000000,19155.000000,23370.000000,57904.000000
31582.000000,19118.000000,23345.000000,57911.000000
31580.000000,19135.000000,23344.000000,57925.000000
31531.000000,19122.000000,23333.000000,57861.000000
31583.000000,19108.000000,23345.000000,57910.000000
31541.000000,19091.000000,23335.000000,57892.000000
31540.000000,19099.000000,23355.000000,57893.000000
31572.000000,19099.000000,23291.000000,57858.000000
31525.000000,19094.000000,23312.000000,57891.000000
31577.000000,19111.000000,23338.000000,57901.000000
31549.000000,19135.000000,23328.000000,57890.000000
31536.000000,19113.000000,23326.000000,57881.000000
31513.000000,19100.000000,23335.000000,57869.000000
31584.000000,19117.000000,23363.000000,57918.000000
31514.000000,19097.000000,23387.000000,57920.000000
31607.000000,19188.000000,23412.000000,57938.000000
31643.000000,19172.000000,23459.000000,57943.000000
31619.000000,19170.000000,23490.000000,57966.000000
31611.000000,19181.000000,23457.000000,57960.000000
31708.000000,19237.000000,23518.000000,57981.000000
31682.000000,19251.000000,23546.000000,58002.000000
31707.000000,19262.000000,23597.000000,58023.000000
31737.000000,19254.000000,23568.000000,58025.000000
31707.000000,19269.000000,23591.000000,58021.000000
31784.000000,19299.000000,23700.000000,58083.000000
31789.000000,19310.000000,23679.000000,58112.000000
31811.000000,19332.000000,23752.000000,58146.000000
31787.000000,19326.000000,23759.000000,58113.000000
31870.000000,19354.000000,23784.000000,58167.000000
32092.000000,19539.000000,24064.000000,58308.000000
32165.000000,19609.000000,24116.000000,58309.000000
32204.000000,19654.000000,24163.000000,58352.000000
32234.000000,19667.000000,24181.000000,58343.000000
32231.000000,19690.000000,24202.000000,58371.000000
32276.000000,19714.000000,24183.000000,58398.000000
32261.000000,19711.000000,24188.000000,58409.000000
32260.000000,19708.000000,24180.000000,58388.000000
32233.000000,19664.000000,24145.000000,58379.000000
32170.000000,19635.000000,24071.000000,58315.000000
32157.000000,19641.000000,24113.000000,58304.000000
32195.000000,19631.000000,24087.000000,58323.000000
32164.000000,19582.000000,24062.000000,58318.000000
32144.000000,19606.000000,24082.000000,58304.000000
32153.000000,19563.000000,24065.000000,58289.000000
32104.000000,19590.000000,24017.000000,58291.000000
32140.000000,19527.000000,24011.000000,58258.000000
32123.000000,19578.000000,23988.000000,58287.000000
32095.000000,19512.000000,23986.000000,58247.000000
32090.000000,19518.000000,23948.000000,58261.000000
32085.000000,19511.000000,23976.000000,58268.000000
32068.000000,19535.000000,23946.000000,58257.000000
32070.000000,19512.000000,23931.000000,58230.000000
32059.000000,19503.000000,23894.000000,58219.000000
32008.000000,19491.000000,23884.000000,58200.000000
32015.000000,19509.000000,23906.000000,58228.000000
31963.000000,19486.000000,23888.000000,58197.000000
32018.000000,19419.000000,23816.000000,58163.000000
31941.000000,19441.000000,23834.000000,58195.000000
31947.000000,19407.000000,23775.000000,58146.000000
31932.000000,19468.000000,23833.000000,58177.000000
31967.000000,19387.000000,23752.000000,58142.000000
31898.000000,19379.000000,23699.000000,58131.000000
31894.000000,19388.000000,23738.000000,58145.000000
31902.000000,19363.000000,23653.000000,58074.000000
31833.000000,19381.000000,23675.000000,58088.000000
31843.000000,19341.000000,23657.000000,58057.000000
31805.000000,19323.000000,23650.000000,58056.000000
31845.000000,19326.000000,23612.000000,58019.000000
31839.000000,19317.000000,23624.000000,58050.000000
31769.000000,19319.000000,23615.000000,58063.000000
31803.000000,19275.000000,23579.000000,58032.000000
31785.000000,19318.000000,23568.000000,58017.000000
31759.000000,19270.000000,23557.000000,58036.000000
31779.000000,19284.000000,23526.000000,58033.000000
31779.000000,19252.000000,23550.000000,58008.000000
31786.000000,19251.000000,23560.000000,58004.000000
31781.000000,19281.000000,23536.000000,58002.000000
31735.000000,19222.000000,23481.000000,57982.000000
31698.000000,19219.000000,23449.000000,57985.000000
31699.000000,19215.000000,23509.000000,57940.000000
31676.000000,19205.000000,23458.000000,57969.000000
31692.000000,19208.000000,23453.000000,57952.000000
31686.000000,19196.000000,23448.000000,57959.000000
31686.000000,19196.000000,23398.000000,57967.000000
31696.000000,19155.000000,23394.000000,57921.000000
31667.000000,19178.000000,23379.000000,57919.000000
31620.000000,19149.000000,23325.000000,57915.000000
31634.000000,19164.000000,23335.000000,57883.000000
31663.000000,19142.000000,23324.000000,57872.000000
31661.000000,19110.000000,23306.000000,57886.000000
31596.000000,19081.000000,23292.000000,57895.000000
31578.000000,19119.000000,23303.000000,57927.000000
31587.000000,19109.000000,23293.000000,57901.000000
31549.000000,19069.000000,23260.000000,57889.000000
31579.000000,19080.000000,23260.000000,57848.000000
31560.000000,19067.000000,23235.000000,57835.000000
31547.000000,19021.000000,23225.000000,57843.000000
31563.000000,19069.000000,23251.000000,57840.000000
31517.000000,19061.000000,23233.000000,57827.000000
31512.000000,19027.000000,23219.000000,57865.000000
31496.000000,19041.000000,23186.000000,57814.000000
31469.000000,19020.000000,23210.000000,57786.000000
31445.000000,19002.000000,23116.000000,57753.000000
31448.000000,18991.000000,23145.000000,57774.000000
31413.000000,18990.000000,23126.000000,57782.000000
31411.000000,18971.000000,23109.000000,57767.000000
31378.000000,18952.000000,23116.000000,57763.000000
31325.000000,18904.000000,23014.000000,57728.000000
31328.000000,18928.000000,23005.000000,57709.000000
31365.000000,18913.000000,23006.000000,57759.000000
31366.000000,18944.000000,23027.000000,57710.000000
31370.000000,18955.000000,23103.000000,57745.000000
31432.000000,18951.000000,23091.000000,57745.000000
31421.000000,18996.000000,23126.000000,57776.000000
31482.000000,19001.000000,23153.000000,57791.000000
31467.000000,18995.000000,23171.000000,57793.000000
31472.000000,19043.000000,23213.000000,57855.000000
31489.000000,19030.000000,23222.000000,57832.000000
31577.000000,19036.000000,23293.000000,57867.000000
31570.000000,19060.000000,23310.000000,57867.000000
31536.000000,19116.000000,23280.000000,57867.000000
31597.000000,19103.000000,23341.000000,57939.000000
31626.000000,19153.000000,23364.000000,57958.000000
31663.000000,19143.000000,23382.000000,57935.000000
31886.000000,19337.000000,23697.000000,58130.000000
31901.000000,19352.000000,23758.000000,58137.000000
31981.000000,19401.000000,23781.000000,58190.000000
32010.000000,19431.000000,23799.000000,58214.000000
32125.000000,19502.000000,23922.000000,58277.000000
32153.000000,19560.000000,23940.000000,58291.000000
32191.000000,19595.000000,23977.000000,58284.000000
32234.000000,19591.000000,24075.000000,58311.000000
32238.000000,19617.000000,24045.000000,58339.000000
32249.000000,19605.000000,24054.000000,58303.000000
32206.000000,19612.000000,24022.000000,58316.000000
32222.000000,19588.000000,23957.000000,58279.000000
32213.000000,19581.000000,24001.000000,58279.000000
32165.000000,19566.000000,23993.000000,58258.000000
32132.000000,19552.000000,23917.000000,58239.000000
32127.000000,19531.000000,23925.000000,58217.000000
32149.000000,19537.000000,23934.000000,58241.000000
32139.000000,19484.000000,23874.000000,58228.000000
32096.000000,19492.000000,23888.000000,58219.000000
32093.000000,19495.000000,23865.000000,58242.000000
32078.000000,19498.000000,23872.000000,58197.000000
32062.000000,19492.000000,23881.000000,58209.000000
32086.000000,19489.000000,23810.000000,58205.000000
32028.000000,19450.000000,23853.000000,58193.000000
32095.000000,19501.000000,23806.000000,58173.000000
32036.000000,19459.000000,23846.000000,58199.000000
32043.000000,19441.000000,23779.000000,58168.000000
32010.000000,19425.000000,23776.000000,58181.000000
31973.000000,19381.000000,23733.000000,58143.000000
32039.000000,19410.000000,23741.000000,58135.000000
31935.000000,19350.000000,23670.000000,58091.000000
31962.000000,19370.000000,23655.000000,58094.000000
31897.000000,19333.000000,23631.000000,58056.000000
31885.000000,19305.000000,23651.000000,58099.000000
31842.000000,19310.000000,23642.000000,58050.000000
31847.000000,19330.000000,23574.000000,58074.000000
31869.000000,19284.000000,23577.000000,58088.000000
31834.000000,19299.000000,23616.000000,58063.000000
31848.000000,19310.000000,23599.000000,58032.000000
31816.000000,19271.000000,23539.000000,58034.000000
31814.000000,19258.000000,23549.000000,58058.000000
31836.000000,19274.000000,23530.000000,58018.000000
31828.000000,19309.000000,23532.000000,58032.000000
31790.000000,19240.000000,23494.000000,58001.000000
31770.000000,19224.000000,23503.000000,57969.000000
31714.000000,19229.000000,23480.000000,58022.000000
31729.000000,19213.000000,23458.000000,58007.000000
31675.000000,19211.000000,23424.000000,57966.000000
31699.000000,19165.000000,23436.000000,57959.000000
31679.000000,19191.000000,23452.000000,57984.000000
31701.000000,19168.000000,23383.000000,57927.000000
31730.000000,19191.000000,23388.000000,57946.000000
31671.000000,19144.000000,23371.000000,57933.000000
31684.000000,19167.000000,23359.000000,57921.000000
31684.000000,19146.000000,23368.000000,57950.000000
31686.000000,19182.000000,23342.000000,57925.000000
31649.000000,19149.000000,23360.000000,57910.000000
31648.000000,19114.000000,23324.000000,57903.000000
31599.000000,19080.000000,23314.000000,57904.000000
31588.000000,19100.000000,23299.000000,57858.000000
31552.000000,19048.000000,23256.000000,57842.000000
31554.000000,19076.000000,23246.000000,57873.000000
31548.000000,19062.000000,23217.000000,57862.000000
31535.000000,19044.000000,23251.000000,57855.000000
31529.000000,19039.000000,23227.000000,57862.000000
31504.000000,19007.000000,23211.000000,57864.000000
31529.000000,19038.000000,23200.000000,57827.000000
31508.000000,19031.000000,23227.000000,57854.000000
31497.000000,19037.000000,23184.000000,57834.000000
31487.000000,19006.000000,23214.000000,57808.000000
31486.000000,19015.000000,23194.000000,57835.000000
31473.000000,19013.000000,23201.000000,57837.000000
31528.000000,19047.000000,23166.000000,57815.000000
31470.000000,19014.000000,23168.000000,57828.000000
31488.000000,18995.000000,23161.000000,57798.000000
31362.000000,18964.000000,23125.000000,57761.000000
31380.000000,18918.000000,23080.000000,57760.000000
31397.000000,18951.000000,23053.000000,57743.000000
31403.000000,18975.000000,23100.000000,57754.000000
31424.000000,18973.000000,23123.000000,57777.000000
31417.000000,18963.000000,23178.000000,57838.000000
31439.000000,18992.000000,23176.000000,57800.000000
31490.000000,18990.000000,23228.000000,57866.000000
31513.000000,19054.000000,23238.000000,57878.000000
31552.000000,19069.000000,23299.000000,57870.000000
31569.000000,19070.000000,23292.000000,57898.000000
31582.000000,19104.000000,23291.000000,57921.000000
31628.000000,19103.000000,23311.000000,57894.000000
31618.000000,19155.000000,23341.000000,57920.000000
31659.000000,19150.000000,23418.000000,57967.000000
31668.000000,19149.000000,23422.000000,57991.000000
31693.000000,19202.000000,23468.000000,57981.000000
31696.000000,19201.000000,23483.000000,58009.000000
31890.000000,19294.000000,23661.000000,58113.000000
31899.000000,19337.000000,23675.000000,58106.000000
31952.000000,19354.000000,23733.000000,58150.000000
31945.000000,19381.000000,23724.000000,58172.000000
32200.000000,19557.000000,24002.000000,58289.000000
32174.000000,19568.000000,23988.000000,58282.000000
32234.000000,19595.000000,24066.000000,58315.000000
32274.000000,19633.000000,24098.000000,58329.000000
32277.000000,19612.000000,24055.000000,58357.000000
32251.000000,19641.000000,24029.000000,58323.000000
32267.000000,19632.000000,24063.000000,58342.000000
32243.000000,19604.000000,24050.000000,58344.000000
32248.000000,19621.000000,24022.000000,58316.000000
32227.000000,19613.000000,24047.000000,58308.000000
32187.000000,19591.000000,23976.000000,58275.000000
32177.000000,19577.000000,23990.000000,58288.000000
32169.000000,19550.000000,23992.000000,58255.000000
32205.000000,19563.000000,23989.000000,58305.000000
32181.000000,19553.000000,23952.000000,58264.000000
32185.000000,19548.000000,23951.000000,58289.000000
32132.000000,19559.000000,23987.000000,58300.000000
32160.000000,19546.000000,23981.000000,58291.000000
32143.000000,19507.000000,23941.000000,58278.000000
32163.000000,19509.000000,23914.000000,58268.000000
32122.000000,19499.000000,23911.000000,58279.000000
32106.000000,19545.000000,23913.000000,58271.000000
32155.000000,19488.000000,23854.000000,58236.000000
32140.000000,19531.000000,23908.000000,58263.000000
32141.000000,19494.000000,23902.000000,58232.000000
32122.000000,19496.000000,23865.000000,58219.000000
32103.000000,19502.000000,23845.000000,58234.000000
32035.000000,19466.000000,23838.000000,58204.000000
32028.000000,19427.000000,23769.000000,58173.000000
32035.000000,19388.000000,23797.000000,58184.000000
31999.000000,19419.000000,23789.000000,58165.000000
31997.000000,19450.000000,23791.000000,58169.000000
32012.000000,19437.000000,23771.000000,58158.000000
31990.000000,19411.000000,23742.000000,58200.000000
32018.000000,19386.000000,23718.000000,58181.000000
32059.000000,19412.000000,23737.000000,58156.000000
32024.000000,19416.000000,23715.000000,58161.000000
32013.000000,19380.000000,23693.000000,58162.000000
31988.000000,19410.000000,23736.000000,58140.000000
31981.000000,19422.000000,23720.000000,58116.000000
32008.000000,19413.000000,23716.000000,58157.000000
32012.000000,19373.000000,23698.000000,58147.000000
31999.000000,19379.000000,23719.000000,58160.000000
31988.000000,19382.000000,23725.000000,58143.000000
31948.000000,19347.000000,23644.000000,58106.000000
31919.000000,19339.000000,23663.000000,58108.000000
31980.000000,19337.000000,23638.000000,58125.000000
31912.000000,19352.000000,23622.000000,58117.000000
31940.000000,19306.000000,23582.000000,58086.000000
31941.000000,19359.000000,23601.000000,58081.000000
31962.000000,19297.000000,23586.000000,58101.000000
31964.000000,19342.000000,23575.000000,58092.000000
31960.000000,19340.000000,23620.000000,58090.000000
31923.000000,19326.000000,23557.000000,58052.000000
31954.000000,19343.000000,23587.000000,58069.000000
31981.000000,19296.000000,23535.000000,58059.000000
31906.000000,19350.000000,23575.000000,58091.000000
31901.000000,19276.000000,23492.000000,58038.000000
31919.000000,19260.000000,23505.000000,58066.000000
31886.000000,19289.000000,23478.000000,58032.000000
31916.000000,19291.000000,23475.000000,58046.000000
31874.000000,19298.000000,23497.000000,58040.000000
31900.000000,19253.000000,23443.000000,58005.000000
31870.000000,19294.000000,23452.000000,58046.000000
31841.000000,19229.000000,23399.000000,57995.000000
31850.000000,19262.000000,23429.000000,57985.000000
31810.000000,19233.000000,23418.000000,58013.000000
31816.000000,19238.000000,23392.000000,58017.000000
31821.000000,19218.000000,23373.000000,57982.000000
31811.000000,19231.000000,23362.000000,57971.000000
31784.000000,19220.000000,23394.000000,57988.000000
31768.000000,19202.000000,23404.000000,57988.000000
31769.000000,19201.000000,23386.000000,57982.000000
31783.000000,19180.000000,23323.000000,57950.000000
31789.000000,19183.000000,23369.000000,57954.000000
31762.000000,19180.000000,23332.000000,57965.000000
31762.000000,19197.000000,23344.000000,57960.000000
31732.000000,19171.000000,23294.000000,57939.000000
31710.000000,19139.000000,23302.000000,57931.000000
31713.000000,19139.000000,23286.000000,57942.000000
31710.000000,19109.000000,23250.000000,57908.000000
31638.000000,19117.000000,23255.000000,57905.000000
31664.000000,19116.000000,23225.000000,57902.000000
31623.000000,19077.000000,23216.000000,57898.000000
31662.000000,19093.000000,23257.000000,57926.000000
31698.000000,19122.000000,23272.000000,57894.000000
31715.000000,19138.000000,23324.000000,57966.000000
31724.000000,19167.000000,23355.000000,57996.000000
31785.000000,19184.000000,23350.000000,57981.000000
31751.000000,19180.000000,23361.000000,58003.000000
31811.000000,19219.000000,23393.000000,58003.000000
31826.000000,19221.000000,23466.000000,58013.000000
31837.000000,19235.000000,23465.000000,57996.000000
31855.000000,19271.000000,23482.000000,58039.000000
31905.000000,19302.000000,23505.000000,58061.000000
31905.000000,19300.000000,23551.000000,58092.000000
31981.000000,19296.000000,23523.000000,58105.000000
32026.000000,19380.000000,23684.000000,58151.000000
32059.000000,19402.000000,23731.000000,58193.000000
32120.000000,19460.000000,23743.000000,58212.000000
32135.000000,19441.000000,23789.000000,58223.000000
32225.000000,19548.000000,23947.000000,58275.000000
32352.000000,19626.000000,24031.000000,58346.000000
32527.000000,19776.000000,24168.000000,58462.000000
32532.000000,19764.000000,24167.000000,58465.000000
32534.000000,19782.000000,24183.000000,58439.000000
32491.000000,19778.000000,24166.000000,58441.000000
32504.000000,19764.000000,24174.000000,58439.000000
32466.000000,19750.000000,24135.000000,58436.000000
32500.000000,19734.000000,24114.000000,58426.000000
32463.000000,19747.000000,24123.000000,58388.000000
32475.000000,19723.000000,24086.000000,58429.000000
32482.000000,19712.000000,24113.000000,58424.000000
32476.000000,19715.000000,24083.000000,58398.000000
32465.000000,19742.000000,24093.000000,58386.000000
32485.000000,19730.000000,24079.000000,58362.000000
32448.000000,19709.000000,24069.000000,58403.000000
32492.000000,19688.000000,24058.000000,58364.000000
32492.000000,19735.000000,24081.000000,58410.000000
32462.000000,19721.000000,24076.000000,58378.000000
32471.000000,19726.000000,24030.000000,58396.000000
32482.000000,19697.000000,24072.000000,58391.000000
32455.000000,19703.000000,24036.000000,58408.000000
32448.000000,19685.000000,24043.000000,58385.000000
32451.000000,19659.000000,24021.000000,58354.000000
32406.000000,19675.000000,24011.000000,58374.000000
32423.000000,19688.000000,23985.000000,58373.000000
32415.000000,19647.000000,23973.000000,58345.000000
32391.000000,19644.000000,23958.000000,58321.000000
32421.000000,19598.000000,23944.000000,58330.000000
32372.000000,19644.000000,23982.000000,58341.000000
32379.000000,19664.000000,23924.000000,58319.000000
32369.000000,19601.000000,23904.000000,58330.000000
32371.000000,19601.000000,23883.000000,58308.000000
32335.000000,19616.000000,23908.000000,58311.000000
32347.000000,19582.000000,23892.000000,58280.000000
32381.000000,19574.000000,23874.000000,58287.000000
32359.000000,19592.000000,23904.000000,58289.000000
32337.000000,19579.000000,23885.000000,58283.000000
32351.000000,19553.000000,23850.000000,58293.000000
32320.000000,19561.000000,23870.000000,58278.000000
32272.000000,19553.000000,23840.000000,58288.000000
32293.000000,19535.000000,23851.000000,58275.000000
32306.000000,19565.000000,23825.000000,58284.000000
32285.000000,19558.000000,23822.000000,58231.000000
32322.000000,19547.000000,23817.000000,58245.000000
32260.000000,19560.000000,23797.000000,58238.000000
32306.000000,19508.000000,23796.000000,58276.000000
32276.000000,19520.000000,23804.000000,58255.000000
32291.000000,19539.000000,23799.000000,58244.000000
32300.000000,19559.000000,23795.000000,58286.000000
32301.000000,19549.000000,23818.000000,58252.000000
32268.000000,19541.000000,23763.000000,58257.000000
32321.000000,19579.000000,23786.000000,58254.000000
32319.000000,19520.000000,23789.000000,58237.000000
32285.000000,19545.000000,23800.000000,58252.000000
32273.000000,19523.000000,23759.000000,58232.000000
32255.000000,19513.000000,23763.000000,58248.000000
32252.000000,19547.000000,23771.000000,58204.000000
32269.000000,19541.000000,23762.000000,58200.000000
32255.000000,19484.000000,23763.000000,58236.000000
32236.000000,19482.000000,23708.000000,58219.000000
32224.000000,19455.000000,23726.000000,58206.000000
32203.000000,19466.000000,23739.000000,58213.000000
32186.000000,19491.000000,23743.000000,58219.000000
32198.000000,19463.000000,23703.000000,58222.000000
32180.000000,19435.000000,23753.000000,58234.000000
32178.000000,19493.000000,23714.000000,58201.000000
32145.000000,19459.000000,23708.000000,58233.000000
32144.000000,19419.000000,23702.000000,58230.000000
32061.000000,19390.000000,23640.000000,58138.000000
32045.000000,19389.000000,23637.000000,58151.000000
32074.000000,19388.000000,23681.000000,58170.000000
32052.000000,19394.000000,23656.000000,58173.000000
32046.000000,19380.000000,23634.000000,58150.000000
32039.000000,19381.000000,23654.000000,58192.000000
32051.000000,19391.000000,23693.000000,58184.000000
32072.000000,19410.000000,23696.000000,58191.000000
32122.000000,19426.000000,23713.000000,58194.000000
32111.000000,19382.000000,23690.000000,58178.000000
32082.000000,19445.000000,23717.000000,58215.000000
32090.000000,19442.000000,23719.000000,58195.000000
32145.000000,19457.000000,23770.000000,58230.000000
32161.000000,19436.000000,23764.000000,58198.000000
32108.000000,19441.000000,23783.000000,58242.000000
32157.000000,19473.000000,23824.000000,58240.000000
32189.000000,19497.000000,23862.000000,58264.000000
32356.000000,19629.000000,24104.000000,58401.000000
32372.000000,19676.000000,24136.000000,58450.000000
32400.000000,19695.000000,24124.000000,58433.000000
32487.000000,19738.000000,24193.000000,58468.000000
32528.000000,19801.000000,24275.000000,58514.000000
32590.000000,19827.000000,24341.000000,58535.000000
32657.000000,19853.000000,24388.000000,58556.000000
32661.000000,19850.000000,24405.000000,58566.000000
32637.000000,19892.000000,24367.000000,58571.000000
32644.000000,19851.000000,24335.000000,58601.000000
32585.000000,19822.000000,24342.000000,58529.000000
32538.000000,19837.000000,24312.000000,58533.000000
32592.000000,19795.000000,24288.000000,58506.000000
32542.000000,19812.000000,24275.000000,58482.000000
32534.000000,19818.000000,24276.000000,58481.000000
32516.000000,19782.000000,24247.000000,58463.000000
32530.000000,19791.000000,24255.000000,58543.000000
32541.000000,19788.000000,24224.000000,58498.000000
32514.000000,19787.000000,24191.000000,58485.000000
32529.000000,19777.000000,24231.000000,58497.000000
32540.000000,19770.000000,24195.000000,58476.000000
32501.000000,19794.000000,24196.000000,58484.000000
32507.000000,19759.000000,24193.000000,58456.000000
32493.000000,19758.000000,24170.000000,58459.000000
32505.000000,19763.000000,24139.000000,58469.000000
32511.000000,19731.000000,24177.000000,58430.000000
32475.000000,19749.000000,24148.000000,58442.000000
32456.000000,19736.000000,24146.000000,58432.000000
32499.000000,19716.000000,24149.000000,58441.000000
32462.000000,19710.000000,24136.000000,58423.000000
32460.000000,19649.000000,24095.000000,58438.000000
32441.000000,19711.000000,24055.000000,58380.000000
32423.000000,19679.000000,24090.000000,58432.000000
32431.000000,19705.000000,24096.000000,58433.000000
32429.000000,19680.000000,24063.000000,58429.000000
32379.000000,19660.000000,24038.000000,58381.000000
32363.000000,19663.000000,23995.000000,58360.000000
32363.000000,19651.000000,24036.000000,58370.000000
32405.000000,19660.000000,24021.000000,58365.000000
32360.000000,19631.000000,23989.000000,58354.000000
32376.000000,19595.000000,23999.000000,58374.000000
32376.000000,19621.000000,23961.000000,58328.000000
32360.000000,19614.000000,23971.000000,58342.000000
32354.000000,19586.000000,23934.000000,58329.000000
32327.000000,19623.000000,23970.000000,58349.000000
32354.000000,19573.000000,23893.000000,58328.000000
32339.000000,19633.000000,23928.000000,58296.000000
32353.000000,19626.000000,23933.000000,58324.000000
32344.000000,19545.000000,23943.000000,58330.000000
32347.000000,19598.000000,23920.000000,58310.000000
32293.000000,19584.000000,23934.000000,58321.000000
32354.000000,19581.000000,23943.000000,58319.000000
32348.000000,19579.000000,23912.000000,58328.000000
32335.000000,19541.000000,23880.000000,58314.000000
32267.000000,19527.000000,23838.000000,58290.000000
32266.000000,19519.000000,23819.000000,58274.000000
32265.000000,19517.000000,23846.000000,58245.000000
32237.000000,19509.000000,23807.000000,58268.000000
32241.000000,19523.000000,23780.000000,58255.000000
32261.000000,19525.000000,23773.000000,58228.000000
32216.000000,19507.000000,23796.000000,58214.000000
32190.000000,19477.000000,23769.000000,58241.000000
32255.000000,19502.000000,23741.000000,58244.000000
32206.000000,19508.000000,23769.000000,58239.000000
32203.000000,19487.000000,23733.000000,58218.000000
32212.000000,19515.000000,23802.000000,58237.000000
32184.000000,19486.000000,23769.000000,58221.000000
32183.000000,19471.000000,23773.000000,58229.000000
32243.000000,19471.000000,23760.000000,58226.000000
32183.000000,19493.000000,23766.000000,58242.000000
32148.000000,19455.000000,23748.000000,58197.000000
32128.000000,19435.000000,23752.000000,58198.000000
32088.000000,19434.000000,23710.000000,58186.000000
32080.000000,19468.000000,23678.000000,58186.000000
32087.000000,19372.000000,23652.000000,58173.000000
32062.000000,19379.000000,23661.000000,58176.000000
32069.000000,19420.000000,23699.000000,58197.000000
32128.000000,19404.000000,23708.000000,58190.000000
32114.000000,19400.000000,23711.000000,58212.000000
32136.000000,19483.000000,23738.000000,58214.000000
32189.000000,19456.000000,23749.000000,58232.000000
32167.000000,19478.000000,23793.000000,58244.000000
32181.000000,19517.000000,23804.000000,58270.000000
32186.000000,19477.000000,23816.000000,58240.000000
32148.000000,19483.000000,23827.000000,58260.000000
32216.000000,19479.000000,23797.000000,58236.000000
32206.000000,19524.000000,23900.000000,58286.000000
32179.000000,19495.000000,23892.000000,58315.000000
32228.000000,19522.000000,23913.000000,58310.000000
32237.000000,19519.000000,23914.000000,58329.000000
32344.000000,19619.000000,24062.000000,58382.000000
32332.000000,19577.000000,24125.000000,58403.000000
32401.000000,19645.000000,24112.000000,58424.000000
32478.000000,19685.000000,24175.000000,58455.000000
32516.000000,19756.000000,24265.000000,58534.000000
32559.000000,19766.000000,24318.000000,58487.000000
32600.000000,19805.000000,24349.000000,58546.000000
32626.000000,19851.000000,24353.000000,58555.000000
32713.000000,19895.000000,24458.000000,58644.000000
32765.000000,19938.000000,24488.000000,58663.000000
32773.000000,19978.000000,24518.000000,58650.000000
32763.000000,19945.000000,24460.000000,58627.000000
32717.000000,19911.000000,24465.000000,58648.000000
32698.000000,19911.000000,24452.000000,58618.000000
32705.000000,19890.000000,24432.000000,58617.000000
32655.000000,19901.000000,24401.000000,58621.000000
32661.000000,19846.000000,24405.000000,58589.000000
32634.000000,19832.000000,24352.000000,58577.000000
32651.000000,19869.000000,24363.000000,58575.000000
32613.000000,19851.000000,24328.000000,58554.000000
32665.000000,19834.000000,24321.000000,58533.000000
32623.000000,19837.000000,24328.000000,58515.000000
32619.000000,19805.000000,24314.000000,58547.000000
32598.000000,19831.000000,24300.000000,58519.000000
32630.000000,19818.000000,24319.000000,58536.000000
32615.000000,19831.000000,24283.000000,58525.000000
32621.000000,19813.000000,24227.000000,58511.000000
32622.000000,19837.000000,24290.000000,58526.000000
32616.000000,19814.000000,24253.000000,58528.000000
32560.000000,19786.000000,24270.000000,58517.000000
32549.000000,19758.000000,24232.000000,58512.000000
32562.000000,19748.000000,24218.000000,58477.000000
32549.000000,19772.000000,24215.000000,58479.000000
32558.000000,19742.000000,24177.000000,58431.000000
32488.000000,19707.000000,24144.000000,58457.000000
32544.000000,19732.000000,24135.000000,58441.000000
32534.000000,19744.000000,24174.000000,58455.000000
32464.000000,19714.000000,24146.000000,58443.000000
32462.000000,19709.000000,24120.000000,58469.000000
32456.000000,19675.000000,24093.000000,58434.000000
32448.000000,19710.000000,24105.000000,58442.000000
32460.000000,19728.000000,24092.000000,58405.000000
32440.000000,19695.000000,24089.000000,58414.000000
32402.000000,19663.000000,24076.000000,58391.000000
32422.000000,19695.000000,24034.000000,58390.000000
32428.000000,19678.000000,24050.000000,58374.000000
32415.000000,19677.000000,24047.000000,58377.000000
32379.000000,19666.000000,24040.000000,58370.000000
32361.000000,19637.000000,24022.000000,58375.000000
32374.000000,19627.000000,24013.000000,58389.000000
32348.000000,19588.000000,23977.000000,58363.000000
32335.000000,19601.000000,23972.000000,58351.000000
32311.000000,19578.000000,23988.000000,58353.000000
32282.000000,19563.000000,23962.000000,58345.000000
32280.000000,19551.000000,23944.000000,58337.000000
32262.000000,19559.000000,23938.000000,58307.000000
32262.000000,19546.000000,23908.000000,58302.000000
32245.000000,19547.000000,23923.000000,58279.000000
32245.000000,19552.000000,23861.000000,58290.000000
32245.000000,19541.000000,23877.000000,58268.000000
32262.000000,19532.000000,23875.000000,58310.000000
32248.000000,19503.000000,23857.000000,58278.000000
32201.000000,19521.000000,23880.000000,58287.000000
32194.000000,19500.000000,23841.000000,58287.000000
32171.000000,19425.000000,23799.000000,58285.000000
32142.000000,19441.000000,23767.000000,58209.000000
32154.000000,19451.000000,23786.000000,58219.000000
32153.000000,19420.000000,23805.000000,58228.000000
32109.000000,19410.000000,23750.000000,58223.000000
32081.000000,19420.000000,23742.000000,58210.000000
32088.000000,19411.000000,23768.000000,58223.000000
32092.000000,19436.000000,23731.000000,58181.000000
32104.000000,19437.000000,23728.000000,58240.000000
32094.000000,19421.000000,23744.000000,58243.000000
32096.000000,19417.000000,23742.000000,58236.000000
32108.000000,19455.000000,23738.000000,58237.000000
32109.000000,19438.000000,23755.000000,58203.000000
32031.000000,19422.000000,23714.000000,58188.000000
32035.000000,19404.000000,23653.000000,58173.000000
32065.000000,19383.000000,23663.000000,58161.000000
32018.000000,19378.000000,23692.000000,58175.000000
32011.000000,19335.000000,23623.000000,58136.000000
31956.000000,19342.000000,23622.000000,58164.000000
31958.000000,19331.000000,23616.000000,58155.000000
31977.000000,19355.000000,23612.000000,58136.000000
31947.000000,19373.000000,23642.000000,58169.000000
32019.000000,19375.000000,23707.000000,58186.000000
31971.000000,19378.000000,23712.000000,58156.000000
32027.000000,19386.000000,23721.000000,58201.000000
32077.000000,19395.000000,23747.000000,58199.000000
32102.000000,19405.000000,23786.000000,58194.000000
32054.000000,19465.000000,23786.000000,58196.000000
32080.000000,19417.000000,23806.000000,58219.000000
32086.000000,19434.000000,23831.000000,58247.000000
32137.000000,19443.000000,23810.000000,58261.000000
32116.000000,19486.000000,23891.000000,58302.000000
32175.000000,19487.000000,23874.000000,58290.000000
32151.000000,19505.000000,23923.000000,58276.000000
32160.000000,19505.000000,23909.000000,58307.000000
32198.000000,19498.000000,23934.000000,58303.000000
32225.000000,19570.000000,24059.000000,58387.000000
32315.000000,19611.000000,24093.000000,58406.000000
32327.000000,19615.000000,24144.000000,58431.000000
32458.000000,19688.000000,24242.000000,58505.000000
32544.000000,19766.000000,24378.000000,58573.000000
32581.000000,19821.000000,24392.000000,58618.000000
32622.000000,19839.000000,24456.000000,58621.000000
32678.000000,19881.000000,24479.000000,58634.000000
32731.000000,19925.000000,24544.000000,58661.000000
32748.000000,19929.000000,24537.000000,58680.000000
32736.000000,19924.000000,24550.000000,58693.000000
32746.000000,19959.000000,24519.000000,58640.000000
32759.000000,19910.000000,24560.000000,58662.000000
32689.000000,19929.000000,24524.000000,58640.000000
32698.000000,19935.000000,24518.000000,58645.000000
32669.000000,19867.000000,24502.000000,58656.000000
32651.000000,19906.000000,24491.000000,58658.000000
32625.000000,19871.000000,24452.000000,58624.000000
32656.000000,19844.000000,24484.000000,58632.000000
32644.000000,19870.000000,24447.000000,58596.000000
32607.000000,19840.000000,24452.000000,58598.000000
32608.000000,19847.000000,24434.000000,58629.000000
32588.000000,19873.000000,24431.000000,58576.000000
32627.000000,19836.000000,24413.000000,58599.000000
32633.000000,19834.000000,24422.000000,58611.000000
32605.000000,19851.000000,24458.000000,58602.000000
32630.000000,19868.000000,24408.000000,58604.000000
32600.000000,19821.000000,24386.000000,58590.000000
32605.000000,19837.000000,24397.000000,58583.000000
32593.000000,19821.000000,24359.000000,58558.000000
32606.000000,19833.000000,24357.000000,58561.000000
32573.000000,19838.000000,24353.000000,58560.000000
32530.000000,19795.000000,24311.000000,58529.000000
32575.000000,19795.000000,24313.000000,58546.000000
32538.000000,19796.000000,24275.000000,58516.000000
32561.000000,19771.000000,24298.000000,58511.000000
32549.000000,19760.000000,24259.000000,58552.000000
32520.000000,19773.000000,24288.000000,58517.000000
32480.000000,19748.000000,24196.000000,58486.000000
32471.000000,19733.000000,24233.000000,58488.000000
32503.000000,19715.000000,24193.000000,58458.000000
32454.000000,19698.000000,24185.000000,58497.000000
32466.000000,19705.000000,24153.000000,58449.000000
32447.000000,19695.000000,24178.000000,58435.000000
32448.000000,19692.000000,24192.000000,58456.000000
32406.000000,19665.000000,24111.000000,58436.000000
32399.000000,19671.000000,24125.000000,58426.000000
32384.000000,19681.000000,24103.000000,58416.000000
32410.000000,19646.000000,24104.000000,58440.000000
32401.000000,19642.000000,24088.000000,58427.000000
32360.000000,19652.000000,24079.000000,58373.000000
32365.000000,19577.000000,24063.000000,58387.000000
32321.000000,19620.000000,24058.000000,58375.000000
32356.000000,19613.000000,24056.000000,58383.000000
32350.000000,19619.000000,24001.000000,58401.000000
32347.000000,19593.000000,24057.000000,58376.000000
32328.000000,19625.000000,24041.000000,58368.000000
32299.000000,19558.000000,23986.000000,58355.000000
32312.000000,19535.000000,23978.000000,58360.000000
32309.000000,19567.000000,23966.000000,58370.000000
32292.000000,19571.000000,23961.000000,58353.000000
32275.000000,19525.000000,23937.000000,58333.000000
32255.000000,19548.000000,23965.000000,58289.000000
32223.000000,19541.000000,23938.000000,58319.000000
32271.000000,19564.000000,23929.000000,58329.000000
32233.000000,19516.000000,23905.000000,58269.000000
32228.000000,19518.000000,23882.000000,58288.000000
32247.000000,19514.000000,23910.000000,58300.000000
32216.000000,19479.000000,23838.000000,58296.000000
32198.000000,19481.000000,23835.000000,58276.000000
32187.000000,19491.000000,23831.000000,58264.000000
32183.000000,19492.000000,23775.000000,58241.000000
32180.000000,19447.000000,23802.000000,58241.000000
32165.000000,19458.000000,23828.000000,58285.000000
32185.000000,19452.000000,23782.000000,58229.000000
32113.000000,19425.000000,23760.000000,58246.000000
32146.000000,19449.000000,23736.000000,58221.000000
32078.000000,19432.000000,23729.000000,58211.000000
32096.000000,19420.000000,23709.000000,58206.000000
32083.000000,19420.000000,23734.000000,58206.000000
32068.000000,19408.000000,23696.000000,58170.000000
32080.000000,19383.000000,23692.000000,58209.000000
32068.000000,19423.000000,23687.000000,58192.000000
32059.000000,19348.000000,23687.000000,58174.000000
32046.000000,19398.000000,23700.000000,58173.000000
32006.000000,19362.000000,23676.000000,58152.000000
31992.000000,19347.000000,23676.000000,58163.000000
31992.000000,19323.000000,23638.000000,58134.000000
31975.000000,19325.000000,23610.000000,58165.000000
31951.000000,19305.000000,23626.000000,58124.000000
31981.000000,19326.000000,23635.000000,58076.000000
31940.000000,19303.000000,23610.000000,58163.000000
31950.000000,19323.000000,23621.000000,58152.000000
31996.000000,19288.000000,23637.000000,58154.000000
32033.000000,19353.000000,23700.000000,58171.000000
32075.000000,19375.000000,23728.000000,58165.000000
32147.000000,19457.000000,23802.000000,58267.000000
32162.000000,19446.000000,23831.000000,58262.000000
32173.000000,19456.000000,23860.000000,58290.000000
32163.000000,19470.000000,23834.000000,58269.000000
32161.000000,19487.000000,23866.000000,58304.000000
32154.000000,19456.000000,23894.000000,58316.000000
32163.000000,19406.000000,23920.000000,58296.000000
32174.000000,19528.000000,23924.000000,58299.000000
32206.000000,19540.000000,23936.000000,58341.000000
32265.000000,19575.000000,24066.000000,58381.000000
32283.000000,19561.000000,24050.000000,58392.000000
32341.000000,19596.000000,24134.000000,58453.000000
32374.000000,19601.000000,24155.000000,58436.000000
32461.000000,19695.000000,24314.000000,58517.000000
32703.000000,19834.000000,24531.000000,58673.000000
32750.000000,19928.000000,24565.000000,58681.000000
32796.000000,19966.000000,24604.000000,58734.000000
32766.000000,19976.000000,24621.000000,58677.000000
32790.000000,19957.000000,24645.000000,58725.000000
32789.000000,20006.000000,24647.000000,58716.000000
32784.000000,19982.000000,24619.000000,58703.000000
32779.000000,20013.000000,24607.000000,58698.000000
32785.000000,19961.000000,24575.000000,58686.000000
32764.000000,19943.000000,24594.000000,58726.000000
32800.000000,19972.000000,24602.000000,58703.000000
32804.000000,19951.000000,24574.000000,58669.000000
32760.000000,19970.000000,24587.000000,58667.000000
32744.000000,19951.000000,24576.000000,58707.000000
32779.000000,19955.000000,24569.000000,58675.000000
32738.000000,19941.000000,24589.000000,58696.000000
32749.000000,19939.000000,24585.000000,58659.000000
32733.000000,19906.000000,24521.000000,58688.000000
32759.000000,19966.000000,24530.000000,58686.000000
32721.000000,19908.000000,24514.000000,58672.000000
32737.000000,19947.000000,24493.000000,58662.000000
32710.000000,19909.000000,24500.000000,58673.000000
32699.000000,19865.000000,24439.000000,58617.000000
32681.000000,19873.000000,24467.000000,58648.000000
32687.000000,19869.000000,24458.000000,58619.000000
32685.000000,19886.000000,24462.000000,58639.000000
32671.000000,19864.000000,24415.000000,58600.000000
32592.000000,19798.000000,24402.000000,58581.000000
32590.000000,19870.000000,24384.000000,58611.000000
32607.000000,19801.000000,24339.000000,58548.000000
32614.000000,19852.000000,24369.000000,58567.000000
32520.000000,19778.000000,24349.000000,58592.000000
32519.000000,19778.000000,24328.000000,58555.000000
32552.000000,19772.000000,24307.000000,58563.000000
32559.000000,19757.000000,24320.000000,58531.000000
32553.000000,19804.000000,24277.000000,58556.000000
32511.000000,19759.000000,24279.000000,58530.000000
32478.000000,19745.000000,24283.000000,58551.000000
32445.000000,19734.000000,24255.000000,58540.000000
32466.000000,19699.000000,24239.000000,58497.000000
32406.000000,19714.000000,24222.000000,58498.000000
32367.000000,19658.000000,24242.000000,58513.000000
32392.000000,19682.000000,24195.000000,58485.000000
32385.000000,19659.000000,24194.000000,58497.000000
32351.000000,19640.000000,24171.000000,58469.000000
32343.000000,19639.000000,24128.000000,58444.000000
32331.000000,19644.000000,24131.000000,58460.000000
32305.000000,19628.000000,24131.000000,58426.000000
32269.000000,19621.000000,24108.000000,58429.000000
32282.000000,19611.000000,24103.000000,58407.000000
32261.000000,19553.000000,24070.000000,58430.000000
32253.000000,19589.000000,24016.000000,58376.000000
32195.000000,19554.000000,24039.000000,58374.000000
32155.000000,19561.000000,23980.000000,58370.000000
32194.000000,19536.000000,23957.000000,58327.000000
32181.000000,19553.000000,23963.000000,58340.000000
32155.000000,19527.000000,23963.000000,58327.000000
32139.000000,19479.000000,23909.000000,58328.000000
32119.000000,19482.000000,23918.000000,58286.000000
32169.000000,19476.000000,23926.000000,58333.000000
32122.000000,19450.000000,23915.000000,58291.000000
32074.000000,19468.000000,23841.000000,58282.000000
32049.000000,19445.000000,23841.000000,58263.000000
32029.000000,19412.000000,23811.000000,58263.000000
32037.000000,19433.000000,23810.000000,58261.000000
32032.000000,19423.000000,23811.000000,58241.000000
32030.000000,19391.000000,23785.000000,58246.000000
31976.000000,19400.000000,23758.000000,58221.000000
31957.000000,19362.000000,23748.000000,58184.000000
32005.000000,19357.000000,23729.000000,58225.000000
32008.000000,19393.000000,23738.000000,58229.000000
31980.000000,19374.000000,23707.000000,58193.000000
31930.000000,19351.000000,23703.000000,58222.000000
31970.000000,19354.000000,23707.000000,58172.000000
31869.000000,19247.000000,23585.000000,58135.000000
31862.000000,19250.000000,23622.000000,58144.000000
31783.000000,19221.000000,23531.000000,58103.000000
31834.000000,19200.000000,23532.000000,58109.000000
31829.000000,19245.000000,23541.000000,58071.000000
31813.000000,19253.000000,23506.000000,58099.000000
31873.000000,19247.000000,23512.000000,58068.000000
31841.000000,19211.000000,23506.000000,58088.000000
31860.000000,19220.000000,23496.000000,58075.000000
31827.000000,19217.000000,23458.000000,58074.000000
31868.000000,19216.000000,23457.000000,58051.000000
31844.000000,19237.000000,23464.000000,58095.000000
31842.000000,19206.000000,23446.000000,58041.000000
31842.000000,19195.000000,23487.000000,58039.000000
31857.000000,19177.000000,23474.000000,58065.000000
31855.000000,19199.000000,23493.000000,58056.000000
31854.000000,19204.000000,23485.000000,58081.000000
31830.000000,19217.000000,23493.000000,58084.000000
31954.000000,19268.000000,23570.000000,58132.000000
31964.000000,19309.000000,23617.000000,58147.000000
31978.000000,19289.000000,23604.000000,58156.000000
31967.000000,19311.000000,23633.000000,58181.000000
32033.000000,19364.000000,23725.000000,58215.000000
32036.000000,19318.000000,23718.000000,58254.000000
32041.000000,19351.000000,23719.000000,58238.000000
32063.000000,19396.000000,23775.000000,58252.000000
32110.000000,19470.000000,23857.000000,58290.000000
32141.000000,19429.000000,23854.000000,58280.000000
32157.000000,19460.000000,23893.000000,58339.000000
32164.000000,19468.000000,23881.000000,58350.000000
32174.000000,19490.000000,23945.000000,58349.000000
32263.000000,19527.000000,24049.000000,58408.000000
32464.000000,19687.000000,24257.000000,58540.000000
32520.000000,19698.000000,24315.000000,58570.000000
32509.000000,19769.000000,24349.000000,58557.000000
32557.000000,19822.000000,24422.000000,58604.000000
32700.000000,19919.000000,24551.000000,58693.000000
32739.000000,19901.000000,24584.000000,58686.000000
32709.000000,19912.000000,24569.000000,58700.000000
32742.000000,19935.000000,24552.000000,58689.000000
32748.000000,19969.000000,24535.000000,58701.000000
32743.000000,19925.000000,24581.000000,58693.000000
32735.000000,19973.000000,24569.000000,58707.000000
32735.000000,19902.000000,24556.000000,58682.000000
32715.000000,19910.000000,24517.000000,58678.000000
32701.000000,19894.000000,24474.000000,58669.000000
32670.000000,19871.000000,24502.000000,58677.000000
32662.000000,19894.000000,24432.000000,58669.000000
32671.000000,19879.000000,24464.000000,58635.000000
32654.000000,19870.000000,24435.000000,58661.000000
32681.000000,19871.000000,24447.000000,58638.000000
32667.000000,19849.000000,24447.000000,58634.000000
32619.000000,19863.000000,24429.000000,58621.000000
32639.000000,19838.000000,24426.000000,58637.000000
32626.000000,19839.000000,24437.000000,58639.000000
32614.000000,19816.000000,24377.000000,58639.000000
32581.000000,19782.000000,24370.000000,58601.000000
32614.000000,19812.000000,24372.000000,58582.000000
32609.000000,19775.000000,24388.000000,58595.000000
32533.000000,19782.000000,24334.000000,58613.000000
32549.000000,19774.000000,24361.000000,58549.000000
32562.000000,19789.000000,24314.000000,58604.000000
32511.000000,19768.000000,24318.000000,58555.000000
32562.000000,19764.000000,24288.000000,58539.000000
32501.000000,19760.000000,24284.000000,58495.000000
32535.000000,19782.000000,24268.000000,58510.000000
32531.000000,19721.000000,24238.000000,58545.000000
32510.000000,19768.000000,24299.000000,58524.000000
32452.000000,19677.000000,24182.000000,58510.000000
32467.000000,19687.000000,24190.000000,58473.000000
32467.000000,19687.000000,24187.000000,58508.000000
32457.000000,19683.000000,24184.000000,58478.000000
32456.000000,19713.000000,24173.000000,58463.000000
32423.000000,19659.000000,24150.000000,58466.000000
32451.000000,19669.000000,24162.000000,58457.000000
32430.000000,19673.000000,24166.000000,58462.000000
32417.000000,19659.000000,24169.000000,58487.000000
32476.000000,19632.000000,24120.000000,58466.000000
32426.000000,19680.000000,24126.000000,58460.000000
32415.000000,19621.000000,24114.000000,58439.000000
32360.000000,19652.000000,24122.000000,58427.000000
32351.000000,19666.000000,24118.000000,58437.000000
32366.000000,19620.000000,24092.000000,58426.000000
32332.000000,19587.000000,24064.000000,58408.000000
32338.000000,19597.000000,24055.000000,58421.000000
32364.000000,19611.000000,24060.000000,58407.000000
32345.000000,19614.000000,24076.000000,58433.000000
32360.000000,19597.000000,24066.000000,58388.000000
32348.000000,19579.000000,24059.000000,58397.000000
32313.000000,19574.000000,24044.000000,58443.000000
32338.000000,19581.000000,24014.000000,58370.000000
32305.000000,19578.000000,24047.000000,58382.000000
32305.000000,19604.000000,24016.000000,58405.000000
32302.000000,19601.000000,23998.000000,58395.000000
32318.000000,19542.000000,23957.000000,58387.000000
32283.000000,19562.000000,24000.000000,58400.000000
32237.000000,19518.000000,23979.000000,58366.000000
32267.000000,19529.000000,23975.000000,58340.000000
32235.000000,19533.000000,23976.000000,58352.000000
32239.000000,19544.000000,23962.000000,58341.000000
32231.000000,19510.000000,23924.000000,58346.000000
32188.000000,19499.000000,23896.000000,58296.000000
32199.000000,19505.000000,23889.000000,58311.000000
32179.000000,19475.000000,23907.000000,58339.000000
32207.000000,19472.000000,23873.000000,58318.000000
32179.000000,19450.000000,23875.000000,58320.000000
32171.000000,19424.000000,23868.000000,58285.000000
32125.000000,19428.000000,23910.000000,58289.000000
32110.000000,19454.000000,23870.000000,58285.000000
32144.000000,19444.000000,23910.000000,58309.000000
32180.000000,19454.000000,23897.000000,58294.000000
32127.000000,19461.000000,23864.000000,58300.000000
32133.000000,19443.000000,23831.000000,58299.000000
32156.000000,19434.000000,23831.000000,58270.000000
32148.000000,19459.000000,23854.000000,58293.000000
32095.000000,19427.000000,23865.000000,58270.000000
32149.000000,19374.000000,23799.000000,58254.000000
32068.000000,19421.000000,23820.000000,58271.000000
32063.000000,19417.000000,23799.000000,58251.000000
32103.000000,19383.000000,23819.000000,58242.000000
32089.000000,19390.000000,23761.000000,58255.000000
32113.000000,19447.000000,23828.000000,58269.000000
32133.000000,19443.000000,23851.000000,58285.000000
32136.000000,19443.000000,23889.000000,58282.000000
32161.000000,19462.000000,23887.000000,58332.000000
32176.000000,19455.000000,23939.000000,58351.000000
32241.000000,19462.000000,23976.000000,58355.000000
32236.000000,19515.000000,23963.000000,58365.000000
32240.000000,19503.000000,23997.000000,58407.000000
32214.000000,19527.000000,23981.000000,58360.000000
32275.000000,19550.000000,24017.000000,58381.000000
32293.000000,19551.000000,24041.000000,58400.000000
32289.000000,19551.000000,24061.000000,58460.000000
32315.000000,19563.000000,24057.000000,58451.000000
32308.000000,19559.000000,24093.000000,58445.000000
32356.000000,19643.000000,24164.000000,58481.000000
32406.000000,19628.000000,24217.000000,58523.000000
32427.000000,19658.000000,24236.000000,58564.000000
32587.000000,19805.000000,24432.000000,58642.000000
32630.000000,19790.000000,24499.000000,58701.000000
32655.000000,19880.000000,24526.000000,58709.000000
32851.000000,20016.000000,24727.000000,58790.000000
32872.000000,20065.000000,24768.000000,58774.000000
32890.000000,20015.000000,24711.000000,58809.000000
32897.000000,20027.000000,24738.000000,58798.000000
32910.000000,20007.000000,24755.000000,58845.000000
32845.000000,20036.000000,24743.000000,58834.000000
32843.000000,19997.000000,24692.000000,58789.000000
32885.000000,20006.000000,24703.000000,58767.000000
32842.000000,20023.000000,24712.000000,58803.000000
32820.000000,19994.000000,24664.000000,58775.000000
32856.000000,19999.000000,24660.000000,58754.000000
32818.000000,19974.000000,24636.000000,58746.000000
32805.000000,19956.000000,24650.000000,58766.000000
32746.000000,19923.000000,24573.000000,58730.000000
32745.000000,19961.000000,24592.000000,58767.000000
32740.000000,19927.000000,24581.000000,58731.000000
32736.000000,19896.000000,24551.000000,58675.000000
32726.000000,19883.000000,24544.000000,58689.000000
32656.000000,19872.000000,24521.000000,58702.000000
32699.000000,19877.000000,24524.000000,58705.000000
32699.000000,19887.000000,24514.000000,58692.000000
32707.000000,19911.000000,24490.000000,58680.000000
32683.000000,19880.000000,24524.000000,58713.000000
32643.000000,19886.000000,24514.000000,58669.000000
32671.000000,19859.000000,24476.000000,58689.000000
32635.000000,19849.000000,24470.000000,58649.000000
32630.000000,19826.000000,24466.000000,58637.000000
32594.000000,19830.000000,24418.000000,58638.000000
32623.000000,19837.000000,24392.000000,58613.000000
32591.000000,19803.000000,24386.000000,58651.000000
32649.000000,19812.000000,24387.000000,58624.000000
32578.000000,19781.000000,24362.000000,58597.000000
32585.000000,19790.000000,24364.000000,58598.000000
32580.000000,19794.000000,24352.000000,58604.000000
32558.000000,19790.000000,24366.000000,58628.000000
32553.000000,19766.000000,24294.000000,58556.000000
32510.000000,19745.000000,24304.000000,58578.000000
32534.000000,19773.000000,24315.000000,58572.000000
32511.000000,19723.000000,24296.000000,58571.000000
32510.000000,19711.000000,24235.000000,58542.000000
32513.000000,19728.000000,24246.000000,58560.000000
32514.000000,19729.000000,24231.000000,58542.000000
32465.000000,19708.000000,24190.000000,58513.000000
32477.000000,19715.000000,24194.000000,58490.000000
32457.000000,19715.000000,24176.000000,58502.000000
32458.000000,19701.000000,24172.000000,58491.000000
32429.000000,19651.000000,24158.000000,58489.000000
32415.000000,19664.000000,24170.000000,58513.000000
32387.000000,19636.000000,24128.000000,58478.000000
32381.000000,19657.000000,24146.000000,58492.000000
32417.000000,19654.000000,24107.000000,58481.000000
32394.000000,19609.000000,24099.000000,58505.000000
32376.000000,19596.000000,24039.000000,58452.000000
32335.000000,19583.000000,24034.000000,58450.000000
32336.000000,19587.000000,24045.000000,58447.000000
32345.000000,19586.000000,24017.000000,58407.000000
32299.000000,19575.000000,24001.000000,58404.000000
32348.000000,19522.000000,23992.000000,58392.000000
32289.000000,19556.000000,24006.000000,58405.000000
32304.000000,19542.000000,23999.000000,58402.000000
32320.000000,19548.000000,23942.000000,58396.000000
32299.000000,19549.000000,23982.000000,58377.000000
32296.000000,19520.000000,23940.000000,58432.000000
32302.000000,19513.000000,23981.000000,58386.000000
32236.000000,19511.000000,23956.000000,58378.000000
32271.000000,19488.000000,23937.000000,58362.000000
32243.000000,19484.000000,23917.000000,58359.000000
32235.000000,19482.000000,23888.000000,58310.000000
32257.000000,19526.000000,23919.000000,58345.000000
32258.000000,19501.000000,23902.000000,58339.000000
32232.000000,19467.000000,23927.000000,58348.000000
32214.000000,19452.000000,23875.000000,58308.000000
32223.000000,19471.000000,23850.000000,58303.000000
32179.000000,19435.000000,23831.000000,58295.000000
32189.000000,19432.000000,23840.000000,58286.000000
32110.000000,19389.000000,23822.000000,58302.000000
32125.000000,19425.000000,23813.000000,58315.000000
32135.000000,19419.000000,23773.000000,58301.000000
32164.000000,19461.000000,23849.000000,58291.000000
32159.000000,19442.000000,23892.000000,58322.000000
32194.000000,19479.000000,23866.000000,58336.000000
32226.000000,19499.000000,23924.000000,58350.000000
32234.000000,19516.000000,23942.000000,58366.000000
32236.000000,19516.000000,23965.000000,58394.000000
32242.000000,19525.000000,23970.000000,58395.000000
32280.000000,19516.000000,24012.000000,58405.000000
32282.000000,19534.000000,24023.000000,58420.000000
32279.000000,19576.000000,23987.000000,58400.000000
32323.000000,19585.000000,24038.000000,58440.000000
32343.000000,19608.000000,24065.000000,58451.000000
32345.000000,19558.000000,24001.000000,58421.000000
32315.000000,19557.000000,24088.000000,58449.000000
32431.000000,19656.000000,24185.000000,58517.000000
32437.000000,19679.000000,24209.000000,58515.000000
32432.000000,19698.000000,24254.000000,58525.000000
32534.000000,19715.000000,24318.000000,58597.000000
32720.000000,19886.000000,24553.000000,58726.000000
32741.000000,19935.000000,24639.000000,58765.000000
32775.000000,19947.000000,24626.000000,58771.000000
32805.000000,19942.000000,24653.000000,58794.000000
32901.000000,20004.000000,24732.000000,58837.000000
32927.000000,20047.000000,24755.000000,58821.000000
32886.000000,20007.000000,24757.000000,58810.000000
32877.000000,20031.000000,24709.000000,58828.000000
32864.000000,20028.000000,24746.000000,58823.000000
32868.000000,20006.000000,24682.000000,58809.000000
32844.000000,19978.000000,24675.000000,58778.000000
32862.000000,19963.000000,24655.000000,58792.000000
32834.000000,19973.000000,24648.000000,58784.000000
32811.000000,19945.000000,24653.000000,58797.000000
32877.000000,19935.000000,24630.000000,58775.000000
32844.000000,19976.000000,24631.000000,58751.000000
32790.000000,19958.000000,24663.000000,58743.000000
32808.000000,19956.000000,24653.000000,58783.000000
32805.000000,19954.000000,24641.000000,58767.000000
32820.000000,19959.000000,24619.000000,58743.000000
32823.000000,19946.000000,24584.000000,58764.000000
32818.000000,19979.000000,24595.000000,58746.000000
32823.000000,19937.000000,24574.000000,58749.000000
32843.000000,19955.000000,24577.000000,58761.000000
32801.000000,19939.000000,24561.000000,58718.000000
32811.000000,19936.000000,24531.000000,58742.000000
32816.000000,19933.000000,24522.000000,58714.000000
32780.000000,19890.000000,24496.000000,58718.000000
32776.000000,19908.000000,24508.000000,58695.000000
32777.000000,19890.000000,24520.000000,58685.000000
32773.000000,19905.000000,24496.000000,58692.000000
32745.000000,19893.000000,24489.000000,58689.000000
32708.000000,19848.000000,24474.000000,58681.000000
32757.000000,19854.000000,24457.000000,58675.000000
32727.000000,19867.000000,24452.000000,58713.000000
32709.000000,19872.000000,24459.000000,58651.000000
32715.000000,19858.000000,24438.000000,58671.000000
32718.000000,19853.000000,24460.000000,58658.000000
32712.000000,19797.000000,24407.000000,58667.000000
32688.000000,19840.000000,24403.000000,58675.000000
32686.000000,19832.000000,24394.000000,58664.000000
32665.000000,19839.000000,24411.000000,58662.000000
32647.000000,19810.000000,24334.000000,58649.000000
32658.000000,19809.000000,24362.000000,58651.000000
32614.000000,19821.000000,24350.000000,58605.000000
32639.000000,19788.000000,24349.000000,58641.000000
32611.000000,19791.000000,24330.000000,58618.000000
32591.000000,19800.000000,24348.000000,58606.000000
32585.000000,19748.000000,24299.000000,58596.000000
32588.000000,19787.000000,24315.000000,58613.000000
32555.000000,19743.000000,24299.000000,58592.000000
32602.000000,19766.000000,24295.000000,58592.000000
32548.000000,19728.000000,24263.000000,58564.000000
32560.000000,19764.000000,24282.000000,58573.000000
32542.000000,19708.000000,24256.000000,58579.000000
32560.000000,19701.000000,24246.000000,58585.000000
32572.000000,19682.000000,24236.000000,58524.000000
32517.000000,19701.000000,24245.000000,58559.000000
32519.000000,19706.000000,24201.000000,58550.000000
32544.000000,19748.000000,24227.000000,58525.000000
32535.000000,19725.000000,24199.000000,58533.000000
32546.000000,19712.000000,24217.000000,58543.000000
32535.000000,19691.000000,24218.000000,58560.000000
32476.000000,19675.000000,24200.000000,58495.000000
32470.000000,19656.000000,24172.000000,58512.000000
32465.000000,19644.000000,24149.000000,58505.000000
32427.000000,19661.000000,24146.000000,58504.000000
32424.000000,19643.000000,24135.000000,58520.000000
32413.000000,19601.000000,24092.000000,58488.000000
32420.000000,19641.000000,24096.000000,58483.000000
32421.000000,19623.000000,24114.000000,58516.000000
32404.000000,19629.000000,24120.000000,58468.000000
32423.000000,19641.000000,24116.000000,58455.000000
32357.000000,19612.000000,24053.000000,58463.000000
32369.000000,19623.000000,24082.000000,58438.000000
32330.000000,19601.000000,24051.000000,58469.000000
32320.000000,19571.000000,24073.000000,58442.000000
32343.000000,19584.000000,24056.000000,58466.000000
32361.000000,19585.000000,24042.000000,58445.000000
32337.000000,19572.000000,24056.000000,58427.000000
32301.000000,19551.000000,24054.000000,58445.000000
32326.000000,19552.000000,24047.000000,58444.000000
32296.000000,19561.000000,24068.000000,58444.000000
32296.000000,19560.000000,24036.000000,58429.000000
32272.000000,19525.000000,24011.000000,58428.000000
32272.000000,19491.000000,23995.000000,58420.000000
32246.000000,19531.000000,23963.000000,58394.000000
32287.000000,19542.000000,23964.000000,58410.000000
32244.000000,19520.000000,24010.000000,58399.000000
32263.000000,19516.000000,24034.000000,58413.000000
32292.000000,19512.000000,23990.000000,58401.000000
32324.000000,19565.000000,24060.000000,58455.000000
32334.000000,19595.000000,24086.000000,58463.000000
32333.000000,19596.000000,24128.000000,58486.000000
32368.000000,19667.000000,24193.000000,58547.000000
32394.000000,19623.000000,24190.000000,58511.000000
32401.000000,19629.000000,24169.000000,58538.000000
32389.000000,19659.000000,24219.000000,58551.000000
32441.000000,19646.000000,24237.000000,58557.000000
32538.000000,19702.000000,24338.000000,58598.000000
32528.000000,19718.000000,24408.000000,58640.000000
32564.000000,19764.000000,24420.000000,58651.000000
32601.000000,19805.000000,24457.000000,58674.000000
32637.000000,19818.000000,24457.000000,58687.000000
32852.000000,19999.000000,24763.000000,58862.000000
32886.000000,20002.000000,24826.000000,58893.000000
32886.000000,20019.000000,24838.000000,58885.000000
32930.000000,20085.000000,24847.000000,58925.000000
33057.000000,20131.000000,24963.000000,58963.000000
33034.000000,20164.000000,25020.000000,59008.000000
33054.000000,20128.000000,24952.000000,58981.000000
33033.000000,20129.000000,24978.000000,58976.000000
33039.000000,20134.000000,24968.000000,58977.000000
33034.000000,20142.000000,24964.000000,58985.000000
32999.000000,20111.000000,24897.000000,58932.000000
32955.000000,20110.000000,24933.000000,58930.000000
32995.000000,20124.000000,24886.000000,58901.000000
32976.000000,20111.000000,24901.000000,58923.000000
32971.000000,20095.000000,24905.000000,58948.000000
32935.000000,20083.000000,24835.000000,58909.000000
32967.000000,20053.000000,24873.000000,58916.000000
32970.000000,20087.000000,24863.000000,58904.000000
32944.000000,20104.000000,24874.000000,58910.000000
32920.000000,20080.000000,24869.000000,58907.000000
32929.000000,20045.000000,24843.000000,58933.000000
32916.000000,20043.000000,24809.000000,58898.000000
32875.000000,20016.000000,24810.000000,58903.000000
32893.000000,20038.000000,24820.000000,58875.000000
32884.000000,20000.000000,24812.000000,58862.000000
32849.000000,20035.000000,24766.000000,58903.000000
32855.000000,20018.000000,24769.000000,58866.000000
32880.000000,20016.000000,24754.000000,58835.000000
32864.000000,20003.000000,24741.000000,58835.000000
32808.000000,19948.000000,24741.000000,58849.000000
32824.000000,20002.000000,24763.000000,58818.000000
32850.000000,19981.000000,24730.000000,58831.000000
32820.000000,19975.000000,24734.000000,58830.000000
32793.000000,19950.000000,24682.000000,58841.000000
32759.000000,19955.000000,24724.000000,58802.000000
32812.000000,19939.000000,24692.000000,58822.000000
32799.000000,19977.000000,24666.000000,58822.000000
32747.000000,19919.000000,24631.000000,58811.000000
32693.000000,19897.000000,24653.000000,58768.000000
32729.000000,19911.000000,24625.000000,58752.000000
32709.000000,19903.000000,24597.000000,58772.000000
32704.000000,19875.000000,24602.000000,58765.000000
32720.000000,19887.000000,24546.000000,58760.000000
32756.000000,19912.000000,24591.000000,58755.000000
32675.000000,19886.000000,24603.000000,58730.000000
32703.000000,19895.000000,24582.000000,58759.000000
32663.000000,19884.000000,24547.000000,58745.000000
32618.000000,19846.000000,24505.000000,58724.000000
32620.000000,19821.000000,24512.000000,58710.000000
32601.000000,19805.000000,24484.000000,58685.000000
32573.000000,19830.000000,24499.000000,58710.000000
32600.000000,19801.000000,24497.000000,58699.000000
32534.000000,19785.000000,24453.000000,58693.000000
32587.000000,19800.000000,24465.000000,58684.000000
32578.000000,19797.000000,24450.000000,58684.000000
32604.000000,19809.000000,24462.000000,58730.000000
32567.000000,19858.000000,24494.000000,58723.000000
32604.000000,19822.000000,24476.000000,58690.000000
32579.000000,19837.000000,24450.000000,58661.000000
32514.000000,19781.000000,24390.000000,58649.000000
32474.000000,19711.000000,24390.000000,58621.000000
32482.000000,19701.000000,24353.000000,58624.000000
32446.000000,19719.000000,24338.000000,58618.000000
32482.000000,19698.000000,24306.000000,58607.000000
32416.000000,19723.000000,24320.000000,58639.000000
32433.000000,19691.000000,24348.000000,58565.000000
32423.000000,19692.000000,24349.000000,58594.000000
32410.000000,19707.000000,24326.000000,58596.000000
32425.000000,19682.000000,24274.000000,58611.000000
32409.000000,19658.000000,24286.000000,58598.000000
32413.000000,19652.000000,24321.000000,58619.000000
32410.000000,19641.000000,24296.000000,58577.000000
32399.000000,19648.000000,24307.000000,58615.000000
32390.000000,19674.000000,24325.000000,58608.000000
32375.000000,19618.000000,24290.000000,58556.000000
32337.000000,19622.000000,24252.000000,58562.000000
32348.000000,19629.000000,24235.000000,58580.000000
32352.000000,19623.000000,24248.000000,58575.000000
32330.000000,19645.000000,24248.000000,58563.000000
32308.000000,19589.000000,24210.000000,58552.000000
32314.000000,19592.000000,24197.000000,58567.000000
32373.000000,19621.000000,24225.000000,58560.000000
32334.000000,19598.000000,24251.000000,58526.000000
32312.000000,19636.000000,24205.000000,58533.000000
32345.000000,19629.000000,24274.000000,58578.000000
32354.000000,19637.000000,24301.000000,58590.000000
32378.000000,19656.000000,24331.000000,58586.000000
32404.000000,19687.000000,24418.000000,58668.000000
32436.000000,19720.000000,24398.000000,58662.000000
32432.000000,19707.000000,24411.000000,58640.000000
32488.000000,19725.000000,24400.000000,58697.000000
32481.000000,19713.000000,24477.000000,58705.000000
32502.000000,19744.000000,24445.000000,58669.000000
32468.000000,19750.000000,24463.000000,58689.000000
32538.000000,19798.000000,24469.000000,58737.000000
32547.000000,19804.000000,24541.000000,58737.000000
32565.000000,19815.000000,24576.000000,58750.000000
32697.000000,19917.000000,24748.000000,58827.000000
32751.000000,19914.000000,24775.000000,58860.000000
32734.000000,19964.000000,24822.000000,58870.000000
32772.000000,19983.000000,24877.000000,58901.000000
32918.000000,20107.000000,24980.000000,58974.000000
32930.000000,20098.000000,25003.000000,59001.000000
32976.000000,20070.000000,25012.000000,59029.000000
32959.000000,20107.000000,25054.000000,58992.000000
32940.000000,20103.000000,25015.000000,59018.000000
32995.000000,20086.000000,25019.000000,58981.000000
32956.000000,20096.000000,24999.000000,59003.000000
32916.000000,20092.000000,24958.000000,59020.000000
32962.000000,20093.000000,24958.000000,58960.000000
32946.000000,20084.000000,24954.000000,59007.000000
32936.000000,20070.000000,24960.000000,58963.000000
32924.000000,20078.000000,24937.000000,58944.000000
32918.000000,20072.000000,24914.000000,58976.000000
32892.000000,20086.000000,24905.000000,58933.000000
32892.000000,20037.000000,24917.000000,58936.000000
32886.000000,20043.000000,24908.000000,58932.000000
32871.000000,20034.000000,24896.000000,58941.000000
32881.000000,20032.000000,24912.000000,58926.000000
32840.000000,20038.000000,24873.000000,58921.000000
32863.000000,20032.000000,24879.000000,58915.000000
32869.000000,20043.000000,24841.000000,58897.000000
32843.000000,20037.000000,24855.000000,58940.000000
32872.000000,20050.000000,24841.000000,58901.000000
32839.000000,20030.000000,24838.000000,58890.000000
32833.000000,20001.000000,24863.000000,58921.000000
32853.000000,20012.000000,24845.000000,58894.000000
32840.000000,20040.000000,24862.000000,58870.000000
32804.000000,19997.000000,24780.000000,58891.000000
32814.000000,19987.000000,24820.000000,58881.000000
32808.000000,19942.000000,24761.000000,58880.000000
32807.000000,19962.000000,24771.000000,58871.000000
32763.000000,19978.000000,24739.000000,58826.000000
32788.000000,19911.000000,24729.000000,58851.000000
32805.000000,19929.000000,24712.000000,58844.000000
32725.000000,19941.000000,24737.000000,58823.000000
32768.000000,19925.000000,24681.000000,58825.000000
32763.000000,19913.000000,24698.000000,58795.000000
32704.000000,19904.000000,24699.000000,58847.000000
32739.000000,19901.000000,24690.000000,58845.000000
32735.000000,19925.000000,24675.000000,58829.000000
32733.000000,19877.000000,24616.000000,58781.000000
32723.000000,19880.000000,24611.000000,58795.000000
32736.000000,19944.000000,24637.000000,58780.000000
32733.000000,19871.000000,24627.000000,58825.000000
32692.000000,19879.000000,24629.000000,58765.000000
32724.000000,19904.000000,24641.000000,58778.000000
32696.000000,19873.000000,24602.000000,58788.000000
32673.000000,19870.000000,24617.000000,58807.000000
32702.000000,19845.000000,24569.000000,58762.000000
32715.000000,19867.000000,24546.000000,58753.000000
32641.000000,19815.000000,24512.000000,58740.000000
32647.000000,19850.000000,24468.000000,58733.000000
32611.000000,19789.000000,24523.000000,58749.000000
32598.000000,19797.000000,24519.000000,58730.000000
32646.000000,19814.000000,24509.000000,58726.000000
32610.000000,19791.000000,24494.000000,58712.000000
32593.000000,19785.000000,24457.000000,58729.000000
32575.000000,19758.000000,24427.000000,58685.000000
32582.000000,19721.000000,24428.000000,58686.000000
32565.000000,19749.000000,24386.000000,58688.000000
32547.000000,19734.000000,24395.000000,58673.000000
32570.000000,19752.000000,24369.000000,58643.000000
32530.000000,19753.000000,24384.000000,58676.000000
32548.000000,19728.000000,24374.000000,58643.000000
32566.000000,19757.000000,24366.000000,58653.000000
32525.000000,19741.000000,24380.000000,58671.000000
32558.000000,19728.000000,24338.000000,58667.000000
32519.000000,19750.000000,24396.000000,58644.000000
32519.000000,19717.000000,24364.000000,58689.000000
32487.000000,19725.000000,24354.000000,58650.000000
32487.000000,19731.000000,24353.000000,58662.000000
32507.000000,19698.000000,24277.000000,58627.000000
32480.000000,19676.000000,24303.000000,58612.000000
32454.000000,19655.000000,24283.000000,58617.000000
32461.000000,19691.000000,24250.000000,58606.000000
32467.000000,19664.000000,24272.000000,58645.000000
32492.000000,19670.000000,24282.000000,58627.000000
32472.000000,19663.000000,24300.000000,58669.000000
32558.000000,19722.000000,24351.000000,58649.000000
32530.000000,19705.000000,24372.000000,58667.000000
32552.000000,19728.000000,24365.000000,58669.000000
32560.000000,19750.000000,24409.000000,58736.000000
32556.000000,19763.000000,24437.000000,58703.000000
32546.000000,19770.000000,24457.000000,58697.000000
32567.000000,19768.000000,24463.000000,58718.000000
32584.000000,19770.000000,24424.000000,58698.000000
32537.000000,19760.000000,24473.000000,58730.000000
32587.000000,19766.000000,24459.000000,58730.000000
32582.000000,19777.000000,24490.000000,58731.000000
32597.000000,19754.000000,24460.000000,58740.000000
32687.000000,19875.000000,24613.000000,58830.000000
32695.000000,19850.000000,24685.000000,58864.000000
32740.000000,19925.000000,24718.000000,58873.000000
32754.000000,19929.000000,24732.000000,58902.000000
32901.000000,19998.000000,24847.000000,58926.000000
32932.000000,20052.000000,24896.000000,58946.000000
32967.000000,20110.000000,24981.000000,59032.000000
33057.000000,20164.000000,25012.000000,59060.000000
33077.000000,20131.000000,25009.000000,59015.000000
33101.000000,20155.000000,25011.000000,59047.000000
33050.000000,20160.000000,25019.000000,59024.000000
33065.000000,20148.000000,24927.000000,59007.000000
33044.000000,20128.000000,25000.000000,59016.000000
32994.000000,20111.000000,24951.000000,59002.000000
33015.000000,20110.000000,24935.000000,59035.000000
32974.000000,20094.000000,24940.000000,58992.000000
33005.000000,20096.000000,24920.000000,58991.000000
32968.000000,20062.000000,24876.000000,59016.000000
32974.000000,20083.000000,24895.000000,58977.000000
32961.000000,20082.000000,24861.000000,58960.000000
32963.000000,20029.000000,24887.000000,58944.000000
32953.000000,20077.000000,24850.000000,58945.000000
32946.000000,20036.000000,24852.000000,58954.000000
32955.000000,20061.000000,24838.000000,58968.000000
32890.000000,20001.000000,24797.000000,58941.000000
32900.000000,20014.000000,24813.000000,58914.000000
32886.000000,20030.000000,24800.000000,58908.000000
32932.000000,20053.000000,24817.000000,58932.000000
32906.000000,20032.000000,24825.000000,58900.000000
32881.000000,20013.000000,24778.000000,58894.000000
32865.000000,20019.000000,24770.000000,58888.000000
32881.000000,20014.000000,24778.000000,58899.000000
32860.000000,19976.000000,24742.000000,58900.000000
32835.000000,19973.000000,24705.000000,58869.000000
32844.000000,19943.000000,24690.000000,58852.000000
32808.000000,19940.000000,24685.000000,58843.000000
32796.000000,19959.000000,24664.000000,58841.000000
32770.000000,19899.000000,24656.000000,58850.000000
32799.000000,19914.000000,24678.000000,58831.000000
32757.000000,19911.000000,24632.000000,58798.000000
32743.000000,19899.000000,24613.000000,58803.000000
32711.000000,19925.000000,24572.000000,58821.000000
32718.000000,19888.000000,24592.000000,58807.000000
32720.000000,19872.000000,24536.000000,58782.000000
32724.000000,19852.000000,24550.000000,58792.000000
32664.000000,19861.000000,24539.000000,58820.000000
32693.000000,19831.000000,24573.000000,58812.000000
32652.000000,19859.000000,24550.000000,58766.000000
32649.000000,19823.000000,24531.000000,58761.000000
32636.000000,19814.000000,24496.000000,58759.000000
32616.000000,19826.000000,24452.000000,58736.000000
32607.000000,19805.000000,24471.000000,58772.000000
32630.000000,19811.000000,24455.000000,58719.000000
32622.000000,19786.000000,24496.000000,58729.000000
32596.000000,19796.000000,24417.000000,58714.000000
32570.000000,19729.000000,24436.000000,58724.000000
32608.000000,19765.000000,24432.000000,58698.000000
32540.000000,19743.000000,24421.000000,58719.000000
32596.000000,19766.000000,24404.000000,58697.000000
32573.000000,19768.000000,24419.000000,58734.000000
32546.000000,19752.000000,24363.000000,58697.000000
32527.000000,19741.000000,24379.000000,58704.000000
32567.000000,19760.000000,24337.000000,58688.000000
32531.000000,19685.000000,24360.000000,58667.000000
32502.000000,19741.000000,24360.000000,58679.000000
32540.000000,19721.000000,24367.000000,58669.000000
32492.000000,19724.000000,24334.000000,58665.000000
32462.000000,19681.000000,24304.000000,58632.000000
32453.000000,19651.000000,24271.000000,58608.000000
32434.000000,19655.000000,24217.000000,58593.000000
32419.000000,19619.000000,24263.000000,58592.000000
32428.000000,19641.000000,24229.000000,58593.000000
32397.000000,19664.000000,24250.000000,58599.000000
32436.000000,19648.000000,24239.000000,58595.000000
32416.000000,19610.000000,24240.000000,58627.000000
32376.000000,19656.000000,24233.000000,58635.000000
32424.000000,19645.000000,24245.000000,58603.000000
32418.000000,19672.000000,24226.000000,58621.000000
32429.000000,19633.000000,24212.000000,58593.000000
32395.000000,19624.000000,24195.000000,58615.000000
32387.000000,19623.000000,24241.000000,58566.000000
32347.000000,19593.000000,24167.000000,58568.000000
32356.000000,19576.000000,24145.000000,58575.000000
32328.000000,19605.000000,24151.000000,58575.000000
32320.000000,19568.000000,24144.000000,58549.000000
32361.000000,19563.000000,24118.000000,58560.000000
32355.000000,19614.000000,24215.000000,58622.000000
32349.000000,19612.000000,24228.000000,58610.000000
32387.000000,19661.000000,24261.000000,58621.000000
32361.000000,19646.000000,24264.000000,58643.000000
32391.000000,19664.000000,24281.000000,58614.000000
32439.000000,19680.000000,24325.000000,58646.000000
32404.000000,19703.000000,24362.000000,58682.000000
32456.000000,19726.000000,24371.000000,58705.000000
32445.000000,19709.000000,24464.000000,58741.000000
32495.000000,19736.000000,24472.000000,58753.000000
32505.000000,19733.000000,24468.000000,58754.000000
32477.000000,19743.000000,24529.000000,58766.000000
32648.000000,19882.000000,24679.000000,58885.000000
32693.000000,19896.000000,24705.000000,58848.000000
32666.000000,19914.000000,24756.000000,58926.000000
32806.000000,19963.000000,24847.000000,58966.000000
32833.000000,20016.000000,24886.000000,58990.000000
32864.000000,20082.000000,24967.000000,59057.000000
32848.000000,20060.000000,25000.000000,59045.000000
32910.000000,20092.000000,24995.000000,59010.000000
32882.000000,20079.000000,24958.000000,59019.000000
32946.000000,20042.000000,24943.000000,59041.000000
32896.000000,20077.000000,24994.000000,59041.000000
32886.000000,20037.000000,24941.000000,59010.000000
32838.000000,20058.000000,24921.000000,58999.000000
32838.000000,20043.000000,24944.000000,58999.000000
32789.000000,19956.000000,24878.000000,58977.000000
32830.000000,20004.000000,24898.000000,59011.000000
32788.000000,20001.000000,24883.000000,58988.000000
32812.000000,20006.000000,24896.000000,58998.000000
32815.000000,19988.000000,24869.000000,58959.000000
32774.000000,19977.000000,24841.000000,58965.000000
32782.000000,20019.000000,24846.000000,58956.000000
32771.000000,19994.000000,24794.000000,58944.000000
32770.000000,19983.000000,24827.000000,58954.000000
32741.000000,19954.000000,24823.000000,59000.000000
32733.000000,19946.000000,24826.000000,58934.000000
32782.000000,19965.000000,24787.000000,58927.000000
32706.000000,19944.000000,24824.000000,58949.000000
32703.000000,19928.000000,24769.000000,58927.000000
32715.000000,19941.000000,24758.000000,58889.000000
32668.000000,19919.000000,24758.000000,58942.000000
32689.000000,19907.000000,24774.000000,58880.000000
32591.000000,19860.000000,24709.000000,58894.000000
32649.000000,19892.000000,24735.000000,58870.000000
32608.000000,19853.000000,24718.000000,58853.000000
32597.000000,19873.000000,24668.000000,58838.000000
32636.000000,19832.000000,24658.000000,58866.000000
32586.000000,19853.000000,24649.000000,58832.000000
32610.000000,19867.000000,24602.000000,58834.000000
32594.000000,19827.000000,24667.000000,58820.000000
32576.000000,19863.000000,24636.000000,58825.000000
32558.000000,19801.000000,24625.000000,58829.000000
32534.000000,19805.000000,24574.000000,58835.000000
32530.000000,19851.000000,24618.000000,58836.000000
32533.000000,19828.000000,24595.000000,58825.000000
32485.000000,19809.000000,24576.000000,58819.000000
32512.000000,19772.000000,24528.000000,58798.000000
32478.000000,19773.000000,24518.000000,58802.000000
32500.000000,19774.000000,24550.000000,58790.000000
32466.000000,19759.000000,24526.000000,58779.000000
32475.000000,19732.000000,24468.000000,58776.000000
32473.000000,19719.000000,24487.000000,58714.000000
32425.000000,19761.000000,24502.000000,58717.000000
32433.000000,19757.000000,24487.000000,58734.000000
32430.000000,19698.000000,24469.000000,58752.000000
32406.000000,19744.000000,24467.000000,58745.000000
32387.000000,19729.000000,24474.000000,58719.000000
32393.000000,19700.000000,24444.000000,58713.000000
32397.000000,19690.000000,24380.000000,58717.000000
32389.000000,19666.000000,24417.000000,58698.000000
32394.000000,19673.000000,24439.000000,58707.000000
32372.000000,19650.000000,24393.000000,58751.000000
32343.000000,19622.000000,24368.000000,58696.000000
32331.000000,19645.000000,24361.000000,58679.000000
32337.000000,19660.000000,24315.000000,58672.000000
32330.000000,19614.000000,24353.000000,58674.000000
32302.000000,19611.000000,24341.000000,58671.000000
32275.000000,19594.000000,24293.000000,58683.000000
32299.000000,19599.000000,24299.000000,58638.000000
32291.000000,19648.000000,24310.000000,58666.000000
32275.000000,19576.000000,24299.000000,58665.000000
32259.000000,19609.000000,24276.000000,58668.000000
32249.000000,19600.000000,24269.000000,58635.000000
32252.000000,19571.000000,24237.000000,58614.000000
32275.000000,19570.000000,24276.000000,58634.000000
32258.000000,19568.000000,24241.000000,58641.000000
32200.000000,19547.000000,24210.000000,58608.000000
32226.000000,19548.000000,24243.000000,58600.000000
32200.000000,19543.000000,24222.000000,58614.000000
32216.000000,19575.000000,24232.000000,58623.000000
32215.000000,19545.000000,24231.000000,58604.000000
32186.000000,19551.000000,24236.000000,58600.000000
32202.000000,19538.000000,24200.000000,58604.000000
32204.000000,19518.000000,24264.000000,58615.000000
32135.000000,19528.000000,24201.000000,58589.000000
32121.000000,19504.000000,24190.000000,58618.000000
32153.000000,19485.000000,24134.000000,58566.000000
32120.000000,19514.000000,24167.000000,58573.000000
32121.000000,19496.000000,24162.000000,58579.000000
32119.000000,19518.000000,24194.000000,58585.000000
32133.000000,19527.000000,24196.000000,58583.000000
32118.000000,19507.000000,24237.000000,58605.000000
32149.000000,19544.000000,24259.000000,58651.000000
32219.000000,19511.000000,24297.000000,58654.000000
32225.000000,19560.000000,24309.000000,58663.000000
32239.000000,19634.000000,24426.000000,58696.000000
32271.000000,19620.000000,24396.000000,58701.000000
32248.000000,19643.000000,24422.000000,58731.000000
32250.000000,19653.000000,24404.000000,58716.000000
32237.000000,19611.000000,24417.000000,58740.000000
32334.000000,19705.000000,24552.000000,58794.000000
32348.000000,19710.000000,24540.000000,58790.000000
32351.000000,19713.000000,24584.000000,58823.000000
32360.000000,19736.000000,24614.000000,58839.000000
32471.000000,19756.000000,24697.000000,58909.000000
32505.000000,19821.000000,24784.000000,58963.000000
32680.000000,19985.000000,24949.000000,59037.000000
32674.000000,19994.000000,24944.000000,59066.000000
32680.000000,20005.000000,25003.000000,59075.000000
32683.000000,20027.000000,24995.000000,59068.000000
32702.000000,20002.000000,24968.000000,59048.000000
32655.000000,19955.000000,24989.000000,59067.000000
32663.000000,19995.000000,24976.000000,59061.000000
32683.000000,20017.000000,24989.000000,59056.000000
32651.000000,19980.000000,24932.000000,58995.000000
32648.000000,19917.000000,24920.000000,59030.000000
32628.000000,19945.000000,24913.000000,59003.000000
32607.000000,19933.000000,24914.000000,58997.000000
32605.000000,19929.000000,24906.000000,58986.000000
32587.000000,19933.000000,24882.000000,59023.000000
32611.000000,19889.000000,24879.000000,58987.000000
32595.000000,19897.000000,24888.000000,58976.000000
32567.000000,19870.000000,24873.000000,58951.000000
32607.000000,19899.000000,24862.000000,58990.000000
32580.000000,19905.000000,24860.000000,58955.000000
32584.000000,19898.000000,24872.000000,58975.000000
32517.000000,19930.000000,24878.000000,58999.000000
32545.000000,19867.000000,24846.000000,58988.000000
32547.000000,19871.000000,24837.000000,58972.000000
32550.000000,19904.000000,24836.000000,58962.000000
32542.000000,19856.000000,24828.000000,58947.000000
32512.000000,19872.000000,24816.000000,58970.000000
32534.000000,19859.000000,24819.000000,58918.000000
32495.000000,19833.000000,24765.000000,58948.000000
32492.000000,19817.000000,24772.000000,58910.000000
32480.000000,19829.000000,24755.000000,58966.000000
32500.000000,19825.000000,24772.000000,58929.000000
32492.000000,19829.000000,24769.000000,58933.000000
32486.000000,19805.000000,24750.000000,58919.000000
32425.000000,19804.000000,24729.000000,58923.000000
32427.000000,19802.000000,24762.000000,58909.000000
32415.000000,19797.000000,24718.000000,58910.000000
32428.000000,19762.000000,24692.000000,58882.000000
32439.000000,19761.000000,24671.000000,58867.000000
32452.000000,19791.000000,24671.000000,58885.000000
32393.000000,19780.000000,24699.000000,58867.000000
32387.000000,19736.000000,24671.000000,58856.000000
32411.000000,19769.000000,24687.000000,58876.000000
32340.000000,19721.000000,24667.000000,58868.000000
32389.000000,19734.000000,24665.000000,58851.000000
32369.000000,19712.000000,24607.000000,58816.000000
32322.000000,19709.000000,24615.000000,58848.000000
32322.000000,19695.000000,24586.000000,58804.000000
32333.000000,19702.000000,24593.000000,58835.000000
32313.000000,19722.000000,24565.000000,58825.000000
32314.000000,19685.000000,24600.000000,58855.000000
32283.000000,19671.000000,24563.000000,58835.000000
32265.000000,19650.000000,24565.000000,58817.000000
32268.000000,19649.000000,24498.000000,58782.000000
32266.000000,19659.000000,24510.000000,58769.000000
32267.000000,19699.000000,24514.000000,58786.000000
32250.000000,19648.000000,24514.000000,58799.000000
32249.000000,19655.000000,24508.000000,58767.000000
32255.000000,19617.000000,24525.000000,58780.000000
32248.000000,19603.000000,24471.000000,58772.000000
32220.000000,19633.000000,24485.000000,58778.000000
32156.000000,19588.000000,24399.000000,58729.000000
32119.000000,19546.000000,24375.000000,58721.000000
32124.000000,19563.000000,24417.000000,58724.000000
32112.000000,19577.000000,24383.000000,58726.000000
32113.000000,19554.000000,24344.000000,58725.000000
32139.000000,19566.000000,24368.000000,58732.000000
32115.000000,19543.000000,24390.000000,58709.000000
32110.000000,19530.000000,24347.000000,58722.000000
32088.000000,19529.000000,24325.000000,58666.000000
32051.000000,19507.000000,24312.000000,58682.000000
32048.000000,19538.000000,24310.000000,58686.000000
32059.000000,19509.000000,24337.000000,58669.000000
32054.000000,19504.000000,24329.000000,58686.000000
32056.000000,19471.000000,24311.000000,58693.000000
32073.000000,19501.000000,24306.000000,58683.000000
32063.000000,19514.000000,24308.000000,58663.000000
32033.000000,19457.000000,24343.000000,58667.000000
32040.000000,19530.000000,24317.000000,58650.000000
32059.000000,19495.000000,24299.000000,58642.000000
32059.000000,19522.000000,24331.000000,58656.000000
32043.000000,19508.000000,24291.000000,58653.000000
32004.000000,19463.000000,24266.000000,58650.000000
32019.000000,19439.000000,24210.000000,58626.000000
31972.000000,19460.000000,24242.000000,58622.000000
31979.000000,19463.000000,24289.000000,58638.000000
31981.000000,19486.000000,24270.000000,58643.000000
31958.000000,19476.000000,24269.000000,58676.000000
32063.000000,19507.000000,24359.000000,58717.000000
32057.000000,19519.000000,24394.000000,58727.000000
32091.000000,19515.000000,24385.000000,58740.000000
32095.000000,19571.000000,24434.000000,58723.000000
32096.000000,19604.000000,24461.000000,58750.000000
32125.000000,19561.000000,24461.000000,58762.000000
32108.000000,19567.000000,24462.000000,58778.000000
32177.000000,19584.000000,24486.000000,58774.000000
32157.000000,19617.000000,24560.000000,58801.000000
32189.000000,19620.000000,24522.000000,58828.000000
32220.000000,19628.000000,24585.000000,58829.000000
32166.000000,19615.000000,24584.000000,58853.000000
32304.000000,19712.000000,24755.000000,58913.000000
32339.000000,19745.000000,24791.000000,58955.000000
32337.000000,19765.000000,24827.000000,58964.000000
32373.000000,19795.000000,24820.000000,58964.000000
32405.000000,19828.000000,24830.000000,59007.000000
32512.000000,19883.000000,24977.000000,59051.000000
32527.000000,19909.000000,24976.000000,59062.000000
32530.000000,19931.000000,24995.000000,59070.000000
32533.000000,19919.000000,24999.000000,59070.000000
32507.000000,19897.000000,24957.000000,59044.000000
32537.000000,19916.000000,24987.000000,59051.000000
32512.000000,19900.000000,24975.000000,59047.000000
32470.000000,19893.000000,24937.000000,59038.000000
32449.000000,19861.000000,24902.000000,58996.000000
32434.000000,19856.000000,24879.000000,58987.000000
32467.000000,19842.000000,24891.000000,58995.000000
32439.000000,19825.000000,24870.000000,58986.000000
32467.000000,19863.000000,24830.000000,58979.000000
32390.000000,19789.000000,24837.000000,58963.000000
32351.000000,19750.000000,24832.000000,58946.000000
32384.000000,19781.000000,24814.000000,58961.000000
32389.000000,19763.000000,24801.000000,58970.000000
32387.000000,19810.000000,24812.000000,58971.000000
32386.000000,19798.000000,24817.000000,58976.000000
32389.000000,19796.000000,24797.000000,58945.000000
32348.000000,19754.000000,24801.000000,58918.000000
32317.000000,19711.000000,24752.000000,58920.000000
32309.000000,19751.000000,24760.000000,58905.000000
32279.000000,19733.000000,24748.000000,58907.000000
32271.000000,19750.000000,24731.000000,58916.000000
32262.000000,19700.000000,24725.000000,58925.000000
32267.000000,19690.000000,24680.000000,58860.000000
32229.000000,19682.000000,24668.000000,58876.000000
32239.000000,19688.000000,24635.000000,58867.000000
32213.000000,19688.000000,24656.000000,58874.000000
32218.000000,19656.000000,24633.000000,58857.000000
32218.000000,19635.000000,24623.000000,58839.000000
32171.000000,19643.000000,24599.000000,58846.000000
32181.000000,19616.000000,24580.000000,58824.000000
32164.000000,19641.000000,24600.000000,58833.000000
32190.000000,19627.000000,24544.000000,58806.000000
32188.000000,19632.000000,24604.000000,58834.000000
32201.000000,19637.000000,24570.000000,58808.000000
32174.000000,19628.000000,24585.000000,58815.000000
32149.000000,19605.000000,24567.000000,58830.000000
32142.000000,19576.000000,24514.000000,58812.000000
32160.000000,19623.000000,24538.000000,58807.000000
32129.000000,19556.000000,24517.000000,58815.000000
32148.000000,19617.000000,24503.000000,58786.000000
32203.000000,19603.000000,24500.000000,58785.000000
32114.000000,19562.000000,24511.000000,58804.000000
32137.000000,19570.000000,24487.000000,58782.000000
32142.000000,19583.000000,24497.000000,58802.000000
32152.000000,19575.000000,24468.000000,58780.000000
32136.000000,19571.000000,24460.000000,58758.000000
32082.000000,19586.000000,24487.000000,58775.000000
32056.000000,19542.000000,24472.000000,58766.000000
32048.000000,19547.000000,24459.000000,58750.000000
32046.000000,19545.000000,24455.000000,58726.000000
32092.000000,19512.000000,24416.000000,58740.000000
32022.000000,19528.000000,24420.000000,58757.000000
32074.000000,19506.000000,24393.000000,58740.000000
32048.000000,19491.000000,24412.000000,58754.000000
32026.000000,19516.000000,24391.000000,58698.000000
31983.000000,19493.000000,24396.000000,58749.000000
32033.000000,19531.000000,24378.000000,58711.000000
31991.000000,19526.000000,24366.000000,58733.000000
32008.000000,19496.000000,24395.000000,58744.000000
32019.000000,19483.000000,24362.000000,58743.000000
31998.000000,19522.000000,24407.000000,58720.000000
32015.000000,19514.000000,24382.000000,58720.000000
31997.000000,19482.000000,24381.000000,58723.000000
32040.000000,19475.000000,24327.000000,58709.000000
31995.000000,19466.000000,24372.000000,58717.000000
31971.000000,19486.000000,24337.000000,58686.000000
32014.000000,19496.000000,24358.000000,58690.000000
31975.000000,19487.000000,24382.000000,58696.000000
31986.000000,19477.000000,24388.000000,58706.000000
32010.000000,19483.000000,24365.000000,58717.000000
32050.000000,19518.000000,24372.000000,58721.000000
32047.000000,19543.000000,24456.000000,58769.000000
32071.000000,19522.000000,24433.000000,58781.000000
32079.000000,19550.000000,24447.000000,58764.000000
32063.000000,19564.000000,24452.000000,58793.000000
32096.000000,19567.000000,24479.000000,58817.000000
32099.000000,19534.000000,24466.000000,58762.000000
32124.000000,19552.000000,24508.000000,58800.000000
32131.000000,19630.000000,24545.000000,58857.000000
32166.000000,19598.000000,24540.000000,58806.000000
32192.000000,19640.000000,24605.000000,58841.000000
32165.000000,19626.000000,24589.000000,58833.000000
32235.000000,19646.000000,24686.000000,58901.000000
32326.000000,19737.000000,24749.000000,58966.000000
32343.000000,19770.000000,24841.000000,59020.000000
32456.000000,19852.000000,24897.000000,59021.000000
32500.000000,19855.000000,24939.000000,59039.000000
32475.000000,19850.000000,24906.000000,59014.000000
32475.000000,19871.000000,24912.000000,59045.000000
32453.000000,19857.000000,24881.000000,59034.000000
32465.000000,19846.000000,24871.000000,59024.000000
32447.000000,19838.000000,24841.000000,59002.000000
32444.000000,19795.000000,24854.000000,59020.000000
32408.000000,19834.000000,24829.000000,59003.000000
32449.000000,19835.000000,24836.000000,59009.000000
32439.000000,19834.000000,24838.000000,58979.000000
32366.000000,19744.000000,24784.000000,58942.000000
32350.000000,19798.000000,24778.000000,58957.000000
32330.000000,19747.000000,24777.000000,58946.000000
32388.000000,19760.000000,24773.000000,58937.000000
32395.000000,19762.000000,24783.000000,58992.000000
32414.000000,19765.000000,24793.000000,58937.000000
32383.000000,19791.000000,24747.000000,58948.000000
32367.000000,19745.000000,24775.000000,58959.000000
32389.000000,19769.000000,24796.000000,58941.000000
32382.000000,19767.000000,24766.000000,58945.000000
32403.000000,19754.000000,24747.000000,58938.000000
32385.000000,19763.000000,24732.000000,58967.000000
32379.000000,19786.000000,24720.000000,58967.000000
32377.000000,19740.000000,24745.000000,58905.000000
32276.000000,19697.000000,24644.000000,58872.000000
32281.000000,19658.000000,24617.000000,58901.000000
32262.000000,19685.000000,24624.000000,58878.000000
32278.000000,19651.000000,24642.000000,58890.000000
32288.000000,19697.000000,24618.000000,58881.000000
32317.000000,19704.000000,24666.000000,58900.000000
32347.000000,19728.000000,24658.000000,58913.000000
32300.000000,19683.000000,24654.000000,58903.000000
32217.000000,19628.000000,24584.000000,58864.000000
32173.000000,19628.000000,24547.000000,58864.000000
32205.000000,19631.000000,24544.000000,58841.000000
32199.000000,19588.000000,24509.000000,58830.000000
32185.000000,19589.000000,24505.000000,58809.000000
32187.000000,19634.000000,24522.000000,58788.000000
32181.000000,19588.000000,24510.000000,58845.000000
32165.000000,19598.000000,24521.000000,58817.000000
32201.000000,19621.000000,24521.000000,58844.000000
32213.000000,19609.000000,24497.000000,58813.000000
32200.000000,19625.000000,24499.000000,58818.000000
32172.000000,19610.000000,24523.000000,58815.000000
32109.000000,19555.000000,24443.000000,58800.000000
32099.000000,19540.000000,24419.000000,58777.000000
32091.000000,19530.000000,24431.000000,58770.000000
32078.000000,19505.000000,24457.000000,58793.000000
32105.000000,19533.000000,24430.000000,58782.000000
32105.000000,19546.000000,24418.000000,58760.000000
32112.000000,19565.000000,24414.000000,58733.000000
32077.000000,19530.000000,24396.000000,58772.000000
32061.000000,19521.000000,24411.000000,58755.000000
31995.000000,19461.000000,24354.000000,58727.000000
32042.000000,19472.000000,24371.000000,58738.000000
32009.000000,19474.000000,24325.000000,58703.000000
31979.000000,19452.000000,24348.000000,58720.000000
31927.000000,19420.000000,24317.000000,58707.000000
31940.000000,19456.000000,24280.000000,58689.000000
32000.000000,19457.000000,24301.000000,58714.000000
32016.000000,19520.000000,24303.000000,58734.000000
32004.000000,19497.000000,24331.000000,58709.000000
32039.000000,19465.000000,24332.000000,58760.000000
31949.000000,19420.000000,24259.000000,58736.000000
31921.000000,19414.000000,24225.000000,58706.000000
31967.000000,19462.000000,24240.000000,58685.000000
31916.000000,19421.000000,24231.000000,58679.000000
31915.000000,19402.000000,24288.000000,58680.000000
31917.000000,19384.000000,24215.000000,58649.000000
31898.000000,19400.000000,24261.000000,58663.000000
31937.000000,19442.000000,24222.000000,58684.000000
31935.000000,19456.000000,24265.000000,58653.000000
31965.000000,19400.000000,24248.000000,58703.000000
31934.000000,19398.000000,24291.000000,58754.000000
31941.000000,19428.000000,24247.000000,58736.000000
31958.000000,19446.000000,24298.000000,58756.000000
31990.000000,19464.000000,24297.000000,58708.000000
31992.000000,19477.000000,24304.000000,58738.000000
32016.000000,19474.000000,24349.000000,58756.000000
32000.000000,19476.000000,24349.000000,58766.000000
32012.000000,19481.000000,24383.000000,58779.000000
32045.000000,19534.000000,24397.000000,58769.000000
32059.000000,19524.000000,24445.000000,58791.000000
32070.000000,19504.000000,24456.000000,58818.000000
32035.000000,19509.000000,24430.000000,58805.000000
32048.000000,19545.000000,24521.000000,58830.000000
32080.000000,19528.000000,24496.000000,58863.000000
32113.000000,19581.000000,24552.000000,58881.000000
32128.000000,19566.000000,24573.000000,58875.000000
32284.000000,19718.000000,24754.000000,58976.000000
32309.000000,19731.000000,24764.000000,58968.000000
32338.000000,19745.000000,24845.000000,59036.000000
32427.000000,19823.000000,24872.000000,59045.000000
32403.000000,19791.000000,24917.000000,59071.000000
32404.000000,19806.000000,24869.000000,59062.000000
32425.000000,19808.000000,24860.000000,59058.000000
32391.000000,19781.000000,24830.000000,59057.000000
32417.000000,19843.000000,24829.000000,59026.000000
32396.000000,19816.000000,24840.000000,59088.000000
32390.000000,19801.000000,24851.000000,59021.000000
32387.000000,19798.000000,24834.000000,59029.000000
32337.000000,19757.000000,24833.000000,59058.000000
32396.000000,19750.000000,24819.000000,59055.000000
32391.000000,19768.000000,24817.000000,59025.000000
32326.000000,19786.000000,24813.000000,59051.000000
32332.000000,19748.000000,24793.000000,58996.000000
32335.000000,19769.000000,24764.000000,58997.000000
32305.000000,19781.000000,24771.000000,59015.000000
32350.000000,19771.000000,24786.000000,58987.000000
32350.000000,19730.000000,24769.000000,59004.000000
32306.000000,19733.000000,24730.000000,59001.000000
32313.000000,19733.000000,24749.000000,59007.000000
32282.000000,19712.000000,24721.000000,58988.000000
32248.000000,19709.000000,24739.000000,58967.000000
32289.000000,19656.000000,24712.000000,58989.000000
32247.000000,19714.000000,24714.000000,58960.000000
32256.000000,19698.000000,24698.000000,58981.000000
32251.000000,19679.000000,24722.000000,58976.000000
32225.000000,19665.000000,24729.000000,58930.000000
32241.000000,19706.000000,24712.000000,58951.000000
32216.000000,19614.000000,24650.000000,58940.000000
32174.000000,19636.000000,24598.000000,58930.000000
32159.000000,19594.000000,24595.000000,58900.000000
32146.000000,19617.000000,24597.000000,58925.000000
32129.000000,19624.000000,24584.000000,58871.000000
32092.000000,19571.000000,24550.000000,58875.000000
32068.000000,19562.000000,24514.000000,58853.000000
32066.000000,19518.000000,24511.000000,58830.000000
32043.000000,19551.000000,24489.000000,58838.000000
32013.000000,19522.000000,24473.000000,58819.000000
32009.000000,19518.000000,24483.000000,58839.000000
31998.000000,19517.000000,24460.000000,58836.000000
31993.000000,19503.000000,24447.000000,58843.000000
32001.000000,19533.000000,24485.000000,58824.000000
32013.000000,19511.000000,24442.000000,58842.000000
32033.000000,19513.000000,24436.000000,58805.000000
31976.000000,19480.000000,24436.000000,58844.000000
31916.000000,19432.000000,24379.000000,58744.000000
31929.000000,19441.000000,24376.000000,58771.000000
31911.000000,19425.000000,24349.000000,58761.000000
31898.000000,19443.000000,24392.000000,58756.000000
31886.000000,19418.000000,24335.000000,58734.000000
31876.000000,19379.000000,24346.000000,58753.000000
31864.000000,19418.000000,24349.000000,58726.000000
31886.000000,19436.000000,24326.000000,58755.000000
31858.000000,19403.000000,24307.000000,58761.000000
31890.000000,19397.000000,24276.000000,58737.000000
31890.000000,19381.000000,24281.000000,58711.000000
31813.000000,19366.000000,24272.000000,58723.000000
31796.000000,19325.000000,24263.000000,58703.000000
31793.000000,19365.000000,24242.000000,58694.000000
31758.000000,19348.000000,24234.000000,58692.000000
31781.000000,19328.000000,24197.000000,58686.000000
31769.000000,19339.000000,24203.000000,58693.000000
31745.000000,19303.000000,24212.000000,58703.000000
31751.000000,19330.000000,24226.000000,58696.000000
31783.000000,19342.000000,24190.000000,58702.000000
31781.000000,19310.000000,24234.000000,58703.000000
31749.000000,19330.000000,24213.000000,58718.000000
31755.000000,19279.000000,24194.000000,58709.000000
31761.000000,19337.000000,24210.000000,58667.000000
31739.000000,19332.000000,24204.000000,58689.000000
31690.000000,19316.000000,24177.000000,58715.000000
31660.000000,19266.000000,24140.000000,58677.000000
31676.000000,19249.000000,24183.000000,58624.000000
31660.000000,19287.000000,24159.000000,58665.000000
31663.000000,19275.000000,24159.000000,58663.000000
31662.000000,19295.000000,24213.000000,58685.000000
31660.000000,19257.000000,24206.000000,58686.000000
31658.000000,19273.000000,24247.000000,58691.000000
31674.000000,19254.000000,24187.000000,58687.000000
31676.000000,19288.000000,24233.000000,58712.000000
31682.000000,19302.000000,24245.000000,58706.000000
31644.000000,19305.000000,24263.000000,58713.000000
31636.000000,19317.000000,24261.000000,58713.000000
31695.000000,19291.000000,24255.000000,58702.000000
31707.000000,19331.000000,24251.000000,58701.000000
31711.000000,19329.000000,24356.000000,58777.000000
31712.000000,19305.000000,24341.000000,58769.000000
31737.000000,19358.000000,24359.000000,58769.000000
31710.000000,19325.000000,24378.000000,58782.000000
31753.000000,19424.000000,24437.000000,58848.000000
31905.000000,19475.000000,24530.000000,58850.000000
31880.000000,19466.000000,24537.000000,58898.000000
31925.000000,19509.000000,24617.000000,58924.000000
31941.000000,19504.000000,24625.000000,58900.000000
31982.000000,19536.000000,24687.000000,58968.000000
32037.000000,19616.000000,24744.000000,58993.000000
32114.000000,19636.000000,24778.000000,59025.000000
32098.000000,19644.000000,24788.000000,59042.000000
32101.000000,19643.000000,24791.000000,59023.000000
32061.000000,19603.000000,24745.000000,58997.000000
32055.000000,19585.000000,24722.000000,59001.000000
32069.000000,19628.000000,24750.000000,59006.000000
32083.000000,19611.000000,24756.000000,58987.000000
32093.000000,19628.000000,24775.000000,58956.000000
32071.000000,19613.000000,24757.000000,59009.000000
32049.000000,19573.000000,24726.000000,59002.000000
32063.000000,19596.000000,24747.000000,58988.000000
32032.000000,19572.000000,24709.000000,58975.000000
32020.000000,19558.000000,24709.000000,58966.000000
32025.000000,19567.000000,24705.000000,58927.000000
32026.000000,19595.000000,24712.000000,58951.000000
32028.000000,19582.000000,24692.000000,58996.000000
32000.000000,19595.000000,24714.000000,58978.000000
31948.000000,19543.000000,24613.000000,58937.000000
31982.000000,19518.000000,24618.000000,58924.000000
31978.000000,19533.000000,24647.000000,58963.000000
31973.000000,19519.000000,24612.000000,58945.000000
31947.000000,19529.000000,24621.000000,58951.000000
31965.000000,19484.000000,24635.000000,58950.000000
31913.000000,19492.000000,24586.000000,58906.000000
31907.000000,19466.000000,24559.000000,58892.000000
31884.000000,19480.000000,24575.000000,58897.000000
31849.000000,19444.000000,24573.000000,58905.000000
31827.000000,19446.000000,24523.000000,58907.000000
31803.000000,19457.000000,24534.000000,58920.000000
31848.000000,19445.000000,24501.000000,58866.000000
31826.000000,19407.000000,24515.000000,58876.000000
31855.000000,19458.000000,24515.000000,58880.000000
31794.000000,19393.000000,24505.000000,58854.000000
31811.000000,19413.000000,24482.000000,58849.000000
31824.000000,19422.000000,24497.000000,58834.000000
31799.000000,19425.000000,24478.000000,58831.000000
31824.000000,19417.000000,24471.000000,58853.000000
31764.000000,19386.000000,24473.000000,58856.000000
31763.000000,19387.000000,24487.000000,58848.000000
31740.000000,19378.000000,24434.000000,58828.000000
31766.000000,19383.000000,24441.000000,58825.000000
31767.000000,19390.000000,24434.000000,58808.000000
31789.000000,19404.000000,24412.000000,58832.000000
31683.000000,19366.000000,24423.000000,58806.000000
31746.000000,19364.000000,24391.000000,58811.000000
31683.000000,19328.000000,24391.000000,58761.000000
31710.000000,19337.000000,24399.000000,58802.000000
31704.000000,19317.000000,24341.000000,58795.000000
31650.000000,19315.000000,24371.000000,58796.000000
31674.000000,19307.000000,24342.000000,58773.000000
31677.000000,19297.000000,24364.000000,58766.000000
31671.000000,19305.000000,24292.000000,58760.000000
31644.000000,19289.000000,24350.000000,58777.000000
31621.000000,19312.000000,24325.000000,58735.000000
31594.000000,19310.000000,24364.000000,58781.000000
31635.000000,19261.000000,24308.000000,58742.000000
31641.000000,19281.000000,24304.000000,58741.000000
31584.000000,19255.000000,24293.000000,58761.000000
31593.000000,19265.000000,24302.000000,58722.000000
31596.000000,19273.000000,24308.000000,58760.000000
31547.000000,19265.000000,24283.000000,58733.000000
31575.000000,19235.000000,24314.000000,58766.000000
31602.000000,19259.000000,24285.000000,58756.000000
31588.000000,19244.000000,24282.000000,58741.000000
31571.000000,19250.000000,24266.000000,58738.000000
31522.000000,19215.000000,24283.000000,58744.000000
31547.000000,19278.000000,24269.000000,58725.000000
31549.000000,19184.000000,24263.000000,58719.000000
31530.000000,19203.000000,24263.000000,58740.000000
31512.000000,19217.000000,24244.000000,58686.000000
31501.000000,19180.000000,24249.000000,58726.000000
31481.000000,19137.000000,24217.000000,58732.000000
31459.000000,19151.000000,24209.000000,58732.000000
31455.000000,19188.000000,24217.000000,58705.000000
31520.000000,19183.000000,24240.000000,58770.000000
31499.000000,19173.000000,24242.000000,58761.000000
31500.000000,19208.000000,24259.000000,58748.000000
31517.000000,19225.000000,24285.000000,58732.000000
31585.000000,19247.000000,24373.000000,58773.000000
31615.000000,19268.000000,24367.000000,58807.000000
31618.000000,19270.000000,24390.000000,58800.000000
31614.000000,19331.000000,24414.000000,58827.000000
31612.000000,19307.000000,24450.000000,58826.000000
31617.000000,19303.000000,24420.000000,58825.000000
31648.000000,19339.000000,24421.000000,58862.000000
31614.000000,19286.000000,24459.000000,58825.000000
31610.000000,19276.000000,24434.000000,58848.000000
31687.000000,19339.000000,24517.000000,58881.000000
31661.000000,19336.000000,24566.000000,58927.000000
31700.000000,19347.000000,24605.000000,58935.000000
31729.000000,19381.000000,24597.000000,58936.000000
31789.000000,19464.000000,24703.000000,59005.000000
31927.000000,19553.000000,24833.000000,59097.000000
31945.000000,19552.000000,24836.000000,59053.000000
31955.000000,19607.000000,24867.000000,59080.000000
32006.000000,19585.000000,24889.000000,59090.000000
32031.000000,19640.000000,24889.000000,59070.000000
31939.000000,19559.000000,24878.000000,59076.000000
31963.000000,19607.000000,24850.000000,59084.000000
31991.000000,19604.000000,24844.000000,59058.000000
31988.000000,19616.000000,24874.000000,59093.000000
31963.000000,19586.000000,24850.000000,59084.000000
31993.000000,19590.000000,24861.000000,59083.000000
31983.000000,19581.000000,24800.000000,59044.000000
31959.000000,19567.000000,24811.000000,59042.000000
31938.000000,19577.000000,24812.000000,59057.000000
31942.000000,19548.000000,24809.000000,59057.000000
31914.000000,19559.000000,24834.000000,59050.000000
31904.000000,19525.000000,24811.000000,59047.000000
31915.000000,19513.000000,24766.000000,59029.000000
31924.000000,19504.000000,24785.000000,59013.000000
31907.000000,19538.000000,24771.000000,59012.000000
31852.000000,19522.000000,24731.000000,58990.000000
31866.000000,19506.000000,24724.000000,59011.000000
31836.000000,19527.000000,24724.000000,59000.000000
31847.000000,19484.000000,24726.000000,59001.000000
31745.000000,19458.000000,24657.000000,58955.000000
31770.000000,19455.000000,24633.000000,58977.000000
31763.000000,19392.000000,24614.000000,58954.000000
31764.000000,19435.000000,24634.000000,58986.000000
31783.000000,19411.000000,24631.000000,58915.000000
31729.000000,19427.000000,24609.000000,58923.000000
31665.000000,19391.000000,24579.000000,58938.000000
31722.000000,19363.000000,24619.000000,58914.000000
31702.000000,19364.000000,24582.000000,58930.000000
31704.000000,19377.000000,24548.000000,58918.000000
31675.000000,19339.000000,24546.000000,58902.000000
31708.000000,19345.000000,24525.000000,58905.000000
31683.000000,19351.000000,24553.000000,58888.000000
31682.000000,19347.000000,24546.000000,58900.000000
31655.000000,19353.000000,24511.000000,58897.000000
31688.000000,19351.000000,24534.000000,58927.000000
31656.000000,19330.000000,24541.000000,58881.000000
31638.000000,19300.000000,24508.000000,58876.000000
31669.000000,19328.000000,24495.000000,58877.000000
31667.000000,19322.000000,24501.000000,58866.000000
31691.000000,19341.000000,24502.000000,58888.000000
31667.000000,19355.000000,24509.000000,58894.000000
31647.000000,19323.000000,24501.000000,58904.000000
31640.000000,19343.000000,24528.000000,58870.000000
31626.000000,19340.000000,24480.000000,58877.000000
31631.000000,19333.000000,24520.000000,58899.000000
31614.000000,19334.000000,24498.000000,58881.000000
31656.000000,19316.000000,24493.000000,58842.000000
31633.000000,19312.000000,24475.000000,58843.000000
31616.000000,19317.000000,24479.000000,58893.000000
31565.000000,19271.000000,24463.000000,58819.000000
31544.000000,19254.000000,24499.000000,58859.000000
31544.000000,19258.000000,24443.000000,58826.000000
31518.000000,19235.000000,24454.000000,58854.000000
31499.000000,19260.000000,24419.000000,58835.000000
31441.000000,19222.000000,24390.000000,58845.000000
31505.000000,19213.000000,24392.000000,58791.000000
31482.000000,19226.000000,24417.000000,58819.000000
31506.000000,19240.000000,24414.000000,58813.000000
31454.000000,19204.000000,24434.000000,58835.000000
31435.000000,19187.000000,24385.000000,58782.000000
31425.000000,19240.000000,24404.000000,58825.000000
31433.000000,19188.000000,24381.000000,58829.000000
31462.000000,19230.000000,24407.000000,58832.000000
31368.000000,19182.000000,24402.000000,58813.000000
31406.000000,19165.000000,24384.000000,58810.000000
31319.000000,19163.000000,24384.000000,58818.000000
31368.000000,19149.000000,24371.000000,58777.000000
31383.000000,19146.000000,24348.000000,58784.000000
31375.000000,19150.000000,24356.000000,58779.000000
31362.000000,19171.000000,24388.000000,58815.000000
31357.000000,19160.000000,24419.000000,58809.000000
31313.000000,19155.000000,24387.000000,58810.000000
31380.000000,19207.000000,24464.000000,58836.000000
31387.000000,19185.000000,24438.000000,58801.000000
31383.000000,19188.000000,24472.000000,58829.000000
31426.000000,19188.000000,24470.000000,58851.000000
31428.000000,19205.000000,24452.000000,58860.000000
31440.000000,19224.000000,24469.000000,58868.000000
31420.000000,19217.000000,24499.000000,58853.000000
31431.000000,19262.000000,24515.000000,58862.000000
31437.000000,19246.000000,24499.000000,58887.000000
31460.000000,19220.000000,24536.000000,58878.000000
31524.000000,19276.000000,24606.000000,58954.000000
31553.000000,19317.000000,24630.000000,58957.000000
31658.000000,19352.000000,24781.000000,59012.000000
31673.000000,19430.000000,24812.000000,59062.000000
31719.000000,19469.000000,24854.000000,59048.000000
31729.000000,19448.000000,24847.000000,59083.000000
