660nm,730nm,850nm,940nm
25149.000000,17740.000000,24170.000000,59411.000000
25012.000000,17768.000000,24134.000000,59328.000000
24907.000000,17691.000000,24298.000000,59279.000000
25075.000000,17753.000000,24150.000000,59345.000000
25138.000000,17618.000000,24044.000000,59491.000000
24959.000000,17630.000000,24110.000000,59218.000000
25034.000000,17666.000000,24134.000000,59356.000000
25190.000000,17648.000000,24101.000000,59327.000000
25019.000000,17692.000000,23987.000000,59302.000000
25072.000000,17665.000000,24040.000000,59302.000000
25151.000000,17634.000000,23951.000000,59309.000000
25045.000000,17633.000000,23994.000000,59190.000000
24986.000000,17637.000000,23953.000000,59265.000000
24761.000000,17529.000000,24074.000000,59371.000000
24957.000000,17489.000000,23935.000000,59176.000000
25010.000000,17636.000000,23862.000000,59351.000000
24905.000000,17641.000000,23923.000000,59362.000000
24932.000000,17544.000000,23914.000000,59194.000000
24995.000000,17434.000000,23905.000000,59229.000000
24925.000000,17422.000000,23798.000000,59192.000000
24904.000000,17559.000000,23692.000000,59183.000000
24913.000000,17537.000000,23777.000000,59218.000000
24918.000000,17506.000000,23796.000000,59145.000000
24827.000000,17474.000000,23746.000000,59163.000000
24982.000000,17513.000000,23434.000000,59252.000000
24862.000000,17531.000000,23771.000000,59221.000000
24682.000000,17277.000000,23679.000000,59230.000000
24781.000000,17382.000000,23682.000000,59205.000000
24805.000000,17386.000000,23673.000000,59155.000000
24838.000000,17384.000000,23623.000000,59160.000000
24636.000000,17281.000000,23628.000000,59142.000000
24771.000000,17412.000000,23594.000000,59175.000000
24742.000000,17304.000000,23533.000000,59164.000000
24759.000000,17286.000000,23558.000000,59041.000000
24687.000000,17293.000000,23490.000000,59039.000000
24666.000000,17355.000000,23509.000000,59146.000000
24695.000000,17226.000000,23329.000000,58981.000000
24743.000000,17280.000000,23485.000000,59020.000000
24658.000000,17172.000000,23479.000000,58915.000000
24571.000000,17178.000000,23209.000000,58950.000000
24508.000000,17112.000000,23212.000000,58865.000000
24472.000000,17175.000000,23262.000000,58920.000000
24511.000000,17173.000000,23238.000000,58948.000000
24549.000000,17117.000000,23182.000000,58927.000000
24437.000000,16975.000000,23141.000000,58929.000000
24593.000000,17252.000000,23316.000000,58969.000000
24499.000000,17277.000000,23247.000000,58799.000000
24457.000000,17119.000000,23168.000000,58916.000000
24483.000000,17117.000000,23169.000000,58883.000000
24536.000000,17115.000000,23246.000000,58902.000000
24502.000000,17168.000000,23207.000000,58892.000000
24556.000000,17311.000000,23171.000000,58877.000000
24558.000000,17210.000000,23318.000000,58968.000000
24583.000000,17246.000000,23269.000000,58965.000000
24579.000000,17272.000000,23255.000000,58987.000000
24574.000000,17261.000000,23302.000000,58962.000000
24568.000000,17279.000000,23315.000000,59001.000000
24553.000000,17363.000000,23201.000000,58907.000000
24716.000000,17365.000000,23408.000000,58981.000000
24623.000000,17283.000000,23372.000000,59091.000000
24650.000000,17288.000000,23509.000000,59042.000000
24685.000000,17311.000000,23381.000000,59041.000000
24670.000000,17397.000000,23399.000000,59128.000000
24645.000000,17324.000000,23426.000000,59127.000000
24818.000000,17436.000000,23547.000000,59086.000000
24689.000000,17411.000000,23572.000000,59004.000000
24624.000000,17437.000000,23540.000000,59119.000000
24701.000000,17580.000000,23654.000000,58953.000000
24756.000000,17414.000000,23509.000000,59171.000000
24664.000000,17431.000000,23613.000000,59045.000000
24789.000000,17426.000000,23622.000000,59084.000000
24762.000000,17395.000000,23535.000000,59129.000000
24780.000000,17475.000000,23563.000000,59220.000000
24727.000000,17423.000000,23522.000000,59076.000000
24816.000000,17502.000000,23680.000000,59044.000000
24887.000000,17667.000000,23665.000000,59156.000000
24803.000000,17578.000000,23579.000000,59116.000000
24815.000000,17540.000000,23663.000000,59150.000000
24940.000000,17613.000000,23694.000000,59291.000000
25076.000000,17604.000000,23870.000000,59298.000000
25014.000000,17720.000000,23785.000000,59295.000000
25188.000000,17756.000000,24082.000000,59331.000000
25128.000000,17729.000000,24335.000000,59356.000000
25158.000000,17759.000000,24165.000000,59420.000000
25421.000000,17955.000000,24304.000000,59310.000000
25182.000000,17755.000000,24325.000000,59497.000000
25332.000000,17843.000000,24242.000000,59441.000000
25166.000000,17773.000000,24358.000000,59164.000000
25089.000000,17712.000000,24169.000000,59343.000000
25163.000000,17773.000000,24233.000000,59362.000000
25272.000000,17779.000000,24319.000000,59380.000000
25235.000000,17812.000000,24128.000000,59405.000000
25075.000000,17742.000000,24180.000000,59431.000000
25244.000000,17707.000000,24087.000000,59462.000000
25214.000000,17849.000000,24167.000000,59458.000000
25224.000000,17805.000000,24184.000000,59384.000000
25040.000000,17766.000000,24153.000000,59278.000000
25281.000000,17788.000000,24086.000000,59417.000000
25258.000000,17735.000000,24217.000000,59438.000000
25250.000000,17818.000000,24212.000000,59399.000000
25192.000000,17741.000000,24086.000000,59516.000000
25186.000000,17797.000000,24142.000000,59393.000000
25053.000000,17737.000000,24062.000000,59405.000000
25147.000000,17838.000000,24243.000000,59492.000000
25138.000000,17797.000000,24158.000000,59399.000000
25154.000000,17653.000000,24112.000000,59391.000000
25051.000000,17718.000000,24201.000000,59398.000000
25196.000000,17808.000000,24143.000000,59403.000000
25176.000000,17709.000000,24074.000000,59362.000000
25151.000000,17733.000000,24141.000000,59337.000000
25144.000000,17704.000000,24163.000000,59423.000000
25111.000000,17724.000000,24367.000000,59506.000000
25211.000000,17758.000000,24330.000000,59364.000000
25107.000000,17744.000000,24202.000000,59384.000000
25186.000000,17712.000000,24238.000000,59337.000000
25176.000000,17564.000000,24277.000000,59331.000000
25160.000000,17698.000000,24092.000000,59304.000000
25283.000000,17715.000000,24099.000000,59251.000000
25136.000000,17763.000000,24107.000000,59440.000000
25159.000000,17689.000000,24175.000000,59376.000000
24911.000000,17710.000000,24193.000000,59429.000000
25154.000000,17837.000000,23981.000000,59515.000000
25160.000000,17766.000000,24123.000000,59430.000000
25074.000000,17739.000000,24123.000000,59353.000000
25026.000000,17710.000000,24124.000000,59389.000000
25007.000000,17774.000000,24130.000000,59317.000000
25138.000000,17673.000000,24123.000000,59313.000000
25105.000000,17630.000000,24083.000000,59259.000000
25157.000000,17787.000000,24093.000000,59341.000000
25032.000000,17647.000000,24016.000000,59481.000000
24996.000000,17685.000000,24089.000000,59286.000000
25104.000000,17792.000000,24021.000000,59321.000000
25050.000000,17843.000000,24088.000000,59215.000000
25084.000000,17683.000000,24055.000000,59400.000000
25021.000000,17563.000000,24102.000000,59223.000000
25061.000000,17686.000000,23975.000000,59299.000000
25076.000000,17745.000000,24034.000000,59282.000000
24976.000000,17803.000000,23994.000000,59349.000000
25047.000000,17567.000000,24011.000000,59380.000000
25115.000000,17744.000000,23946.000000,59341.000000
24984.000000,17726.000000,24038.000000,59422.000000
25032.000000,17606.000000,23992.000000,59266.000000
25100.000000,17611.000000,23993.000000,59285.000000
25059.000000,17698.000000,23930.000000,59326.000000
24941.000000,17672.000000,23930.000000,59331.000000
24875.000000,17726.000000,24094.000000,59339.000000
24981.000000,17630.000000,23891.000000,59216.000000
25099.000000,17520.000000,23940.000000,59317.000000
24986.000000,17607.000000,23907.000000,59289.000000
24989.000000,17607.000000,23899.000000,59229.000000
25149.000000,17614.000000,23934.000000,59281.000000
24953.000000,17794.000000,24065.000000,59215.000000
24914.000000,17579.000000,23920.000000,59234.000000
24968.000000,17631.000000,23859.000000,59247.000000
24965.000000,17592.000000,23793.000000,59264.000000
24981.000000,17585.000000,23921.000000,59265.000000
24896.000000,17518.000000,23820.000000,59233.000000
24980.000000,17529.000000,23851.000000,59163.000000
25023.000000,17735.000000,23935.000000,59027.000000
24954.000000,17703.000000,23804.000000,59225.000000
24899.000000,17512.000000,23761.000000,59248.000000
24920.000000,17489.000000,23889.000000,59131.000000
25000.000000,17641.000000,23792.000000,59222.000000
24962.000000,17608.000000,23852.000000,59283.000000
24882.000000,17580.000000,23991.000000,59101.000000
24902.000000,17450.000000,23807.000000,59179.000000
24834.000000,17439.000000,23574.000000,59011.000000
24812.000000,17474.000000,23671.000000,59123.000000
24776.000000,17474.000000,23682.000000,59153.000000
24854.000000,17533.000000,23496.000000,59022.000000
24543.000000,17429.000000,23622.000000,59040.000000
24746.000000,17460.000000,23599.000000,59002.000000
24623.000000,17177.000000,23431.000000,58894.000000
24732.000000,17344.000000,23370.000000,58878.000000
24593.000000,17352.000000,23313.000000,59013.000000
24576.000000,17326.000000,23399.000000,59026.000000
24494.000000,17231.000000,23381.000000,58879.000000
24655.000000,17310.000000,23354.000000,59000.000000
24633.000000,17268.000000,23297.000000,58954.000000
24574.000000,17331.000000,23345.000000,58975.000000
24645.000000,17155.000000,23231.000000,58977.000000
24615.000000,17381.000000,23357.000000,59009.000000
24619.000000,17318.000000,23303.000000,58950.000000
24505.000000,17304.000000,23308.000000,58991.000000
24546.000000,17294.000000,23284.000000,59005.000000
24620.000000,17306.000000,23322.000000,59031.000000
24640.000000,17270.000000,23409.000000,58944.000000
24628.000000,17292.000000,23390.000000,59014.000000
24607.000000,17384.000000,23405.000000,59074.000000
24667.000000,17279.000000,23364.000000,59060.000000
24598.000000,17390.000000,23407.000000,59051.000000
24641.000000,17357.000000,23469.000000,59016.000000
24732.000000,17362.000000,23453.000000,59004.000000
24539.000000,17417.000000,23253.000000,59055.000000
24675.000000,17433.000000,23428.000000,59158.000000
24687.000000,17259.000000,23468.000000,59077.000000
24763.000000,17358.000000,23431.000000,59135.000000
24701.000000,17243.000000,23548.000000,59061.000000
24794.000000,17450.000000,23526.000000,59053.000000
24552.000000,17379.000000,23598.000000,58962.000000
24825.000000,17485.000000,23557.000000,59110.000000
24756.000000,17402.000000,23656.000000,59077.000000
24768.000000,17475.000000,23567.000000,59132.000000
24826.000000,17512.000000,23517.000000,59030.000000
24958.000000,17333.000000,23704.000000,59274.000000
24848.000000,17371.000000,23680.000000,59263.000000
24968.000000,17592.000000,23774.000000,59218.000000
25069.000000,17537.000000,23828.000000,59267.000000
25012.000000,17649.000000,23950.000000,59444.000000
24948.000000,17580.000000,23885.000000,59294.000000
25001.000000,17712.000000,24054.000000,59302.000000
25003.000000,17658.000000,24208.000000,59371.000000
25101.000000,17724.000000,24121.000000,59298.000000
25184.000000,17737.000000,24173.000000,59321.000000
25106.000000,17683.000000,24060.000000,59326.000000
25163.000000,17791.000000,23946.000000,59257.000000
25067.000000,17763.000000,24049.000000,59358.000000
25119.000000,17737.000000,24062.000000,59338.000000
24964.000000,17672.000000,24113.000000,59199.000000
25039.000000,17739.000000,24056.000000,59334.000000
25060.000000,17766.000000,23950.000000,59480.000000
25164.000000,17756.000000,24088.000000,59259.000000
25078.000000,17721.000000,24080.000000,59308.000000
25110.000000,17702.000000,24136.000000,59245.000000
25096.000000,17671.000000,24147.000000,59307.000000
25075.000000,17646.000000,24096.000000,59276.000000
25096.000000,17647.000000,24073.000000,59258.000000
25042.000000,17748.000000,24020.000000,59359.000000
25072.000000,17658.000000,24049.000000,59333.000000
25120.000000,17683.000000,24001.000000,59271.000000
25186.000000,17663.000000,24091.000000,59229.000000
25069.000000,17623.000000,23939.000000,59340.000000
25049.000000,17669.000000,24073.000000,59340.000000
25094.000000,17667.000000,24017.000000,59395.000000
25092.000000,17632.000000,24028.000000,59301.000000
25036.000000,17711.000000,24066.000000,59281.000000
25087.000000,17746.000000,23900.000000,59315.000000
25131.000000,17651.000000,23999.000000,59309.000000
24992.000000,17723.000000,24062.000000,59301.000000
25180.000000,17681.000000,24083.000000,59349.000000
25095.000000,17569.000000,24051.000000,59365.000000
25005.000000,17568.000000,24090.000000,59339.000000
25128.000000,17853.000000,24013.000000,59506.000000
25102.000000,17689.000000,24026.000000,59402.000000
25063.000000,17763.000000,23931.000000,59297.000000
25098.000000,17733.000000,24093.000000,59287.000000
25107.000000,17654.000000,23980.000000,59284.000000
25084.000000,17680.000000,24082.000000,59305.000000
25015.000000,17632.000000,24033.000000,59314.000000
25030.000000,17687.000000,23949.000000,59268.000000
24956.000000,17641.000000,24023.000000,59214.000000
25076.000000,17591.000000,23972.000000,59342.000000
25073.000000,17581.000000,24017.000000,59279.000000
25053.000000,17715.000000,24021.000000,59187.000000
24943.000000,17633.000000,24007.000000,59347.000000
25097.000000,17702.000000,23966.000000,59261.000000
24963.000000,17648.000000,23985.000000,59244.000000
25191.000000,17587.000000,23991.000000,59344.000000
25000.000000,17631.000000,24160.000000,59290.000000
24976.000000,17647.000000,23929.000000,59279.000000
25076.000000,17585.000000,23936.000000,59206.000000
24976.000000,17588.000000,24013.000000,59355.000000
25022.000000,17615.000000,23908.000000,59173.000000
24965.000000,17669.000000,23970.000000,59194.000000
24919.000000,17398.000000,23897.000000,59089.000000
24966.000000,17650.000000,23933.000000,59237.000000
25113.000000,17483.000000,23859.000000,59252.000000
25031.000000,17573.000000,23923.000000,59223.000000
25074.000000,17625.000000,23934.000000,59255.000000
24990.000000,17708.000000,23823.000000,59236.000000
25015.000000,17593.000000,23853.000000,59227.000000
25109.000000,17212.000000,23759.000000,59176.000000
24919.000000,17585.000000,23797.000000,59225.000000
25049.000000,17386.000000,23912.000000,59138.000000
24929.000000,17591.000000,23840.000000,59286.000000
25254.000000,17513.000000,23590.000000,59325.000000
24890.000000,17599.000000,23877.000000,59241.000000
24848.000000,17496.000000,23784.000000,59138.000000
24818.000000,17431.000000,23715.000000,59140.000000
24797.000000,17552.000000,23610.000000,59254.000000
24818.000000,17424.000000,23679.000000,59083.000000
24746.000000,17469.000000,23714.000000,59114.000000
24782.000000,17478.000000,23631.000000,59055.000000
24798.000000,17380.000000,23613.000000,59076.000000
24804.000000,17408.000000,23660.000000,59111.000000
24834.000000,17420.000000,23595.000000,59097.000000
24709.000000,17374.000000,23676.000000,58869.000000
24887.000000,17370.000000,23460.000000,59035.000000
24896.000000,17360.000000,23583.000000,59146.000000
24821.000000,17416.000000,23636.000000,59069.000000
24772.000000,17458.000000,23611.000000,59080.000000
24685.000000,17386.000000,23525.000000,59037.000000
24763.000000,17365.000000,23564.000000,58963.000000
24679.000000,17349.000000,23377.000000,59065.000000
24775.000000,17397.000000,23465.000000,59255.000000
24757.000000,17362.000000,23372.000000,59029.000000
24714.000000,17308.000000,23526.000000,58998.000000
24849.000000,17403.000000,23472.000000,59054.000000
24659.000000,17296.000000,23423.000000,58990.000000
24811.000000,17428.000000,23548.000000,58995.000000
24604.000000,17298.000000,23384.000000,59038.000000
24787.000000,17290.000000,23346.000000,59014.000000
24545.000000,17319.000000,23260.000000,58884.000000
24656.000000,17264.000000,23270.000000,58945.000000
24659.000000,17191.000000,23230.000000,58837.000000
24564.000000,17201.000000,23195.000000,58973.000000
24454.000000,17280.000000,22969.000000,58704.000000
24507.000000,17119.000000,23051.000000,58908.000000
24572.000000,17183.000000,23148.000000,58737.000000
24502.000000,17069.000000,23022.000000,58920.000000
24348.000000,17092.000000,22892.000000,58861.000000
24418.000000,17135.000000,23039.000000,58797.000000
24417.000000,17081.000000,23007.000000,58816.000000
24454.000000,17130.000000,22935.000000,58772.000000
24414.000000,17071.000000,22852.000000,59017.000000
24452.000000,16986.000000,22951.000000,58812.000000
24305.000000,16966.000000,22895.000000,58874.000000
24331.000000,17120.000000,22977.000000,58916.000000
24486.000000,16913.000000,22851.000000,58731.000000
24336.000000,17058.000000,22876.000000,58810.000000
24402.000000,16893.000000,22770.000000,58852.000000
24399.000000,16879.000000,22869.000000,58740.000000
24399.000000,17063.000000,22919.000000,58686.000000
24378.000000,17071.000000,22934.000000,58757.000000
24336.000000,16951.000000,22970.000000,58855.000000
24513.000000,17090.000000,22874.000000,58696.000000
24406.000000,17130.000000,22884.000000,58944.000000
24462.000000,17081.000000,22965.000000,58712.000000
24378.000000,17062.000000,23041.000000,58856.000000
24485.000000,17210.000000,23010.000000,58889.000000
24469.000000,17164.000000,22977.000000,58863.000000
24392.000000,17013.000000,23166.000000,58747.000000
24557.000000,16906.000000,23000.000000,58731.000000
24474.000000,17107.000000,23135.000000,58873.000000
24472.000000,17155.000000,23016.000000,58877.000000
24528.000000,17084.000000,23060.000000,58955.000000
24563.000000,17121.000000,23167.000000,58876.000000
24567.000000,17202.000000,23187.000000,58949.000000
24594.000000,17138.000000,23213.000000,59019.000000
24588.000000,17240.000000,23280.000000,58858.000000
24630.000000,17236.000000,23282.000000,58887.000000
24692.000000,17262.000000,23250.000000,58977.000000
24715.000000,17207.000000,23355.000000,59049.000000
24783.000000,17466.000000,23543.000000,59088.000000
24885.000000,17414.000000,23534.000000,59295.000000
24846.000000,17374.000000,23651.000000,59194.000000
25033.000000,17470.000000,23738.000000,59236.000000
24967.000000,17555.000000,23859.000000,59236.000000
25081.000000,17528.000000,23856.000000,59240.000000
25022.000000,17458.000000,23821.000000,59315.000000
25051.000000,17732.000000,24169.000000,59366.000000
25091.000000,17659.000000,23958.000000,59280.000000
25079.000000,17561.000000,23992.000000,59216.000000
25030.000000,17432.000000,23868.000000,59220.000000
25075.000000,17630.000000,24027.000000,59164.000000
25181.000000,17590.000000,23948.000000,59234.000000
25140.000000,17612.000000,23971.000000,59483.000000
24910.000000,17770.000000,23938.000000,59289.000000
25100.000000,17630.000000,23967.000000,59213.000000
25069.000000,17487.000000,23990.000000,59198.000000
25127.000000,17624.000000,23923.000000,59205.000000
25038.000000,17469.000000,23964.000000,59340.000000
25099.000000,17596.000000,23894.000000,59236.000000
25068.000000,17603.000000,24022.000000,59217.000000
25027.000000,17495.000000,23958.000000,59234.000000
25068.000000,17483.000000,23744.000000,59276.000000
25105.000000,17583.000000,23957.000000,59253.000000
25067.000000,17623.000000,23948.000000,59328.000000
25013.000000,17507.000000,23875.000000,59227.000000
25057.000000,17516.000000,23878.000000,59251.000000
24954.000000,17780.000000,23910.000000,59154.000000
25098.000000,17540.000000,23864.000000,59191.000000
25026.000000,17479.000000,23933.000000,59180.000000
25099.000000,17585.000000,23897.000000,59279.000000
25058.000000,17518.000000,23904.000000,59256.000000
24912.000000,17526.000000,23863.000000,59363.000000
25094.000000,17498.000000,23859.000000,59271.000000
25061.000000,17572.000000,23893.000000,59241.000000
24981.000000,17624.000000,23900.000000,59315.000000
25025.000000,17565.000000,23977.000000,59185.000000
25175.000000,17610.000000,23891.000000,59142.000000
25098.000000,17720.000000,23894.000000,59442.000000
25095.000000,17574.000000,23932.000000,59191.000000
25039.000000,17663.000000,23906.000000,59329.000000
25019.000000,17554.000000,23904.000000,59300.000000
25125.000000,17539.000000,23825.000000,59241.000000
25028.000000,17516.000000,23766.000000,59266.000000
24993.000000,17537.000000,23852.000000,59268.000000
24948.000000,17520.000000,23839.000000,59129.000000
25010.000000,17613.000000,23820.000000,59254.000000
25005.000000,17577.000000,23833.000000,59068.000000
24954.000000,17460.000000,23735.000000,59190.000000
24947.000000,17495.000000,23686.000000,59204.000000
24990.000000,17471.000000,23879.000000,59047.000000
25013.000000,17723.000000,23800.000000,59249.000000
25078.000000,17527.000000,23780.000000,59214.000000
25008.000000,17467.000000,23754.000000,59189.000000
25071.000000,17516.000000,23746.000000,59165.000000
25058.000000,17567.000000,23845.000000,59150.000000
24979.000000,17604.000000,23826.000000,59186.000000
24938.000000,17393.000000,23839.000000,59132.000000
24985.000000,17488.000000,23726.000000,59174.000000
25023.000000,17650.000000,23749.000000,59153.000000
24867.000000,17479.000000,23708.000000,59126.000000
24954.000000,17545.000000,23688.000000,59007.000000
24917.000000,17558.000000,23581.000000,59217.000000
24833.000000,17329.000000,23614.000000,59029.000000
24953.000000,17548.000000,23661.000000,59197.000000
24856.000000,17492.000000,23672.000000,59156.000000
24773.000000,17339.000000,23701.000000,59094.000000
24886.000000,17415.000000,23642.000000,59040.000000
24945.000000,17387.000000,23560.000000,59132.000000
24928.000000,17403.000000,23628.000000,59092.000000
24774.000000,17513.000000,23648.000000,59277.000000
24874.000000,17364.000000,23508.000000,59074.000000
24938.000000,17387.000000,23466.000000,58866.000000
24836.000000,17422.000000,23557.000000,59079.000000
24697.000000,17278.000000,23461.000000,58989.000000
24833.000000,17347.000000,23498.000000,59084.000000
24639.000000,17236.000000,23419.000000,59058.000000
24790.000000,17364.000000,23486.000000,59029.000000
24741.000000,17133.000000,23392.000000,59124.000000
24728.000000,17262.000000,23434.000000,58986.000000
24736.000000,17253.000000,23361.000000,59066.000000
24796.000000,17350.000000,23382.000000,59018.000000
24671.000000,17080.000000,23517.000000,58911.000000
24793.000000,17218.000000,23278.000000,59036.000000
24723.000000,17305.000000,23355.000000,58931.000000
24625.000000,17187.000000,23252.000000,58942.000000
24709.000000,17273.000000,23318.000000,58903.000000
24684.000000,17336.000000,23199.000000,59008.000000
24607.000000,17074.000000,23226.000000,59005.000000
24766.000000,17187.000000,23192.000000,58837.000000
24684.000000,17303.000000,23122.000000,58942.000000
24609.000000,17252.000000,23193.000000,58906.000000
24767.000000,17244.000000,23210.000000,58919.000000
24709.000000,17168.000000,23000.000000,58808.000000
24638.000000,17360.000000,23181.000000,58921.000000
24606.000000,17212.000000,23031.000000,58902.000000
24578.000000,17153.000000,23192.000000,58907.000000
24650.000000,17134.000000,23217.000000,58906.000000
24593.000000,17173.000000,23089.000000,58866.000000
24610.000000,17159.000000,23033.000000,58912.000000
24676.000000,17292.000000,23165.000000,58729.000000
24564.000000,17229.000000,23139.000000,58763.000000
24613.000000,17114.000000,23097.000000,58893.000000
24477.000000,17124.000000,23089.000000,58862.000000
24438.000000,17058.000000,23008.000000,58818.000000
24494.000000,17129.000000,23045.000000,58789.000000
24469.000000,17032.000000,23032.000000,58820.000000
24271.000000,17043.000000,22934.000000,58656.000000
24409.000000,16988.000000,22983.000000,58631.000000
24399.000000,17035.000000,22908.000000,58707.000000
24363.000000,17037.000000,22888.000000,58707.000000
24341.000000,16994.000000,22859.000000,58623.000000
24355.000000,17000.000000,22854.000000,58721.000000
24485.000000,16965.000000,22861.000000,58881.000000
24270.000000,16983.000000,22709.000000,58690.000000
24374.000000,16968.000000,22700.000000,58720.000000
24322.000000,16980.000000,22741.000000,58713.000000
24206.000000,16939.000000,22729.000000,58676.000000
24397.000000,17205.000000,22854.000000,58584.000000
24409.000000,17047.000000,22733.000000,58689.000000
24255.000000,17009.000000,22868.000000,58764.000000
24267.000000,16922.000000,22792.000000,58776.000000
24324.000000,17017.000000,22802.000000,58643.000000
24447.000000,16938.000000,22934.000000,58689.000000
24388.000000,17134.000000,22854.000000,58923.000000
24419.000000,17155.000000,22970.000000,58749.000000
24446.000000,17037.000000,22964.000000,58828.000000
24357.000000,17019.000000,22941.000000,58834.000000
24306.000000,17091.000000,23006.000000,58883.000000
24399.000000,17019.000000,23003.000000,58872.000000
24476.000000,17153.000000,23084.000000,58855.000000
24456.000000,17169.000000,23094.000000,58868.000000
24433.000000,17139.000000,23118.000000,58797.000000
24485.000000,17155.000000,23042.000000,58747.000000
24587.000000,17164.000000,23245.000000,58930.000000
24515.000000,17257.000000,23263.000000,58916.000000
24476.000000,17256.000000,23220.000000,58980.000000
24571.000000,17205.000000,23190.000000,58850.000000
24589.000000,17276.000000,23298.000000,59113.000000
24546.000000,17272.000000,23429.000000,59034.000000
24620.000000,17305.000000,23536.000000,59017.000000
24713.000000,17362.000000,23406.000000,59060.000000
24850.000000,17318.000000,23499.000000,59158.000000
24811.000000,17425.000000,23549.000000,59212.000000
24739.000000,17426.000000,23556.000000,59335.000000
24864.000000,17482.000000,23683.000000,59145.000000
24992.000000,17488.000000,23751.000000,59208.000000
24929.000000,17608.000000,23876.000000,59253.000000
24878.000000,17670.000000,23873.000000,59386.000000
24999.000000,17603.000000,23949.000000,59270.000000
25057.000000,17615.000000,24021.000000,59202.000000
25099.000000,17569.000000,24063.000000,59365.000000
25027.000000,17734.000000,23996.000000,59103.000000
25077.000000,17685.000000,24068.000000,59269.000000
24908.000000,17677.000000,24055.000000,59408.000000
25124.000000,17638.000000,23904.000000,59334.000000
24988.000000,17619.000000,23988.000000,59313.000000
25098.000000,17653.000000,23998.000000,59302.000000
25127.000000,17573.000000,24033.000000,59296.000000
25146.000000,17697.000000,24068.000000,59297.000000
25072.000000,17672.000000,23961.000000,59234.000000
25020.000000,17602.000000,24027.000000,59258.000000
24849.000000,17621.000000,24084.000000,59353.000000
25074.000000,17655.000000,24038.000000,59308.000000
25050.000000,17736.000000,23978.000000,59288.000000
25038.000000,17598.000000,23882.000000,59264.000000
24984.000000,17662.000000,23937.000000,59235.000000
25103.000000,17577.000000,24004.000000,59321.000000
25063.000000,17572.000000,23927.000000,59317.000000
24976.000000,17693.000000,24000.000000,59392.000000
25115.000000,17612.000000,23960.000000,59217.000000
24980.000000,17638.000000,23919.000000,59242.000000
24960.000000,17597.000000,23843.000000,59277.000000
24912.000000,17576.000000,23940.000000,59309.000000
24968.000000,17555.000000,23968.000000,59258.000000
25054.000000,17571.000000,24051.000000,59299.000000
24980.000000,17535.000000,23816.000000,59289.000000
25013.000000,17480.000000,23897.000000,59156.000000
24958.000000,17573.000000,24079.000000,59206.000000
25033.000000,17637.000000,23869.000000,59289.000000
25033.000000,17616.000000,23903.000000,59184.000000
24989.000000,17646.000000,23887.000000,59260.000000
25069.000000,17635.000000,23896.000000,59277.000000
24608.000000,17688.000000,23756.000000,59272.000000
25057.000000,17730.000000,23859.000000,59222.000000
24968.000000,17526.000000,23953.000000,59248.000000
25014.000000,17676.000000,23898.000000,59277.000000
24844.000000,17596.000000,23847.000000,59303.000000
25001.000000,17685.000000,23787.000000,59263.000000
24961.000000,17675.000000,23942.000000,59342.000000
24966.000000,17529.000000,23831.000000,59382.000000
24822.000000,17468.000000,23944.000000,59312.000000
25119.000000,17604.000000,23962.000000,59193.000000
25057.000000,17492.000000,23815.000000,59199.000000
24912.000000,17620.000000,23888.000000,59361.000000
24830.000000,17538.000000,23952.000000,59243.000000
25095.000000,17635.000000,23759.000000,59300.000000
24929.000000,17647.000000,23924.000000,59117.000000
24888.000000,17519.000000,23772.000000,59274.000000
24888.000000,17511.000000,23841.000000,59212.000000
24925.000000,17366.000000,23651.000000,59217.000000
24983.000000,17497.000000,23811.000000,59154.000000
24912.000000,17551.000000,23749.000000,59225.000000
24867.000000,17470.000000,23850.000000,59169.000000
25187.000000,17291.000000,23949.000000,59440.000000
24872.000000,17533.000000,23776.000000,59125.000000
24875.000000,17511.000000,23715.000000,59204.000000
24753.000000,17512.000000,23795.000000,59169.000000
24934.000000,17519.000000,23726.000000,59138.000000
24917.000000,17551.000000,23705.000000,59031.000000
24791.000000,17485.000000,23718.000000,59098.000000
24818.000000,17442.000000,23775.000000,59047.000000
24688.000000,17484.000000,23610.000000,59081.000000
24722.000000,17474.000000,23587.000000,59115.000000
24769.000000,17403.000000,23611.000000,59162.000000
25067.000000,17518.000000,23288.000000,59067.000000
24746.000000,17446.000000,23564.000000,59116.000000
24756.000000,17354.000000,23663.000000,59099.000000
24863.000000,17378.000000,23568.000000,59024.000000
24781.000000,17351.000000,23520.000000,59088.000000
24743.000000,17358.000000,23477.000000,58995.000000
24686.000000,17351.000000,23443.000000,59076.000000
24588.000000,17286.000000,23332.000000,59081.000000
24695.000000,17279.000000,23363.000000,59008.000000
24607.000000,17326.000000,23388.000000,59004.000000
24699.000000,17273.000000,23297.000000,58977.000000
24410.000000,17126.000000,23386.000000,58993.000000
24591.000000,17273.000000,23330.000000,59058.000000
24593.000000,17190.000000,23350.000000,59009.000000
24512.000000,17222.000000,23254.000000,58998.000000
24599.000000,17245.000000,23246.000000,58992.000000
24611.000000,17295.000000,23362.000000,58980.000000
24598.000000,17335.000000,23245.000000,58819.000000
24569.000000,17271.000000,23306.000000,58939.000000
24518.000000,17058.000000,23217.000000,59112.000000
24499.000000,17238.000000,23296.000000,58954.000000
24617.000000,17219.000000,23396.000000,58879.000000
24483.000000,17109.000000,23207.000000,58935.000000
24554.000000,17294.000000,23303.000000,58997.000000
24463.000000,17239.000000,23247.000000,59044.000000
24550.000000,17140.000000,23202.000000,58962.000000
24430.000000,17183.000000,23136.000000,58914.000000
24431.000000,16955.000000,23067.000000,58794.000000
24448.000000,17200.000000,23147.000000,58992.000000
24554.000000,17128.000000,23038.000000,58878.000000
24379.000000,17110.000000,23068.000000,58866.000000
24337.000000,17104.000000,22939.000000,58813.000000
24407.000000,17157.000000,22978.000000,58783.000000
24385.000000,17091.000000,22970.000000,58787.000000
24316.000000,16956.000000,22907.000000,58695.000000
24292.000000,17022.000000,22907.000000,58688.000000
24260.000000,17033.000000,22832.000000,58723.000000
24250.000000,17082.000000,22731.000000,58868.000000
24233.000000,17061.000000,22767.000000,58704.000000
24238.000000,16973.000000,22782.000000,58723.000000
24188.000000,16965.000000,22668.000000,58736.000000
24172.000000,17048.000000,22840.000000,58661.000000
24145.000000,16866.000000,22837.000000,58686.000000
24244.000000,17075.000000,22748.000000,58651.000000
24175.000000,16978.000000,22853.000000,58676.000000
24129.000000,17014.000000,22814.000000,58753.000000
24169.000000,16918.000000,22821.000000,58733.000000
24344.000000,16994.000000,22851.000000,58757.000000
24273.000000,16903.000000,22777.000000,58706.000000
24177.000000,16969.000000,22862.000000,58764.000000
24219.000000,16969.000000,22961.000000,58753.000000
24172.000000,16991.000000,22934.000000,58778.000000
24249.000000,16965.000000,22852.000000,58780.000000
24385.000000,17062.000000,22827.000000,58836.000000
24225.000000,17096.000000,22960.000000,58757.000000
24295.000000,17003.000000,22945.000000,58865.000000
24229.000000,17055.000000,22921.000000,58783.000000
24361.000000,17113.000000,23084.000000,58790.000000
24380.000000,17036.000000,22950.000000,58868.000000
24268.000000,17127.000000,23060.000000,58842.000000
24243.000000,17092.000000,23024.000000,58774.000000
24395.000000,17095.000000,23003.000000,58876.000000
24363.000000,17197.000000,23120.000000,58904.000000
24305.000000,17187.000000,23118.000000,58904.000000
24336.000000,17181.000000,23032.000000,58947.000000
24510.000000,17156.000000,23166.000000,58973.000000
24429.000000,17277.000000,23175.000000,58968.000000
24460.000000,17148.000000,23238.000000,59035.000000
24473.000000,17322.000000,23191.000000,59006.000000
24596.000000,17435.000000,23376.000000,58971.000000
24650.000000,17323.000000,23460.000000,59002.000000
24410.000000,17429.000000,23130.000000,59155.000000
24571.000000,17347.000000,23516.000000,59068.000000
24755.000000,17365.000000,23506.000000,59210.000000
24739.000000,17378.000000,23612.000000,59160.000000
24723.000000,17442.000000,23646.000000,59182.000000
24740.000000,17452.000000,23639.000000,59162.000000
24664.000000,17538.000000,23753.000000,59245.000000
24809.000000,17544.000000,23840.000000,59212.000000
24660.000000,17478.000000,23886.000000,59066.000000
24823.000000,17557.000000,23897.000000,59189.000000
24953.000000,17508.000000,23858.000000,59164.000000
24834.000000,17591.000000,23891.000000,59127.000000
24745.000000,17572.000000,23767.000000,59130.000000
24841.000000,17577.000000,23812.000000,59165.000000
24754.000000,17465.000000,23795.000000,59100.000000
25029.000000,17522.000000,23822.000000,59107.000000
24857.000000,17575.000000,23733.000000,59240.000000
24766.000000,17455.000000,23739.000000,59183.000000
24800.000000,17431.000000,23725.000000,59064.000000
24731.000000,17486.000000,23730.000000,59188.000000
24701.000000,17419.000000,23766.000000,59180.000000
24798.000000,17387.000000,23663.000000,59153.000000
24891.000000,17674.000000,23391.000000,59043.000000
24803.000000,17474.000000,23689.000000,59104.000000
24725.000000,17434.000000,23716.000000,59090.000000
24718.000000,17378.000000,23725.000000,59195.000000
24742.000000,17355.000000,23706.000000,59084.000000
24639.000000,17448.000000,23660.000000,59079.000000
24713.000000,17398.000000,23688.000000,59153.000000
24690.000000,17385.000000,23521.000000,58993.000000
24776.000000,17356.000000,23701.000000,59033.000000
24605.000000,17448.000000,23662.000000,59111.000000
24693.000000,17335.000000,23600.000000,59145.000000
24762.000000,17312.000000,23685.000000,59027.000000
24888.000000,17468.000000,23543.000000,59064.000000
24883.000000,17483.000000,23539.000000,59233.000000
24604.000000,17230.000000,23579.000000,59079.000000
24674.000000,17399.000000,23631.000000,59056.000000
24737.000000,17357.000000,23558.000000,59036.000000
24850.000000,17378.000000,23624.000000,59100.000000
24766.000000,17486.000000,23520.000000,59064.000000
24690.000000,17325.000000,23619.000000,58997.000000
24665.000000,17327.000000,23615.000000,59002.000000
24617.000000,17413.000000,23600.000000,59048.000000
24711.000000,17356.000000,23612.000000,59049.000000
24526.000000,17294.000000,23654.000000,59077.000000
24711.000000,17348.000000,23640.000000,58998.000000
24612.000000,17322.000000,23657.000000,59081.000000
24610.000000,17314.000000,23631.000000,59009.000000
24568.000000,17387.000000,23552.000000,59069.000000
24624.000000,17398.000000,23581.000000,59077.000000
24684.000000,17334.000000,23536.000000,58931.000000
24620.000000,17234.000000,23539.000000,59038.000000
24539.000000,17229.000000,23504.000000,59015.000000
24595.000000,17277.000000,23529.000000,59027.000000
24473.000000,17301.000000,23622.000000,59010.000000
24643.000000,17343.000000,23580.000000,58898.000000
24543.000000,17342.000000,23555.000000,59080.000000
24651.000000,17235.000000,23543.000000,58948.000000
24638.000000,17220.000000,23457.000000,59163.000000
24615.000000,17458.000000,23569.000000,58958.000000
24440.000000,17278.000000,23600.000000,58983.000000
24565.000000,17333.000000,23594.000000,59020.000000
24579.000000,17300.000000,23552.000000,58996.000000
24546.000000,17280.000000,23543.000000,59185.000000
24560.000000,17329.000000,23518.000000,59042.000000
24547.000000,17330.000000,23582.000000,59018.000000
24467.000000,17262.000000,23435.000000,59005.000000
24579.000000,17416.000000,23456.000000,58996.000000
24548.000000,17301.000000,23574.000000,58955.000000
24518.000000,17502.000000,23573.000000,58922.000000
24532.000000,17402.000000,23508.000000,58920.000000
24573.000000,17300.000000,23471.000000,58943.000000
24423.000000,17336.000000,23712.000000,58998.000000
24410.000000,17182.000000,23440.000000,58949.000000
24445.000000,17303.000000,23409.000000,59037.000000
24611.000000,17234.000000,23500.000000,58953.000000
24437.000000,17304.000000,23454.000000,58958.000000
24467.000000,17289.000000,23410.000000,58953.000000
24456.000000,17228.000000,23430.000000,58951.000000
24477.000000,17391.000000,23248.000000,58861.000000
24454.000000,17304.000000,23330.000000,59007.000000
24405.000000,17165.000000,23352.000000,58836.000000
24328.000000,17139.000000,23265.000000,58813.000000
24009.000000,17483.000000,22995.000000,58878.000000
24401.000000,17130.000000,23202.000000,58857.000000
24367.000000,17148.000000,23155.000000,58794.000000
24439.000000,17203.000000,23292.000000,58883.000000
24327.000000,17163.000000,23122.000000,58905.000000
24329.000000,17029.000000,23286.000000,58913.000000
24307.000000,17112.000000,23158.000000,58822.000000
24362.000000,17160.000000,23006.000000,58810.000000
24257.000000,17146.000000,23061.000000,58692.000000
24335.000000,17094.000000,23155.000000,58718.000000
24250.000000,17043.000000,23066.000000,58750.000000
24260.000000,16973.000000,23087.000000,58804.000000
24200.000000,16966.000000,23014.000000,58733.000000
24005.000000,16786.000000,23081.000000,58554.000000
24230.000000,17050.000000,22860.000000,58636.000000
24078.000000,16960.000000,22848.000000,58771.000000
24038.000000,16909.000000,22914.000000,58548.000000
24057.000000,16961.000000,22741.000000,58638.000000
24101.000000,16901.000000,22730.000000,58613.000000
23993.000000,16762.000000,22741.000000,58530.000000
23825.000000,16785.000000,22632.000000,58682.000000
23977.000000,16777.000000,22633.000000,58573.000000
24045.000000,16788.000000,22522.000000,58599.000000
23915.000000,16786.000000,22553.000000,58659.000000
24052.000000,16580.000000,22485.000000,58473.000000
23822.000000,16688.000000,22601.000000,58475.000000
23878.000000,16640.000000,22489.000000,58426.000000
23925.000000,16824.000000,22457.000000,58610.000000
23953.000000,16833.000000,22581.000000,58451.000000
23700.000000,16736.000000,22508.000000,58549.000000
23886.000000,16864.000000,22647.000000,58420.000000
23863.000000,16757.000000,22521.000000,58596.000000
23858.000000,16833.000000,22525.000000,58632.000000
23879.000000,16739.000000,22515.000000,58459.000000
23906.000000,16775.000000,22574.000000,58471.000000
23912.000000,16719.000000,22510.000000,58513.000000
23913.000000,16805.000000,22542.000000,58499.000000
24120.000000,16982.000000,22905.000000,58584.000000
23912.000000,16735.000000,22568.000000,58522.000000
23942.000000,16821.000000,22621.000000,58602.000000
23932.000000,16767.000000,22521.000000,58608.000000
23954.000000,16830.000000,22610.000000,58636.000000
23969.000000,16810.000000,22661.000000,58650.000000
24014.000000,16771.000000,22646.000000,58637.000000
24059.000000,16911.000000,22687.000000,58588.000000
23986.000000,16792.000000,22747.000000,58613.000000
23990.000000,16887.000000,22818.000000,58708.000000
24112.000000,16919.000000,22736.000000,58534.000000
24067.000000,16912.000000,22847.000000,58654.000000
24029.000000,16957.000000,22759.000000,58736.000000
24117.000000,17125.000000,22857.000000,58824.000000
24098.000000,17098.000000,22905.000000,58635.000000
24186.000000,16951.000000,22959.000000,58774.000000
24170.000000,16967.000000,22997.000000,58686.000000
24340.000000,17236.000000,23368.000000,58916.000000
24371.000000,17264.000000,23383.000000,58915.000000
24491.000000,17228.000000,23385.000000,58910.000000
24545.000000,17266.000000,23449.000000,58973.000000
24442.000000,17270.000000,23491.000000,58969.000000
24485.000000,17284.000000,23587.000000,58969.000000
24577.000000,17288.000000,23616.000000,58963.000000
24562.000000,17420.000000,23469.000000,59051.000000
24436.000000,17324.000000,23649.000000,59087.000000
24459.000000,17363.000000,23635.000000,58998.000000
24589.000000,17337.000000,23596.000000,58928.000000
24639.000000,17439.000000,23619.000000,59076.000000
24506.000000,17282.000000,23591.000000,58928.000000
24624.000000,17221.000000,23587.000000,59063.000000
24521.000000,17252.000000,23581.000000,59016.000000
24585.000000,17411.000000,23609.000000,59103.000000
24500.000000,17335.000000,23598.000000,59024.000000
24511.000000,17257.000000,23640.000000,59063.000000
24424.000000,17398.000000,23663.000000,58934.000000
24568.000000,17338.000000,23566.000000,59018.000000
24535.000000,17221.000000,23419.000000,58960.000000
24605.000000,17364.000000,23566.000000,58939.000000
24656.000000,17273.000000,23633.000000,59053.000000
24456.000000,17372.000000,23569.000000,59003.000000
24464.000000,17197.000000,23570.000000,58892.000000
24542.000000,17323.000000,23634.000000,58996.000000
24496.000000,17352.000000,23525.000000,58940.000000
24616.000000,17268.000000,23577.000000,58990.000000
24603.000000,17256.000000,23489.000000,58999.000000
24498.000000,17443.000000,23449.000000,59067.000000
24416.000000,17216.000000,23465.000000,58979.000000
24495.000000,17268.000000,23527.000000,58900.000000
24540.000000,17282.000000,23644.000000,59014.000000
24461.000000,17335.000000,23441.000000,58972.000000
24569.000000,17197.000000,23540.000000,58950.000000
24463.000000,17338.000000,23471.000000,58908.000000
24517.000000,17224.000000,23534.000000,59003.000000
24453.000000,17259.000000,23539.000000,58903.000000
24477.000000,17281.000000,23523.000000,58934.000000
24494.000000,17349.000000,23407.000000,59076.000000
24471.000000,17296.000000,23554.000000,59071.000000
24452.000000,17346.000000,23464.000000,58858.000000
24468.000000,17273.000000,23484.000000,58999.000000
24375.000000,17316.000000,23514.000000,58870.000000
24476.000000,17294.000000,23431.000000,58864.000000
24437.000000,17192.000000,23581.000000,58946.000000
24486.000000,17366.000000,23635.000000,58899.000000
24474.000000,17226.000000,23527.000000,59026.000000
24531.000000,17245.000000,23503.000000,58966.000000
24518.000000,17373.000000,23570.000000,58862.000000
24464.000000,17313.000000,23539.000000,58976.000000
24401.000000,17220.000000,23583.000000,58919.000000
24556.000000,17316.000000,23398.000000,59027.000000
24513.000000,17273.000000,23616.000000,58964.000000
24500.000000,17299.000000,23485.000000,58973.000000
24460.000000,17184.000000,23459.000000,58976.000000
24609.000000,17286.000000,23473.000000,58965.000000
24318.000000,17286.000000,23428.000000,59018.000000
24505.000000,17460.000000,23401.000000,58962.000000
24482.000000,17157.000000,23425.000000,58892.000000
24440.000000,17279.000000,23437.000000,58937.000000
24429.000000,17164.000000,23471.000000,59013.000000
24415.000000,17264.000000,23501.000000,58988.000000
24401.000000,17206.000000,23462.000000,58900.000000
24507.000000,17244.000000,23374.000000,58916.000000
24355.000000,17453.000000,23202.000000,58696.000000
24404.000000,17324.000000,23400.000000,58948.000000
24386.000000,17183.000000,23361.000000,58913.000000
24475.000000,17269.000000,23380.000000,58789.000000
24265.000000,17080.000000,23242.000000,58785.000000
24340.000000,17249.000000,23347.000000,58885.000000
24306.000000,17235.000000,23258.000000,58902.000000
24356.000000,17087.000000,23289.000000,58809.000000
24223.000000,17125.000000,23276.000000,58843.000000
24408.000000,17226.000000,23317.000000,58878.000000
24330.000000,17176.000000,23132.000000,58888.000000
24244.000000,17019.000000,22982.000000,58873.000000
24312.000000,17082.000000,23110.000000,58805.000000
24299.000000,17102.000000,23258.000000,58812.000000
24225.000000,17073.000000,23173.000000,58899.000000
24324.000000,17104.000000,23169.000000,58863.000000
24216.000000,17044.000000,23103.000000,58901.000000
24231.000000,17116.000000,23156.000000,58872.000000
24203.000000,17084.000000,23172.000000,58689.000000
24246.000000,17131.000000,23130.000000,58823.000000
24319.000000,17108.000000,23132.000000,58752.000000
24169.000000,17167.000000,23123.000000,58832.000000
24354.000000,17077.000000,22986.000000,58702.000000
24245.000000,17001.000000,22935.000000,58895.000000
24290.000000,17090.000000,23130.000000,58781.000000
24295.000000,16955.000000,23133.000000,58716.000000
24196.000000,17054.000000,23041.000000,58766.000000
24111.000000,17058.000000,22940.000000,58726.000000
24172.000000,17026.000000,23002.000000,58737.000000
24079.000000,16965.000000,22958.000000,58755.000000
24116.000000,16986.000000,22858.000000,58659.000000
24191.000000,16912.000000,22914.000000,58680.000000
24087.000000,16893.000000,22794.000000,58488.000000
23894.000000,16803.000000,22697.000000,58586.000000
24013.000000,16883.000000,22731.000000,58557.000000
23932.000000,16856.000000,22678.000000,58624.000000
23765.000000,16888.000000,22571.000000,58588.000000
23933.000000,16733.000000,22439.000000,58539.000000
23897.000000,16737.000000,22545.000000,58475.000000
23765.000000,16733.000000,22412.000000,58502.000000
23891.000000,16751.000000,22437.000000,58422.000000
23899.000000,16613.000000,22588.000000,58415.000000
23794.000000,16732.000000,22478.000000,58485.000000
23688.000000,16734.000000,22437.000000,58422.000000
23819.000000,16747.000000,22417.000000,58454.000000
23807.000000,16673.000000,22394.000000,58388.000000
23814.000000,16742.000000,22462.000000,58408.000000
23742.000000,16807.000000,22432.000000,58504.000000
23851.000000,16739.000000,22455.000000,58430.000000
23851.000000,16789.000000,22532.000000,58495.000000
23855.000000,16756.000000,22491.000000,58529.000000
23868.000000,16914.000000,22480.000000,58451.000000
23848.000000,16843.000000,22524.000000,58533.000000
23838.000000,16739.000000,22488.000000,58562.000000
23901.000000,16681.000000,22596.000000,58517.000000
23906.000000,16852.000000,22626.000000,58550.000000
23855.000000,16849.000000,22530.000000,58523.000000
23837.000000,16682.000000,22617.000000,58569.000000
23949.000000,16865.000000,22616.000000,58544.000000
23926.000000,16809.000000,22622.000000,58659.000000
23893.000000,16780.000000,22656.000000,58564.000000
24014.000000,16984.000000,22794.000000,58542.000000
24005.000000,16936.000000,22669.000000,58671.000000
24076.000000,16870.000000,22765.000000,58633.000000
24187.000000,16941.000000,22760.000000,58666.000000
24184.000000,17088.000000,22946.000000,58747.000000
24178.000000,17053.000000,22949.000000,58936.000000
24194.000000,17088.000000,22954.000000,58767.000000
24157.000000,17003.000000,22797.000000,58706.000000
24246.000000,17105.000000,23062.000000,58879.000000
24125.000000,17153.000000,23037.000000,58856.000000
24398.000000,17191.000000,23270.000000,58983.000000
24312.000000,17078.000000,23218.000000,58895.000000
24391.000000,16990.000000,23232.000000,58848.000000
24493.000000,17319.000000,23438.000000,58906.000000
24510.000000,17269.000000,23554.000000,59020.000000
24442.000000,17243.000000,23546.000000,59105.000000
24567.000000,17307.000000,23479.000000,58958.000000
24648.000000,17430.000000,23423.000000,59031.000000
24568.000000,17383.000000,23488.000000,59060.000000
24614.000000,17338.000000,23603.000000,59044.000000
24548.000000,17424.000000,23580.000000,59015.000000
24555.000000,17288.000000,23618.000000,59080.000000
24586.000000,17238.000000,23557.000000,58897.000000
24495.000000,17352.000000,23555.000000,59056.000000
24463.000000,17261.000000,23608.000000,59063.000000
24608.000000,17456.000000,23423.000000,59035.000000
24623.000000,17313.000000,23593.000000,59068.000000
24573.000000,17258.000000,23614.000000,59015.000000
24669.000000,17366.000000,23659.000000,59038.000000
24574.000000,17366.000000,23558.000000,58978.000000
24454.000000,17330.000000,23526.000000,59084.000000
24571.000000,17324.000000,23580.000000,59010.000000
24612.000000,17353.000000,23603.000000,58950.000000
24598.000000,17419.000000,23682.000000,59030.000000
24485.000000,17262.000000,23536.000000,58951.000000
24562.000000,17364.000000,23444.000000,58981.000000
24653.000000,17328.000000,23527.000000,59134.000000
24595.000000,17397.000000,23540.000000,58931.000000
24371.000000,17423.000000,23556.000000,59083.000000
24613.000000,17399.000000,23606.000000,59031.000000
24543.000000,17293.000000,23548.000000,59035.000000
24643.000000,17316.000000,23557.000000,59028.000000
24474.000000,17292.000000,23592.000000,59021.000000
24454.000000,17359.000000,23585.000000,59007.000000
24560.000000,17394.000000,23510.000000,59012.000000
24574.000000,17359.000000,23497.000000,59038.000000
24567.000000,17330.000000,23539.000000,58967.000000
24452.000000,17394.000000,23579.000000,59056.000000
24450.000000,17218.000000,23539.000000,58853.000000
24796.000000,17429.000000,23502.000000,59117.000000
24546.000000,17402.000000,23438.000000,58897.000000
24497.000000,17352.000000,23529.000000,59012.000000
24508.000000,17274.000000,23568.000000,58937.000000
24465.000000,17363.000000,23518.000000,58972.000000
24538.000000,17404.000000,23593.000000,58979.000000
24371.000000,17183.000000,23628.000000,59031.000000
24525.000000,17294.000000,23603.000000,58965.000000
24557.000000,17454.000000,23438.000000,59019.000000
24541.000000,17401.000000,23529.000000,58960.000000
24448.000000,17364.000000,23425.000000,58991.000000
24459.000000,17394.000000,23463.000000,58993.000000
24481.000000,17320.000000,23311.000000,59033.000000
24219.000000,17393.000000,23641.000000,58893.000000
24436.000000,17483.000000,23509.000000,58945.000000
24509.000000,17307.000000,23373.000000,58925.000000
24465.000000,17298.000000,23402.000000,58922.000000
24569.000000,17144.000000,23335.000000,58954.000000
24408.000000,17299.000000,23474.000000,58924.000000
24399.000000,17220.000000,23481.000000,58954.000000
24473.000000,17205.000000,23433.000000,58924.000000
24457.000000,17254.000000,23378.000000,58897.000000
24483.000000,17252.000000,23418.000000,58910.000000
24456.000000,17217.000000,23424.000000,59009.000000
24335.000000,17471.000000,23364.000000,58819.000000
24348.000000,17284.000000,23336.000000,58827.000000
24433.000000,17109.000000,23365.000000,58893.000000
24453.000000,17244.000000,23289.000000,58866.000000
24403.000000,17217.000000,23323.000000,58921.000000
24395.000000,17235.000000,23267.000000,58845.000000
24418.000000,17256.000000,23284.000000,58871.000000
24360.000000,17311.000000,23149.000000,58739.000000
24332.000000,17179.000000,23100.000000,58663.000000
24277.000000,17151.000000,23245.000000,58809.000000
24312.000000,17123.000000,23191.000000,58791.000000
24315.000000,17144.000000,23185.000000,58849.000000
24258.000000,17055.000000,23135.000000,58734.000000
24355.000000,17034.000000,22994.000000,58701.000000
24342.000000,17199.000000,23278.000000,58692.000000
24229.000000,17191.000000,23090.000000,58720.000000
24172.000000,17021.000000,23012.000000,58720.000000
24293.000000,17103.000000,23058.000000,58889.000000
24287.000000,17107.000000,23092.000000,58660.000000
24183.000000,16994.000000,23080.000000,58667.000000
24160.000000,17061.000000,22962.000000,58707.000000
24316.000000,16894.000000,22906.000000,58658.000000
24122.000000,16902.000000,22845.000000,58743.000000
24229.000000,17011.000000,23054.000000,58529.000000
24209.000000,17021.000000,22961.000000,58602.000000
24169.000000,16861.000000,22837.000000,58751.000000
24119.000000,17005.000000,22989.000000,58623.000000
24214.000000,16946.000000,22896.000000,58713.000000
24111.000000,16927.000000,22879.000000,58629.000000
24176.000000,16904.000000,22872.000000,58580.000000
24142.000000,16995.000000,22824.000000,58690.000000
24089.000000,16804.000000,22825.000000,58658.000000
24046.000000,16889.000000,22751.000000,58624.000000
24228.000000,16946.000000,22678.000000,58621.000000
24122.000000,16755.000000,22604.000000,58664.000000
24060.000000,16662.000000,22741.000000,58523.000000
23973.000000,16779.000000,22675.000000,58503.000000
24004.000000,16854.000000,22635.000000,58444.000000
23698.000000,16758.000000,22390.000000,58357.000000
24039.000000,16418.000000,22354.000000,58268.000000
23939.000000,16675.000000,22204.000000,58424.000000
23672.000000,16604.000000,22268.000000,58270.000000
23715.000000,16597.000000,22206.000000,58358.000000
23732.000000,16594.000000,22215.000000,58253.000000
23687.000000,16593.000000,22140.000000,58228.000000
23641.000000,16707.000000,22219.000000,58408.000000
23683.000000,16522.000000,22111.000000,58362.000000
23685.000000,16521.000000,22199.000000,58250.000000
23636.000000,16494.000000,22013.000000,58288.000000
23627.000000,16473.000000,22125.000000,58235.000000
23646.000000,16517.000000,22062.000000,58286.000000
23561.000000,16405.000000,22003.000000,58219.000000
23716.000000,16591.000000,22058.000000,58207.000000
23712.000000,16434.000000,22128.000000,58228.000000
23686.000000,16524.000000,22143.000000,58354.000000
23624.000000,16496.000000,22147.000000,58349.000000
23679.000000,16551.000000,22214.000000,58314.000000
23780.000000,16538.000000,22170.000000,58306.000000
23575.000000,16600.000000,22172.000000,58313.000000
23642.000000,16530.000000,22138.000000,58361.000000
23736.000000,16564.000000,22216.000000,58327.000000
23819.000000,16546.000000,22303.000000,58307.000000
23685.000000,16543.000000,22168.000000,58344.000000
23590.000000,16515.000000,22294.000000,58404.000000
23790.000000,16459.000000,22402.000000,58316.000000
23716.000000,16563.000000,22382.000000,58320.000000
23695.000000,16563.000000,22236.000000,58433.000000
23750.000000,16472.000000,22187.000000,58362.000000
23832.000000,16537.000000,22342.000000,58367.000000
23836.000000,16603.000000,22354.000000,58443.000000
23745.000000,16544.000000,22407.000000,58458.000000
23898.000000,16717.000000,22451.000000,58483.000000
23905.000000,16732.000000,22634.000000,58569.000000
24026.000000,16776.000000,22662.000000,58596.000000
24034.000000,16803.000000,22620.000000,58625.000000
24282.000000,16956.000000,22845.000000,58654.000000
24090.000000,16891.000000,22909.000000,58632.000000
24169.000000,16883.000000,22982.000000,58787.000000
24256.000000,16935.000000,23060.000000,58836.000000
24330.000000,17081.000000,23152.000000,58815.000000
24298.000000,17064.000000,23148.000000,58863.000000
24372.000000,17156.000000,23273.000000,58910.000000
24312.000000,17221.000000,23287.000000,58888.000000
24416.000000,17105.000000,23371.000000,58864.000000
24450.000000,17079.000000,23386.000000,58965.000000
24522.000000,17308.000000,23448.000000,58943.000000
24578.000000,17252.000000,23405.000000,58895.000000
24529.000000,17126.000000,23449.000000,58971.000000
24472.000000,17227.000000,23461.000000,58970.000000
24460.000000,17250.000000,23387.000000,58908.000000
24417.000000,17124.000000,23370.000000,58861.000000
24404.000000,17207.000000,23430.000000,58924.000000
24369.000000,17147.000000,23428.000000,58996.000000
24431.000000,17173.000000,23336.000000,58975.000000
24446.000000,17208.000000,23429.000000,59023.000000
24516.000000,17340.000000,23321.000000,58903.000000
24322.000000,16971.000000,23370.000000,58830.000000
24477.000000,17139.000000,23341.000000,58987.000000
24348.000000,17184.000000,23341.000000,58915.000000
24303.000000,17087.000000,23368.000000,58981.000000
24395.000000,17203.000000,23385.000000,58864.000000
24304.000000,17130.000000,23246.000000,58902.000000
24383.000000,17078.000000,23408.000000,58821.000000
24369.000000,17126.000000,23275.000000,58765.000000
24448.000000,17104.000000,23221.000000,58872.000000
24430.000000,17039.000000,23246.000000,58766.000000
24329.000000,17000.000000,23039.000000,58699.000000
24257.000000,16999.000000,23171.000000,58942.000000
24417.000000,17152.000000,23248.000000,58861.000000
24309.000000,17078.000000,23160.000000,58793.000000
24313.000000,17020.000000,23238.000000,58843.000000
24406.000000,17091.000000,23143.000000,58926.000000
24370.000000,17071.000000,23239.000000,58874.000000
24328.000000,17125.000000,23156.000000,58698.000000
24341.000000,17119.000000,23207.000000,58778.000000
24418.000000,17190.000000,23193.000000,58789.000000
24370.000000,17101.000000,23195.000000,58789.000000
24172.000000,17016.000000,23208.000000,58726.000000
24295.000000,17026.000000,23127.000000,58734.000000
24299.000000,16926.000000,23400.000000,58890.000000
24281.000000,17158.000000,23077.000000,58678.000000
24295.000000,17086.000000,23151.000000,58768.000000
24221.000000,17051.000000,23026.000000,58772.000000
24138.000000,16958.000000,23027.000000,58772.000000
24298.000000,17105.000000,23085.000000,58629.000000
24186.000000,17076.000000,23129.000000,58822.000000
24317.000000,17175.000000,22900.000000,58806.000000
24119.000000,17024.000000,23065.000000,58768.000000
24225.000000,16981.000000,22991.000000,58715.000000
24210.000000,16909.000000,22937.000000,58739.000000
24221.000000,16993.000000,23046.000000,58723.000000
24058.000000,16945.000000,23016.000000,58704.000000
24180.000000,17029.000000,22877.000000,58693.000000
24311.000000,16940.000000,22846.000000,58524.000000
24151.000000,16888.000000,22935.000000,58688.000000
24096.000000,16867.000000,22951.000000,58729.000000
24127.000000,16912.000000,22932.000000,58714.000000
24160.000000,17007.000000,22850.000000,58718.000000
24052.000000,16792.000000,22860.000000,58593.000000
24078.000000,16883.000000,22795.000000,58637.000000
24155.000000,16880.000000,22776.000000,58731.000000
24134.000000,16900.000000,22883.000000,58596.000000
24063.000000,16924.000000,22819.000000,58632.000000
24155.000000,16760.000000,22819.000000,58608.000000
24070.000000,17006.000000,22792.000000,58677.000000
24093.000000,16825.000000,22764.000000,58569.000000
24152.000000,16769.000000,22998.000000,58717.000000
24023.000000,16799.000000,22655.000000,58544.000000
24013.000000,16882.000000,22813.000000,58613.000000
24091.000000,16871.000000,22770.000000,58551.000000
24037.000000,16806.000000,22709.000000,58567.000000
24027.000000,16826.000000,22703.000000,58618.000000
24051.000000,16586.000000,22682.000000,58574.000000
23990.000000,16797.000000,22727.000000,58585.000000
24016.000000,16747.000000,22581.000000,58562.000000
23946.000000,16954.000000,22802.000000,58593.000000
24101.000000,16857.000000,22767.000000,58594.000000
23974.000000,16867.000000,22784.000000,58527.000000
24064.000000,16904.000000,22579.000000,58596.000000
23934.000000,16812.000000,22677.000000,58658.000000
23901.000000,16793.000000,22788.000000,58558.000000
24038.000000,16765.000000,22547.000000,58607.000000
23897.000000,16811.000000,22613.000000,58554.000000
23914.000000,16801.000000,22620.000000,58585.000000
24040.000000,16774.000000,22691.000000,58610.000000
23887.000000,16776.000000,22666.000000,58591.000000
23907.000000,16874.000000,22634.000000,58394.000000
23835.000000,16695.000000,22515.000000,58584.000000
23816.000000,16623.000000,22426.000000,58425.000000
23853.000000,16695.000000,22397.000000,58470.000000
23963.000000,16773.000000,22527.000000,58470.000000
23740.000000,16654.000000,22474.000000,58492.000000
23761.000000,16605.000000,22371.000000,58371.000000
23810.000000,16754.000000,22318.000000,58483.000000
23778.000000,16637.000000,22317.000000,58437.000000
23722.000000,16723.000000,22267.000000,58504.000000
23620.000000,16582.000000,22314.000000,58382.000000
23627.000000,16562.000000,22230.000000,58381.000000
23640.000000,16573.000000,22208.000000,58394.000000
23692.000000,16591.000000,22161.000000,58410.000000
23703.000000,16527.000000,22286.000000,58290.000000
23688.000000,16640.000000,21928.000000,58116.000000
23613.000000,16454.000000,22242.000000,58292.000000
23745.000000,16616.000000,22164.000000,58387.000000
23675.000000,16585.000000,22253.000000,58369.000000
23632.000000,16507.000000,22255.000000,58384.000000
23616.000000,16523.000000,22124.000000,58344.000000
23730.000000,16532.000000,22171.000000,58283.000000
23725.000000,16532.000000,22225.000000,58406.000000
23532.000000,16701.000000,22370.000000,58366.000000
23709.000000,16562.000000,22293.000000,58413.000000
23668.000000,16540.000000,22338.000000,58407.000000
23726.000000,16623.000000,22196.000000,58388.000000
23734.000000,16588.000000,22260.000000,58470.000000
23838.000000,16688.000000,22312.000000,58572.000000
23845.000000,16751.000000,22534.000000,58606.000000
23818.000000,16632.000000,22421.000000,58482.000000
23662.000000,16635.000000,22354.000000,58503.000000
23616.000000,16735.000000,22459.000000,58517.000000
23786.000000,16632.000000,22422.000000,58456.000000
23796.000000,16549.000000,22546.000000,58406.000000
23910.000000,16739.000000,22632.000000,58503.000000
23719.000000,16900.000000,22438.000000,58600.000000
23889.000000,16702.000000,22435.000000,58521.000000
23874.000000,16708.000000,22543.000000,58613.000000
23934.000000,16920.000000,22843.000000,58550.000000
24066.000000,16790.000000,22925.000000,58553.000000
24053.000000,16892.000000,22977.000000,58742.000000
24110.000000,16955.000000,23060.000000,58802.000000
24257.000000,16978.000000,23136.000000,58801.000000
24220.000000,17101.000000,23166.000000,58838.000000
24274.000000,17015.000000,23157.000000,58894.000000
24297.000000,17144.000000,23299.000000,59003.000000
24317.000000,17254.000000,23411.000000,58976.000000
24356.000000,17208.000000,23402.000000,59090.000000
24342.000000,17242.000000,23400.000000,58976.000000
24639.000000,17241.000000,23393.000000,59021.000000
24535.000000,17296.000000,23582.000000,59056.000000
24327.000000,17127.000000,23514.000000,58963.000000
24518.000000,17268.000000,23543.000000,58906.000000
24349.000000,17248.000000,23546.000000,59167.000000
24467.000000,17309.000000,23563.000000,58947.000000
24561.000000,17310.000000,23580.000000,59028.000000
24520.000000,17231.000000,23541.000000,59086.000000
24545.000000,17333.000000,23537.000000,58949.000000
24496.000000,17250.000000,23567.000000,59029.000000
24435.000000,17161.000000,23471.000000,58900.000000
24475.000000,17462.000000,23532.000000,59060.000000
24398.000000,17468.000000,23445.000000,59155.000000
24306.000000,17370.000000,23463.000000,59101.000000
24467.000000,17208.000000,23471.000000,58998.000000
24431.000000,17374.000000,23451.000000,59081.000000
24555.000000,17279.000000,23434.000000,59041.000000
24268.000000,17316.000000,23566.000000,58971.000000
24327.000000,17187.000000,23623.000000,58984.000000
24417.000000,17340.000000,23445.000000,58951.000000
24262.000000,17177.000000,23416.000000,58932.000000
24351.000000,17264.000000,23494.000000,58949.000000
24456.000000,17280.000000,23394.000000,58839.000000
24370.000000,17213.000000,23453.000000,58980.000000
24349.000000,17205.000000,23421.000000,59019.000000
24371.000000,17262.000000,23474.000000,59066.000000
24436.000000,17248.000000,23460.000000,58957.000000
24319.000000,17150.000000,23509.000000,58913.000000
24419.000000,17200.000000,23419.000000,58840.000000
24379.000000,17213.000000,23437.000000,58935.000000
24429.000000,17148.000000,23331.000000,58905.000000
24343.000000,17232.000000,23291.000000,58983.000000
24324.000000,16959.000000,23335.000000,59037.000000
24316.000000,17164.000000,23387.000000,58881.000000
24324.000000,17178.000000,23101.000000,58909.000000
24322.000000,17097.000000,23289.000000,58943.000000
24370.000000,17224.000000,23329.000000,58915.000000
24491.000000,17059.000000,23230.000000,58833.000000
24328.000000,17151.000000,23331.000000,58870.000000
24510.000000,17194.000000,23269.000000,58699.000000
24313.000000,17128.000000,23344.000000,58919.000000
24290.000000,17095.000000,23256.000000,58983.000000
24124.000000,17129.000000,23293.000000,58912.000000
24339.000000,17247.000000,23143.000000,58782.000000
24294.000000,17193.000000,23258.000000,58910.000000
24180.000000,17109.000000,23206.000000,58862.000000
24284.000000,17014.000000,23303.000000,58822.000000
24329.000000,17014.000000,23302.000000,58894.000000
24231.000000,17116.000000,23148.000000,58884.000000
24044.000000,17090.000000,23032.000000,58769.000000
24185.000000,17006.000000,23372.000000,58864.000000
24202.000000,17079.000000,23099.000000,58765.000000
24120.000000,17120.000000,23150.000000,58893.000000
24090.000000,16978.000000,23092.000000,58717.000000
24161.000000,17039.000000,23131.000000,58652.000000
24215.000000,17065.000000,22977.000000,58786.000000
24150.000000,17012.000000,23223.000000,58865.000000
24159.000000,16953.000000,22963.000000,58624.000000
24092.000000,16916.000000,23086.000000,58679.000000
24024.000000,16964.000000,22965.000000,58726.000000
24020.000000,16825.000000,22890.000000,58787.000000
24095.000000,16802.000000,22722.000000,58505.000000
24119.000000,17037.000000,23008.000000,58786.000000
24082.000000,16867.000000,23011.000000,58747.000000
23988.000000,16901.000000,22835.000000,58702.000000
24074.000000,16762.000000,22724.000000,58693.000000
24011.000000,17000.000000,22985.000000,58740.000000
24057.000000,16782.000000,22840.000000,58685.000000
23937.000000,16883.000000,22863.000000,58665.000000
24079.000000,16833.000000,22884.000000,58786.000000
23993.000000,16887.000000,22844.000000,58601.000000
23969.000000,16947.000000,22812.000000,58692.000000
24093.000000,16742.000000,22955.000000,58726.000000
23964.000000,16825.000000,22778.000000,58621.000000
23928.000000,16852.000000,22603.000000,58563.000000
23918.000000,16790.000000,22721.000000,58548.000000
24017.000000,16795.000000,22661.000000,58585.000000
23883.000000,16757.000000,22658.000000,58602.000000
23853.000000,16725.000000,22357.000000,58708.000000
23938.000000,16681.000000,22724.000000,58527.000000
23734.000000,16694.000000,22624.000000,58463.000000
23857.000000,16777.000000,22524.000000,58360.000000
23944.000000,16649.000000,22437.000000,58411.000000
23771.000000,16719.000000,22408.000000,58505.000000
23665.000000,16500.000000,22410.000000,58485.000000
23667.000000,16472.000000,22323.000000,58422.000000
23655.000000,16616.000000,22406.000000,58422.000000
23632.000000,16627.000000,22314.000000,58371.000000
23644.000000,16506.000000,22379.000000,58304.000000
23718.000000,16489.000000,22130.000000,58367.000000
23682.000000,16556.000000,22238.000000,58443.000000
23762.000000,16762.000000,22314.000000,58363.000000
23551.000000,16572.000000,22250.000000,58415.000000
23644.000000,16569.000000,22340.000000,58310.000000
23642.000000,16584.000000,22349.000000,58400.000000
23785.000000,16639.000000,22343.000000,58372.000000
23808.000000,16581.000000,22335.000000,58454.000000
23657.000000,16615.000000,22408.000000,58490.000000
23755.000000,16606.000000,22419.000000,58498.000000
23711.000000,16649.000000,22537.000000,58578.000000
23697.000000,16591.000000,22399.000000,58520.000000
23721.000000,16704.000000,22428.000000,58489.000000
23769.000000,16665.000000,22461.000000,58573.000000
23712.000000,16562.000000,22454.000000,58554.000000
23781.000000,16624.000000,22602.000000,58516.000000
23899.000000,16864.000000,22575.000000,58603.000000
23829.000000,16677.000000,22505.000000,58587.000000
23724.000000,16675.000000,22524.000000,58546.000000
23733.000000,16640.000000,22661.000000,58511.000000
23858.000000,16700.000000,22606.000000,58653.000000
23870.000000,16779.000000,22692.000000,58690.000000
23838.000000,16870.000000,22718.000000,58724.000000
24023.000000,16784.000000,22891.000000,58795.000000
23956.000000,16951.000000,22943.000000,58678.000000
24046.000000,16882.000000,22931.000000,58735.000000
24223.000000,16659.000000,22834.000000,58931.000000
24187.000000,16809.000000,22905.000000,59022.000000
24097.000000,16864.000000,23150.000000,58902.000000
24178.000000,17156.000000,23245.000000,58941.000000
24165.000000,17146.000000,23271.000000,58975.000000
24281.000000,17253.000000,23292.000000,58925.000000
24273.000000,17166.000000,23332.000000,59296.000000
24436.000000,17417.000000,23611.000000,59077.000000
24288.000000,17312.000000,23409.000000,58989.000000
24577.000000,17107.000000,23489.000000,59000.000000
24490.000000,17277.000000,23562.000000,59091.000000
24424.000000,17348.000000,23618.000000,59064.000000
24464.000000,17148.000000,23645.000000,59053.000000
24342.000000,17244.000000,23548.000000,59088.000000
24444.000000,17213.000000,23472.000000,58956.000000
24450.000000,17272.000000,23659.000000,59047.000000
24367.000000,17142.000000,23618.000000,59080.000000
24367.000000,17184.000000,23673.000000,58924.000000
24426.000000,17244.000000,23521.000000,58870.000000
24384.000000,17175.000000,23563.000000,58972.000000
24408.000000,17151.000000,23582.000000,58993.000000
24401.000000,17329.000000,23511.000000,58945.000000
24372.000000,17237.000000,23482.000000,59038.000000
24223.000000,17175.000000,23521.000000,59015.000000
24360.000000,16963.000000,23672.000000,58908.000000
24387.000000,17223.000000,23498.000000,59164.000000
24499.000000,17276.000000,23416.000000,59097.000000
24324.000000,17212.000000,23439.000000,58965.000000
24303.000000,17101.000000,23510.000000,59019.000000
24259.000000,17200.000000,23578.000000,58985.000000
24388.000000,17238.000000,23518.000000,58921.000000
24392.000000,17131.000000,23421.000000,58946.000000
24322.000000,17226.000000,23473.000000,58985.000000
24410.000000,17152.000000,23440.000000,58948.000000
24361.000000,17204.000000,23444.000000,59017.000000
24344.000000,17229.000000,23358.000000,59010.000000
24342.000000,17228.000000,23254.000000,58879.000000
24363.000000,17300.000000,23351.000000,58958.000000
24307.000000,17011.000000,23426.000000,58965.000000
24314.000000,17214.000000,23500.000000,58976.000000
24298.000000,17054.000000,23459.000000,58964.000000
24333.000000,16971.000000,23273.000000,58958.000000
24222.000000,17121.000000,23368.000000,59063.000000
24286.000000,17193.000000,23339.000000,58974.000000
24302.000000,17095.000000,23401.000000,58889.000000
24322.000000,17109.000000,23351.000000,58818.000000
24330.000000,17221.000000,23455.000000,58996.000000
24206.000000,17066.000000,23207.000000,58829.000000
24303.000000,17125.000000,23339.000000,58797.000000
24230.000000,17120.000000,23349.000000,58887.000000
24248.000000,17067.000000,23303.000000,58966.000000
24250.000000,17000.000000,23211.000000,58948.000000
24223.000000,17017.000000,23230.000000,59036.000000
24321.000000,17121.000000,23301.000000,58961.000000
24211.000000,17073.000000,23262.000000,58821.000000
24141.000000,17096.000000,23366.000000,58933.000000
24242.000000,17116.000000,23229.000000,58986.000000
24241.000000,16987.000000,23346.000000,58989.000000
24134.000000,16937.000000,23432.000000,58732.000000
24139.000000,17086.000000,23237.000000,58870.000000
24147.000000,17138.000000,23156.000000,58752.000000
24177.000000,16988.000000,23159.000000,58809.000000
24084.000000,16987.000000,23117.000000,58834.000000
24140.000000,16904.000000,23093.000000,58814.000000
24193.000000,16964.000000,23033.000000,58798.000000
24125.000000,17018.000000,23074.000000,58873.000000
24214.000000,17072.000000,22917.000000,58705.000000
24090.000000,16991.000000,23027.000000,58770.000000
24106.000000,16914.000000,23030.000000,58760.000000
23986.000000,16930.000000,23033.000000,58942.000000
23994.000000,16934.000000,22877.000000,58721.000000
23940.000000,16838.000000,22989.000000,58599.000000
24059.000000,16854.000000,22831.000000,58656.000000
23994.000000,16820.000000,22957.000000,58677.000000
23978.000000,16834.000000,22757.000000,58648.000000
23983.000000,16997.000000,22977.000000,58711.000000
24164.000000,16996.000000,22849.000000,58634.000000
24030.000000,16802.000000,22867.000000,58838.000000
23892.000000,16799.000000,22857.000000,58662.000000
23878.000000,16829.000000,22924.000000,58617.000000
24037.000000,16783.000000,22868.000000,58722.000000
23785.000000,16835.000000,22782.000000,58693.000000
23733.000000,16948.000000,22835.000000,58653.000000
24021.000000,16877.000000,22853.000000,58734.000000
23946.000000,16781.000000,22807.000000,58658.000000
23871.000000,16779.000000,22697.000000,58567.000000
23808.000000,16728.000000,22758.000000,58482.000000
23875.000000,16799.000000,22693.000000,58586.000000
23913.000000,16775.000000,22732.000000,58605.000000
23793.000000,16794.000000,22618.000000,58504.000000
23815.000000,16748.000000,22619.000000,58537.000000
23760.000000,16627.000000,22436.000000,58480.000000
23568.000000,16575.000000,22355.000000,58447.000000
23660.000000,16592.000000,22272.000000,58269.000000
23671.000000,16325.000000,22623.000000,58177.000000
23669.000000,16589.000000,22334.000000,58461.000000
23618.000000,16504.000000,22299.000000,58397.000000
23766.000000,16500.000000,22319.000000,58568.000000
23572.000000,16480.000000,22246.000000,58425.000000
23558.000000,16377.000000,22280.000000,58401.000000
23524.000000,16476.000000,22206.000000,58390.000000
23395.000000,16615.000000,22422.000000,58547.000000
23615.000000,16500.000000,22219.000000,58370.000000
23679.000000,16556.000000,22310.000000,58358.000000
23591.000000,16500.000000,22250.000000,58414.000000
23587.000000,16461.000000,22235.000000,58418.000000
23548.000000,16494.000000,22344.000000,58436.000000
23444.000000,16562.000000,22327.000000,58649.000000
23484.000000,16533.000000,22344.000000,58286.000000
23660.000000,16587.000000,22248.000000,58352.000000
23559.000000,16571.000000,22336.000000,58470.000000
23621.000000,16518.000000,22237.000000,58407.000000
23654.000000,16517.000000,22358.000000,58443.000000
23626.000000,16518.000000,22320.000000,58448.000000
23558.000000,16606.000000,22511.000000,58604.000000
23625.000000,16533.000000,22297.000000,58526.000000
23651.000000,16570.000000,22361.000000,58513.000000
23634.000000,16585.000000,22393.000000,58489.000000
23656.000000,16611.000000,22445.000000,58558.000000
23608.000000,16544.000000,22423.000000,58503.000000
23617.000000,16633.000000,22451.000000,58555.000000
23698.000000,16596.000000,22472.000000,58553.000000
23703.000000,16634.000000,22478.000000,58693.000000
23736.000000,16666.000000,22532.000000,58531.000000
23689.000000,16738.000000,22624.000000,58617.000000
23645.000000,16761.000000,22671.000000,58615.000000
23892.000000,16801.000000,22755.000000,58713.000000
23795.000000,16814.000000,22724.000000,58685.000000
23921.000000,16713.000000,22879.000000,58696.000000
23945.000000,16850.000000,22876.000000,58781.000000
24066.000000,16903.000000,22906.000000,58811.000000
24094.000000,16929.000000,23021.000000,58923.000000
23931.000000,16975.000000,23034.000000,58896.000000
24169.000000,17013.000000,23211.000000,58801.000000
24283.000000,17007.000000,23316.000000,58919.000000
24239.000000,17063.000000,23340.000000,59063.000000
24157.000000,17074.000000,23520.000000,58988.000000
24332.000000,17098.000000,23498.000000,59077.000000
23995.000000,17050.000000,23207.000000,59248.000000
24378.000000,17251.000000,23561.000000,59054.000000
24292.000000,17147.000000,23585.000000,59024.000000
24314.000000,17165.000000,23609.000000,59051.000000
24453.000000,17257.000000,23530.000000,59101.000000
24405.000000,17239.000000,23590.000000,59062.000000
24462.000000,17138.000000,23435.000000,59048.000000
24218.000000,17180.000000,23387.000000,58932.000000
24377.000000,17373.000000,23537.000000,59104.000000
24343.000000,17305.000000,23526.000000,59053.000000
24339.000000,17221.000000,23451.000000,59054.000000
24318.000000,17213.000000,23638.000000,58944.000000
24429.000000,17237.000000,23550.000000,59105.000000
24152.000000,17292.000000,23507.000000,59178.000000
24251.000000,17175.000000,23521.000000,59068.000000
24307.000000,17286.000000,23573.000000,58992.000000
24414.000000,17270.000000,23420.000000,59159.000000
24313.000000,17114.000000,23564.000000,59155.000000
24311.000000,17142.000000,23523.000000,59160.000000
24322.000000,17145.000000,23524.000000,59063.000000
24366.000000,17234.000000,23478.000000,59000.000000
24243.000000,17125.000000,23495.000000,58990.000000
24319.000000,17203.000000,23474.000000,59057.000000
24197.000000,17234.000000,23506.000000,59011.000000
24084.000000,17372.000000,23571.000000,58958.000000
24312.000000,17331.000000,23445.000000,58993.000000
24246.000000,17037.000000,23477.000000,59036.000000
24194.000000,17130.000000,23544.000000,58988.000000
24349.000000,17149.000000,23535.000000,59001.000000
24291.000000,17128.000000,23502.000000,59049.000000
24253.000000,17068.000000,23309.000000,59006.000000
24194.000000,17229.000000,23389.000000,59038.000000
24205.000000,17117.000000,23517.000000,59042.000000
24335.000000,17213.000000,23390.000000,59095.000000
24227.000000,17152.000000,23367.000000,59008.000000
24429.000000,17004.000000,23395.000000,59021.000000
24288.000000,17080.000000,23402.000000,58981.000000
24053.000000,17073.000000,23264.000000,58832.000000
24234.000000,17152.000000,23314.000000,58942.000000
24230.000000,17065.000000,23347.000000,59051.000000
24336.000000,17315.000000,23400.000000,58950.000000
24192.000000,17068.000000,23317.000000,58813.000000
24217.000000,17078.000000,23422.000000,59004.000000
24265.000000,17136.000000,23429.000000,59021.000000
24270.000000,17025.000000,23251.000000,59003.000000
24166.000000,17098.000000,23296.000000,58925.000000
24161.000000,17053.000000,23374.000000,58970.000000
24269.000000,17037.000000,23384.000000,58875.000000
24167.000000,16946.000000,23252.000000,58974.000000
24110.000000,16906.000000,23119.000000,58910.000000
24179.000000,17032.000000,23362.000000,58851.000000
24220.000000,17129.000000,23247.000000,59081.000000
24217.000000,16975.000000,23292.000000,58858.000000
24042.000000,16959.000000,23264.000000,58902.000000
24227.000000,17081.000000,23105.000000,58821.000000
24140.000000,17016.000000,23307.000000,58745.000000
23980.000000,16977.000000,23153.000000,58796.000000
24034.000000,16988.000000,23124.000000,59001.000000
24098.000000,16980.000000,23159.000000,58886.000000
23966.000000,17040.000000,23287.000000,59063.000000
23971.000000,16937.000000,23124.000000,58799.000000
23927.000000,16900.000000,23005.000000,58780.000000
24108.000000,17040.000000,23064.000000,58784.000000
24129.000000,17063.000000,23073.000000,58756.000000
23924.000000,16785.000000,22879.000000,58913.000000
24004.000000,16875.000000,22920.000000,58800.000000
23906.000000,16845.000000,22890.000000,58697.000000
23962.000000,16789.000000,22909.000000,58734.000000
23899.000000,16784.000000,22978.000000,58714.000000
23975.000000,16915.000000,22944.000000,58626.000000
23936.000000,16816.000000,22823.000000,58652.000000
23910.000000,16839.000000,22812.000000,58709.000000
23822.000000,16830.000000,22768.000000,58832.000000
23935.000000,16797.000000,22850.000000,58700.000000
23765.000000,16755.000000,22987.000000,58744.000000
23684.000000,16802.000000,22777.000000,58667.000000
23946.000000,16748.000000,22831.000000,58738.000000
23921.000000,16750.000000,22849.000000,58709.000000
23756.000000,16801.000000,22800.000000,58681.000000
23856.000000,16709.000000,22831.000000,58592.000000
23897.000000,16847.000000,22716.000000,58735.000000
23856.000000,16694.000000,22833.000000,58728.000000
23762.000000,16746.000000,22826.000000,58555.000000
23830.000000,16598.000000,22596.000000,58507.000000
23842.000000,16708.000000,22793.000000,58567.000000
23761.000000,16689.000000,22774.000000,58754.000000
23753.000000,16712.000000,22648.000000,58658.000000
23781.000000,16704.000000,22639.000000,58603.000000
23773.000000,16567.000000,22630.000000,58649.000000
23673.000000,16618.000000,22574.000000,58551.000000
23621.000000,16653.000000,22573.000000,58570.000000
23850.000000,16585.000000,22491.000000,58778.000000
23570.000000,16630.000000,22554.000000,58489.000000
23571.000000,16599.000000,22419.000000,58502.000000
23435.000000,16450.000000,22356.000000,58499.000000
23525.000000,16631.000000,22330.000000,58603.000000
23475.000000,16634.000000,22348.000000,58462.000000
23500.000000,16573.000000,22297.000000,58450.000000
23465.000000,16529.000000,22387.000000,58361.000000
23538.000000,16451.000000,22359.000000,58528.000000
23560.000000,16454.000000,22291.000000,58398.000000
23588.000000,16520.000000,22229.000000,58442.000000
23450.000000,16533.000000,22312.000000,58510.000000
23469.000000,16524.000000,22279.000000,58421.000000
23520.000000,16389.000000,22332.000000,58365.000000
23363.000000,16488.000000,22333.000000,58515.000000
23541.000000,16533.000000,22169.000000,58323.000000
23403.000000,16404.000000,22308.000000,58469.000000
23439.000000,16477.000000,22333.000000,58414.000000
23577.000000,16507.000000,22371.000000,58566.000000
23545.000000,16519.000000,22324.000000,58477.000000
23576.000000,16407.000000,22383.000000,58531.000000
23580.000000,16612.000000,22330.000000,58503.000000
23576.000000,16493.000000,22476.000000,58520.000000
23574.000000,16562.000000,22393.000000,58542.000000
23606.000000,16441.000000,22319.000000,58460.000000
23567.000000,16649.000000,22465.000000,58563.000000
23763.000000,16693.000000,22505.000000,58600.000000
23774.000000,16478.000000,22514.000000,58633.000000
23694.000000,16584.000000,22499.000000,58721.000000
23745.000000,16728.000000,22567.000000,58617.000000
23593.000000,16613.000000,22606.000000,58687.000000
23772.000000,16674.000000,22626.000000,58764.000000
23643.000000,16640.000000,22645.000000,58577.000000
23740.000000,16871.000000,22605.000000,58814.000000
23777.000000,16729.000000,22827.000000,58636.000000
23898.000000,16835.000000,22736.000000,58631.000000
23939.000000,16848.000000,22824.000000,58738.000000
23847.000000,16845.000000,22885.000000,58796.000000
23812.000000,16855.000000,22979.000000,58726.000000
23979.000000,16893.000000,22996.000000,58860.000000
23976.000000,16953.000000,23068.000000,58816.000000
24106.000000,17020.000000,23255.000000,58962.000000
24135.000000,16861.000000,23289.000000,58981.000000
24253.000000,17039.000000,23473.000000,59025.000000
24246.000000,17061.000000,23457.000000,59062.000000
24247.000000,17155.000000,23510.000000,59153.000000
24323.000000,17030.000000,23354.000000,58991.000000
24188.000000,17040.000000,23568.000000,59193.000000
24185.000000,17242.000000,23581.000000,58968.000000
24268.000000,17134.000000,23447.000000,59114.000000
24355.000000,17015.000000,23636.000000,59079.000000
24346.000000,17224.000000,23492.000000,59067.000000
24360.000000,17138.000000,23671.000000,59188.000000
24315.000000,17139.000000,23612.000000,59093.000000
24349.000000,17141.000000,23584.000000,59065.000000
24263.000000,17286.000000,23640.000000,59030.000000
24255.000000,17158.000000,23586.000000,59109.000000
24351.000000,17144.000000,23320.000000,59128.000000
24314.000000,17160.000000,23556.000000,59049.000000
24252.000000,17143.000000,23505.000000,59034.000000
24339.000000,17078.000000,23436.000000,59048.000000
24117.000000,17177.000000,23281.000000,59296.000000
24245.000000,17078.000000,23596.000000,59106.000000
24289.000000,17168.000000,23604.000000,59107.000000
24256.000000,17118.000000,23564.000000,58973.000000
24310.000000,17117.000000,23474.000000,59094.000000
24260.000000,17211.000000,23556.000000,58951.000000
24294.000000,17352.000000,23600.000000,58964.000000
24308.000000,17137.000000,23283.000000,59130.000000
24221.000000,17086.000000,23443.000000,59087.000000
24287.000000,16976.000000,23651.000000,58946.000000
24221.000000,17094.000000,23493.000000,59032.000000
24139.000000,16895.000000,23550.000000,59094.000000
24216.000000,16996.000000,23516.000000,58957.000000
24212.000000,17119.000000,23481.000000,59033.000000
24193.000000,17136.000000,23471.000000,59016.000000
24222.000000,17122.000000,23454.000000,58982.000000
24121.000000,17120.000000,23418.000000,59072.000000
24096.000000,17167.000000,23466.000000,58993.000000
23973.000000,16870.000000,23603.000000,59127.000000
24221.000000,17050.000000,23451.000000,58977.000000
24210.000000,17118.000000,23446.000000,59075.000000
24242.000000,16919.000000,23396.000000,58998.000000
24257.000000,17031.000000,23438.000000,59001.000000
24305.000000,17056.000000,23485.000000,58972.000000
24190.000000,16877.000000,23520.000000,58975.000000
24052.000000,17104.000000,23382.000000,58977.000000
24179.000000,17094.000000,23307.000000,59018.000000
24251.000000,17107.000000,23318.000000,58921.000000
24248.000000,17097.000000,23390.000000,58995.000000
24100.000000,17039.000000,23295.000000,58916.000000
24179.000000,17043.000000,23371.000000,58946.000000
24287.000000,16985.000000,23270.000000,59050.000000
24222.000000,17080.000000,23347.000000,58979.000000
24188.000000,16941.000000,23291.000000,58907.000000
24261.000000,17097.000000,23337.000000,58979.000000
24277.000000,17044.000000,23304.000000,59023.000000
24241.000000,17075.000000,23330.000000,58938.000000
24160.000000,16968.000000,23247.000000,58999.000000
24000.000000,17004.000000,23290.000000,59032.000000
24171.000000,16982.000000,23234.000000,58751.000000
24122.000000,16928.000000,23308.000000,58941.000000
24057.000000,16925.000000,23190.000000,59018.000000
24069.000000,16951.000000,23228.000000,58810.000000
24208.000000,16896.000000,23291.000000,58846.000000
24167.000000,17076.000000,23182.000000,59112.000000
23970.000000,16884.000000,23286.000000,58859.000000
23991.000000,16951.000000,23106.000000,58904.000000
23955.000000,16893.000000,23092.000000,58675.000000
23841.000000,16822.000000,23085.000000,58819.000000
24050.000000,17002.000000,22928.000000,58806.000000
23968.000000,16911.000000,22975.000000,58721.000000
23922.000000,16832.000000,22920.000000,58764.000000
23966.000000,16879.000000,23025.000000,58764.000000
23867.000000,16936.000000,23030.000000,58770.000000
23994.000000,16842.000000,23047.000000,58734.000000
23902.000000,16959.000000,22716.000000,58936.000000
24033.000000,16794.000000,22844.000000,58767.000000
23973.000000,16845.000000,22938.000000,58846.000000
23854.000000,16795.000000,22866.000000,58702.000000
23879.000000,16754.000000,22983.000000,58776.000000
23926.000000,16800.000000,22926.000000,58712.000000
23909.000000,16791.000000,22881.000000,58652.000000
23883.000000,16802.000000,22867.000000,58707.000000
23799.000000,16766.000000,22854.000000,58671.000000
23835.000000,16841.000000,22809.000000,58717.000000
23923.000000,16815.000000,22840.000000,58724.000000
23742.000000,16544.000000,22745.000000,58753.000000
23821.000000,16650.000000,22779.000000,58570.000000
23765.000000,16695.000000,22647.000000,58690.000000
23621.000000,16631.000000,22571.000000,58611.000000
23760.000000,16718.000000,22611.000000,58542.000000
23763.000000,16635.000000,22550.000000,58598.000000
23585.000000,16530.000000,22494.000000,58535.000000
23724.000000,16663.000000,22513.000000,58550.000000
23548.000000,16608.000000,22132.000000,58856.000000
23615.000000,16425.000000,22426.000000,58509.000000
23548.000000,16559.000000,22346.000000,58452.000000
23552.000000,16470.000000,22283.000000,58531.000000
23584.000000,16432.000000,22273.000000,58530.000000
23726.000000,16425.000000,22362.000000,58371.000000
23332.000000,16254.000000,22402.000000,58514.000000
23567.000000,16433.000000,22307.000000,58505.000000
23511.000000,16346.000000,22366.000000,58409.000000
23487.000000,16429.000000,22253.000000,58325.000000
23478.000000,16508.000000,22270.000000,58402.000000
23592.000000,16532.000000,22225.000000,58559.000000
23549.000000,16498.000000,22341.000000,58455.000000
23521.000000,16594.000000,22387.000000,58381.000000
23445.000000,16434.000000,22299.000000,58615.000000
23463.000000,16433.000000,22299.000000,58431.000000
23718.000000,16447.000000,22200.000000,58471.000000
23506.000000,16492.000000,22427.000000,58446.000000
23577.000000,16571.000000,22430.000000,58430.000000
23551.000000,16531.000000,22350.000000,58604.000000
23484.000000,16469.000000,22400.000000,58322.000000
23546.000000,16481.000000,22490.000000,58543.000000
23695.000000,16600.000000,22375.000000,58466.000000
23623.000000,16549.000000,22422.000000,58500.000000
23512.000000,16494.000000,22284.000000,58532.000000
23505.000000,16465.000000,22602.000000,58508.000000
23598.000000,16583.000000,22572.000000,58418.000000
23596.000000,16471.000000,22556.000000,58675.000000
23650.000000,16530.000000,22564.000000,58599.000000
23616.000000,16742.000000,22650.000000,58612.000000
23690.000000,16631.000000,22561.000000,58651.000000
23732.000000,16519.000000,22742.000000,58665.000000
23728.000000,16581.000000,22745.000000,58713.000000
23912.000000,16824.000000,22723.000000,58671.000000
23819.000000,16704.000000,22792.000000,58765.000000
23821.000000,16562.000000,22752.000000,58832.000000
24007.000000,16814.000000,22901.000000,58822.000000
24006.000000,16885.000000,22958.000000,58857.000000
23968.000000,16861.000000,23183.000000,58906.000000
23955.000000,16973.000000,23113.000000,58948.000000
24157.000000,16896.000000,23269.000000,58963.000000
24168.000000,17050.000000,23267.000000,58998.000000
24200.000000,17019.000000,23360.000000,59009.000000
24191.000000,17014.000000,23506.000000,59104.000000
24255.000000,17188.000000,23559.000000,59220.000000
24343.000000,17054.000000,23624.000000,59170.000000
24335.000000,17089.000000,23488.000000,59081.000000
24345.000000,17233.000000,23594.000000,59163.000000
24279.000000,17119.000000,23488.000000,59083.000000
24277.000000,17116.000000,23513.000000,59010.000000
24465.000000,17164.000000,23622.000000,59125.000000
24323.000000,17097.000000,23630.000000,59096.000000
24231.000000,17076.000000,23806.000000,59027.000000
24315.000000,17191.000000,23538.000000,59110.000000
24365.000000,17132.000000,23576.000000,59121.000000
24281.000000,17143.000000,23608.000000,59064.000000
24322.000000,17266.000000,23612.000000,59023.000000
24370.000000,17134.000000,23461.000000,59020.000000
24416.000000,17182.000000,23607.000000,58973.000000
24372.000000,17175.000000,23666.000000,59049.000000
24403.000000,17166.000000,23564.000000,59091.000000
24351.000000,17202.000000,23670.000000,59197.000000
24279.000000,17136.000000,23578.000000,59082.000000
24267.000000,17161.000000,23488.000000,59071.000000
24319.000000,17233.000000,23551.000000,59055.000000
24326.000000,17174.000000,23540.000000,59001.000000
24232.000000,17092.000000,23456.000000,59024.000000
24200.000000,17132.000000,23439.000000,59036.000000
24151.000000,17227.000000,23438.000000,58970.000000
24336.000000,17120.000000,23479.000000,59037.000000
24179.000000,17071.000000,23494.000000,59003.000000
24320.000000,17080.000000,23567.000000,59020.000000
24320.000000,17126.000000,23536.000000,59065.000000
24288.000000,17128.000000,23514.000000,59045.000000
24206.000000,16926.000000,23456.000000,58915.000000
24163.000000,17261.000000,23552.000000,59081.000000
24284.000000,17063.000000,23439.000000,59118.000000
24254.000000,17142.000000,23470.000000,59027.000000
24258.000000,17082.000000,23569.000000,59028.000000
24212.000000,17126.000000,23464.000000,59051.000000
24331.000000,17062.000000,23539.000000,58907.000000
24105.000000,17108.000000,23473.000000,59090.000000
24239.000000,17075.000000,23556.000000,59112.000000
24272.000000,17053.000000,23451.000000,59149.000000
24147.000000,17048.000000,23483.000000,58993.000000
24173.000000,17007.000000,23529.000000,59050.000000
24161.000000,17101.000000,23439.000000,58957.000000
24285.000000,17160.000000,23487.000000,58977.000000
24082.000000,17065.000000,23389.000000,58943.000000
24312.000000,17007.000000,23432.000000,59029.000000
24130.000000,17122.000000,23508.000000,58893.000000
24223.000000,17101.000000,23446.000000,58915.000000
24220.000000,17095.000000,23393.000000,59024.000000
24232.000000,17188.000000,23433.000000,59026.000000
24199.000000,16965.000000,23378.000000,58931.000000
24163.000000,17043.000000,23490.000000,58925.000000
24211.000000,17015.000000,23453.000000,58995.000000
24109.000000,17120.000000,23416.000000,59073.000000
24170.000000,16991.000000,23326.000000,58930.000000
24178.000000,17065.000000,23310.000000,58984.000000
24237.000000,17125.000000,23336.000000,58942.000000
23934.000000,16873.000000,23230.000000,58929.000000
24090.000000,16934.000000,23278.000000,58881.000000
23968.000000,17006.000000,23364.000000,58919.000000
24118.000000,16927.000000,23280.000000,58813.000000
24103.000000,17025.000000,23241.000000,58860.000000
24117.000000,16941.000000,23136.000000,58922.000000
24049.000000,16860.000000,23381.000000,58873.000000
24033.000000,17000.000000,23211.000000,58916.000000
24108.000000,17087.000000,23207.000000,58910.000000
24123.000000,17010.000000,23150.000000,58967.000000
23915.000000,16846.000000,23157.000000,58807.000000
24047.000000,16909.000000,23048.000000,58890.000000
24101.000000,17037.000000,23200.000000,58898.000000
24005.000000,17005.000000,23182.000000,58988.000000
23925.000000,16940.000000,23158.000000,58855.000000
24048.000000,16886.000000,23118.000000,58866.000000
24069.000000,16929.000000,23142.000000,58870.000000
24058.000000,16797.000000,23197.000000,58878.000000
23972.000000,16906.000000,23066.000000,58850.000000
23943.000000,16894.000000,23066.000000,58879.000000
23907.000000,16810.000000,23059.000000,58911.000000
23908.000000,16887.000000,22957.000000,58820.000000
23974.000000,16902.000000,23017.000000,58844.000000
23853.000000,16827.000000,23007.000000,58737.000000
23900.000000,16847.000000,22891.000000,58811.000000
23987.000000,16773.000000,22892.000000,58689.000000
23831.000000,16826.000000,22878.000000,58661.000000
23745.000000,16798.000000,22765.000000,58778.000000
23820.000000,16722.000000,22880.000000,58771.000000
23605.000000,16492.000000,22925.000000,58623.000000
23773.000000,16822.000000,22709.000000,58568.000000
23675.000000,16665.000000,22568.000000,58617.000000
23740.000000,16600.000000,22598.000000,58648.000000
23607.000000,16523.000000,22485.000000,58635.000000
23684.000000,16594.000000,22490.000000,58550.000000
23661.000000,16587.000000,22480.000000,58597.000000
23599.000000,16578.000000,22464.000000,58576.000000
23826.000000,16759.000000,22594.000000,58496.000000
23641.000000,16612.000000,22437.000000,58648.000000
23558.000000,16542.000000,22475.000000,58506.000000
23685.000000,16574.000000,22462.000000,58498.000000
23651.000000,16587.000000,22405.000000,58616.000000
23646.000000,16541.000000,22510.000000,58613.000000
23605.000000,16484.000000,22497.000000,58329.000000
23704.000000,16643.000000,22261.000000,58518.000000
23636.000000,16617.000000,22399.000000,58571.000000
23597.000000,16590.000000,22493.000000,58566.000000
23690.000000,16613.000000,22506.000000,58673.000000
23607.000000,16744.000000,22542.000000,58470.000000
23694.000000,16653.000000,22565.000000,58581.000000
23739.000000,16639.000000,22577.000000,58675.000000
23727.000000,16675.000000,22609.000000,58681.000000
23742.000000,16677.000000,22616.000000,58607.000000
23657.000000,16637.000000,22551.000000,58628.000000
23633.000000,16810.000000,22601.000000,58592.000000
23897.000000,16822.000000,22511.000000,58917.000000
23764.000000,16699.000000,22621.000000,58657.000000
23747.000000,16745.000000,22485.000000,58691.000000
23954.000000,16601.000000,22765.000000,58720.000000
23770.000000,16733.000000,22643.000000,58768.000000
23816.000000,16679.000000,22699.000000,58788.000000
23657.000000,16495.000000,22750.000000,58588.000000
23930.000000,16664.000000,22791.000000,58757.000000
23948.000000,16827.000000,22845.000000,58765.000000
23867.000000,16820.000000,22861.000000,58793.000000
23936.000000,16836.000000,22918.000000,58763.000000
23952.000000,16842.000000,23017.000000,58916.000000
24071.000000,16855.000000,23018.000000,58900.000000
23946.000000,16882.000000,23283.000000,58870.000000
24114.000000,16975.000000,23273.000000,58897.000000
24117.000000,16933.000000,23169.000000,59025.000000
24171.000000,17228.000000,23325.000000,59045.000000
24269.000000,17066.000000,23360.000000,58910.000000
24218.000000,17004.000000,23500.000000,59074.000000
24171.000000,17188.000000,23438.000000,59197.000000
24333.000000,17181.000000,23586.000000,59172.000000
24308.000000,17024.000000,23493.000000,59111.000000
24369.000000,17172.000000,23539.000000,59066.000000
24377.000000,17195.000000,23520.000000,59111.000000
24583.000000,17204.000000,23554.000000,59098.000000
24343.000000,17190.000000,23525.000000,59064.000000
24300.000000,17160.000000,23536.000000,59013.000000
24283.000000,17083.000000,23597.000000,59082.000000
24382.000000,17065.000000,23683.000000,59155.000000
24383.000000,17051.000000,23517.000000,59065.000000
24366.000000,17067.000000,23681.000000,58911.000000
24254.000000,16952.000000,23378.000000,59231.000000
24413.000000,17278.000000,23597.000000,59031.000000
24215.000000,17213.000000,23660.000000,59014.000000
24406.000000,17200.000000,23609.000000,59011.000000
24171.000000,17222.000000,23478.000000,58993.000000
24369.000000,17097.000000,23552.000000,59077.000000
24388.000000,17094.000000,23577.000000,59265.000000
24260.000000,16965.000000,23529.000000,59027.000000
24325.000000,17085.000000,23458.000000,59108.000000
24332.000000,17116.000000,23530.000000,59085.000000
24476.000000,17155.000000,23402.000000,58960.000000
24365.000000,17043.000000,23482.000000,59069.000000
24179.000000,17129.000000,23514.000000,59008.000000
24341.000000,17047.000000,23535.000000,59067.000000
24301.000000,17072.000000,23561.000000,59065.000000
24457.000000,17161.000000,23506.000000,59095.000000
24371.000000,17165.000000,23398.000000,59079.000000
24111.000000,17052.000000,23499.000000,59068.000000
24437.000000,17068.000000,23444.000000,59070.000000
24392.000000,17045.000000,23468.000000,59083.000000
24293.000000,17071.000000,23486.000000,59071.000000
24390.000000,17048.000000,23507.000000,59096.000000
24317.000000,17101.000000,23415.000000,59016.000000
24448.000000,17017.000000,23404.000000,59052.000000
24366.000000,17088.000000,23456.000000,59092.000000
24312.000000,16989.000000,23360.000000,59110.000000
24384.000000,17037.000000,23461.000000,59082.000000
24288.000000,17025.000000,23393.000000,59065.000000
24414.000000,17102.000000,23402.000000,59018.000000
24260.000000,17002.000000,23396.000000,59015.000000
24332.000000,17076.000000,23386.000000,59069.000000
24255.000000,16981.000000,23405.000000,59050.000000
24343.000000,17111.000000,23292.000000,59051.000000
24210.000000,17051.000000,23328.000000,59085.000000
24208.000000,16979.000000,23401.000000,58983.000000
24319.000000,16987.000000,23327.000000,58952.000000
24297.000000,17160.000000,23302.000000,58936.000000
24423.000000,16880.000000,23285.000000,58927.000000
24217.000000,16911.000000,23279.000000,58893.000000
24111.000000,16957.000000,23200.000000,59018.000000
24184.000000,16959.000000,23306.000000,59024.000000
24236.000000,16993.000000,23286.000000,58877.000000
24204.000000,16918.000000,23202.000000,58966.000000
24113.000000,16824.000000,23217.000000,58825.000000
24165.000000,16905.000000,23200.000000,58973.000000
24160.000000,16915.000000,23151.000000,58899.000000
24124.000000,16945.000000,23097.000000,58852.000000
24122.000000,16839.000000,23132.000000,58817.000000
24158.000000,17024.000000,23240.000000,58841.000000
24150.000000,16934.000000,23092.000000,58899.000000
23957.000000,16711.000000,23233.000000,58946.000000
24117.000000,16875.000000,23088.000000,58772.000000
24209.000000,16924.000000,23083.000000,58790.000000
24094.000000,16926.000000,23089.000000,58809.000000
24101.000000,16891.000000,23118.000000,58831.000000
24134.000000,16885.000000,23029.000000,58849.000000
24050.000000,16865.000000,22997.000000,58911.000000
24059.000000,16817.000000,22926.000000,58818.000000
24061.000000,16821.000000,22992.000000,58745.000000
24119.000000,16856.000000,23001.000000,58795.000000
24158.000000,16686.000000,22969.000000,58783.000000
23937.000000,16726.000000,22904.000000,58755.000000
24174.000000,16741.000000,22997.000000,58804.000000
23978.000000,16902.000000,22919.000000,58774.000000
23971.000000,16688.000000,22914.000000,58809.000000
24057.000000,16791.000000,22936.000000,58758.000000
24029.000000,16791.000000,22917.000000,58730.000000
23950.000000,16676.000000,22707.000000,58959.000000
24010.000000,16696.000000,22917.000000,58519.000000
24096.000000,16861.000000,22755.000000,59019.000000
23923.000000,16844.000000,22931.000000,58758.000000
24029.000000,16770.000000,22894.000000,58712.000000
23884.000000,16625.000000,22808.000000,58780.000000
23956.000000,16735.000000,22757.000000,58722.000000
23827.000000,16864.000000,22638.000000,58618.000000
23871.000000,16649.000000,22706.000000,58759.000000
23641.000000,16663.000000,22694.000000,58614.000000
23873.000000,16631.000000,22612.000000,58629.000000
23783.000000,16391.000000,22465.000000,58582.000000
23755.000000,16512.000000,22557.000000,58593.000000
23708.000000,16531.000000,22494.000000,58537.000000
23647.000000,16562.000000,22525.000000,58826.000000
23691.000000,16567.000000,22513.000000,58591.000000
23654.000000,16497.000000,22449.000000,58442.000000
23684.000000,16436.000000,22270.000000,58521.000000
23689.000000,16408.000000,22335.000000,58501.000000
23722.000000,16515.000000,22323.000000,58502.000000
23447.000000,16393.000000,22301.000000,58539.000000
23592.000000,16376.000000,22204.000000,58350.000000
23737.000000,16499.000000,22387.000000,58485.000000
23800.000000,16453.000000,22306.000000,58493.000000
23649.000000,16415.000000,22301.000000,58497.000000
23654.000000,16321.000000,22395.000000,58503.000000
23725.000000,16498.000000,22300.000000,58586.000000
23697.000000,16452.000000,22341.000000,58608.000000
23798.000000,16581.000000,22367.000000,58568.000000
23735.000000,16463.000000,22427.000000,58653.000000
23649.000000,16481.000000,22456.000000,58549.000000
23854.000000,16591.000000,22471.000000,58591.000000
23745.000000,16594.000000,22573.000000,58663.000000
23769.000000,16584.000000,22525.000000,58624.000000
23711.000000,16671.000000,22527.000000,58653.000000
23849.000000,16689.000000,22579.000000,58671.000000
23813.000000,16646.000000,22555.000000,58683.000000
23755.000000,16661.000000,22635.000000,58651.000000
23818.000000,16620.000000,22600.000000,58620.000000
23895.000000,16578.000000,22733.000000,58761.000000
23764.000000,16637.000000,22746.000000,58678.000000
23891.000000,16808.000000,22750.000000,58609.000000
23830.000000,16610.000000,22696.000000,58753.000000
23953.000000,16713.000000,22876.000000,58817.000000
24055.000000,16785.000000,22701.000000,58845.000000
23960.000000,16721.000000,22851.000000,58892.000000
23885.000000,16701.000000,22879.000000,58827.000000
23949.000000,16702.000000,22745.000000,58758.000000
24078.000000,16818.000000,23066.000000,58808.000000
24058.000000,16800.000000,22933.000000,58949.000000
24040.000000,16745.000000,23048.000000,58899.000000
24242.000000,16979.000000,23100.000000,58907.000000
24133.000000,16778.000000,23161.000000,59057.000000
24166.000000,16954.000000,23054.000000,59021.000000
24288.000000,16992.000000,23390.000000,59058.000000
24322.000000,17162.000000,23304.000000,59109.000000
24442.000000,17037.000000,23428.000000,59099.000000
24412.000000,17177.000000,23536.000000,59104.000000
24397.000000,17011.000000,23609.000000,59059.000000
24500.000000,17042.000000,23565.000000,59035.000000
24461.000000,17153.000000,23530.000000,59220.000000
24405.000000,17150.000000,23608.000000,59175.000000
24445.000000,17202.000000,23661.000000,59144.000000
24406.000000,17133.000000,23630.000000,59106.000000
24375.000000,17104.000000,23549.000000,59000.000000
24435.000000,17118.000000,23543.000000,59112.000000
24511.000000,17096.000000,23542.000000,59141.000000
24539.000000,17073.000000,23520.000000,59079.000000
24373.000000,17135.000000,23547.000000,59038.000000
24421.000000,17179.000000,23567.000000,59056.000000
24425.000000,17031.000000,23529.000000,59068.000000
24388.000000,17027.000000,23588.000000,59116.000000
24424.000000,17074.000000,23413.000000,59088.000000
24432.000000,17040.000000,23542.000000,59138.000000
24451.000000,17017.000000,23505.000000,59111.000000
24343.000000,16997.000000,23488.000000,59133.000000
24358.000000,17106.000000,23515.000000,59076.000000
24471.000000,17144.000000,23349.000000,59149.000000
24443.000000,16910.000000,23418.000000,59120.000000
24380.000000,17024.000000,23441.000000,59125.000000
24492.000000,17086.000000,23463.000000,59081.000000
24462.000000,17002.000000,23430.000000,59110.000000
24428.000000,17071.000000,23436.000000,59067.000000
24355.000000,17128.000000,23452.000000,59049.000000
24269.000000,17086.000000,23398.000000,59087.000000
24326.000000,16943.000000,23397.000000,58931.000000
24378.000000,16972.000000,23422.000000,59037.000000
24366.000000,17018.000000,23390.000000,58939.000000
24278.000000,16932.000000,23390.000000,58975.000000
24231.000000,16955.000000,23382.000000,58949.000000
24323.000000,16955.000000,23350.000000,58932.000000
24370.000000,16976.000000,23243.000000,59022.000000
24319.000000,17029.000000,23295.000000,58912.000000
24348.000000,16960.000000,23428.000000,59017.000000
24234.000000,16943.000000,23345.000000,59007.000000
24405.000000,17080.000000,23414.000000,59027.000000
24389.000000,16902.000000,23456.000000,59074.000000
24322.000000,16981.000000,23282.000000,58956.000000
24314.000000,16966.000000,23204.000000,58878.000000
24366.000000,17110.000000,23286.000000,59040.000000
24174.000000,16932.000000,23338.000000,59029.000000
24316.000000,16924.000000,23130.000000,59015.000000
24273.000000,16829.000000,23314.000000,58864.000000
24428.000000,16867.000000,23279.000000,58829.000000
24195.000000,16934.000000,23225.000000,58920.000000
24303.000000,16947.000000,23215.000000,59007.000000
24169.000000,16951.000000,23299.000000,59071.000000
24297.000000,16892.000000,23214.000000,58922.000000
24303.000000,16730.000000,23203.000000,58946.000000
24257.000000,17041.000000,23122.000000,58820.000000
24225.000000,16851.000000,23191.000000,58858.000000
24350.000000,16912.000000,23137.000000,58932.000000
24324.000000,16695.000000,23118.000000,58883.000000
24278.000000,16793.000000,23167.000000,58863.000000
24256.000000,16937.000000,23069.000000,58910.000000
24432.000000,16952.000000,23159.000000,58958.000000
24168.000000,16818.000000,23026.000000,58813.000000
24219.000000,16799.000000,23056.000000,58900.000000
24112.000000,16800.000000,23002.000000,58888.000000
24092.000000,16793.000000,23159.000000,58831.000000
24380.000000,16559.000000,23104.000000,58842.000000
24131.000000,16794.000000,23050.000000,58888.000000
24097.000000,16778.000000,22964.000000,58749.000000
24142.000000,16744.000000,23031.000000,58748.000000
24186.000000,16700.000000,23063.000000,58846.000000
24117.000000,16739.000000,22935.000000,58875.000000
24103.000000,16808.000000,22954.000000,58707.000000
24156.000000,16740.000000,22847.000000,58847.000000
23995.000000,16692.000000,22879.000000,58894.000000
24077.000000,16740.000000,22864.000000,58725.000000
24005.000000,16781.000000,22883.000000,58758.000000
23941.000000,16861.000000,22810.000000,58748.000000
24026.000000,16644.000000,22897.000000,58713.000000
24050.000000,16705.000000,22867.000000,58778.000000
24064.000000,16608.000000,22743.000000,58832.000000
24019.000000,16664.000000,22701.000000,58814.000000
24033.000000,16623.000000,22821.000000,58788.000000
24007.000000,16702.000000,22835.000000,58730.000000
24049.000000,16695.000000,22819.000000,58743.000000
24018.000000,16662.000000,22848.000000,58725.000000
23991.000000,16734.000000,22790.000000,58721.000000
23878.000000,16619.000000,22695.000000,58763.000000
24016.000000,16725.000000,22755.000000,58766.000000
23937.000000,16690.000000,22757.000000,58643.000000
23924.000000,16641.000000,22657.000000,58675.000000
23887.000000,16607.000000,22682.000000,58685.000000
23809.000000,16559.000000,22567.000000,58694.000000
23792.000000,16547.000000,22568.000000,58527.000000
23872.000000,16561.000000,22524.000000,58634.000000
23813.000000,16442.000000,22363.000000,58602.000000
23884.000000,16386.000000,22246.000000,58662.000000
23805.000000,16306.000000,22385.000000,58465.000000
23668.000000,16556.000000,22370.000000,58539.000000
23662.000000,16342.000000,22292.000000,58582.000000
23650.000000,16344.000000,22350.000000,58415.000000
23728.000000,16421.000000,22175.000000,58463.000000
23658.000000,16430.000000,22315.000000,58531.000000
23552.000000,16359.000000,22197.000000,58566.000000
23695.000000,16415.000000,22236.000000,58428.000000
23755.000000,16323.000000,22194.000000,58535.000000
23735.000000,16380.000000,22268.000000,58390.000000
23567.000000,16286.000000,22360.000000,58508.000000
23672.000000,16377.000000,22438.000000,58548.000000
23734.000000,16370.000000,22339.000000,58667.000000
23783.000000,16311.000000,22346.000000,58524.000000
23763.000000,16467.000000,22365.000000,58508.000000
23777.000000,16439.000000,22375.000000,58653.000000
23768.000000,16400.000000,22445.000000,58624.000000
23675.000000,16468.000000,22412.000000,58573.000000
23764.000000,16459.000000,22587.000000,58521.000000
23851.000000,16597.000000,22487.000000,58434.000000
23896.000000,16631.000000,22605.000000,58680.000000
23814.000000,16522.000000,22481.000000,58583.000000
23944.000000,16492.000000,22620.000000,58715.000000
23841.000000,16506.000000,22487.000000,58645.000000
23837.000000,16582.000000,22546.000000,58712.000000
23774.000000,16414.000000,22524.000000,58636.000000
23919.000000,16538.000000,22619.000000,58597.000000
23969.000000,16608.000000,22553.000000,58767.000000
23963.000000,16638.000000,22604.000000,58715.000000
23851.000000,16562.000000,22843.000000,58598.000000
24082.000000,16692.000000,22696.000000,58755.000000
23999.000000,16588.000000,22809.000000,58766.000000
24039.000000,16713.000000,22759.000000,58797.000000
23972.000000,16673.000000,22760.000000,59112.000000
24221.000000,16794.000000,22946.000000,58842.000000
24109.000000,16680.000000,22984.000000,58952.000000
24233.000000,16883.000000,22996.000000,58997.000000
24224.000000,16846.000000,23125.000000,58829.000000
24241.000000,16862.000000,23150.000000,59117.000000
24396.000000,16736.000000,23215.000000,58963.000000
24314.000000,16995.000000,23345.000000,59079.000000
24378.000000,16987.000000,23394.000000,58994.000000
24469.000000,17052.000000,23493.000000,58976.000000
24520.000000,17112.000000,23459.000000,59135.000000
24493.000000,16983.000000,23494.000000,59205.000000
24453.000000,17151.000000,23566.000000,59077.000000
24501.000000,17148.000000,23538.000000,59139.000000
24466.000000,17078.000000,23476.000000,59109.000000
24537.000000,17071.000000,23633.000000,59109.000000
24561.000000,17063.000000,23536.000000,59173.000000
24445.000000,17137.000000,23566.000000,59325.000000
24417.000000,17009.000000,23496.000000,59079.000000
24525.000000,17180.000000,23553.000000,59144.000000
24495.000000,17094.000000,23575.000000,59231.000000
24423.000000,17007.000000,23547.000000,59102.000000
24513.000000,17060.000000,23516.000000,59083.000000
24480.000000,17029.000000,23550.000000,59100.000000
24549.000000,17033.000000,23558.000000,59184.000000
24563.000000,17039.000000,23555.000000,59112.000000
24450.000000,17068.000000,23581.000000,59175.000000
24516.000000,16974.000000,23546.000000,59051.000000
24611.000000,17040.000000,23622.000000,59076.000000
24488.000000,17076.000000,23318.000000,59192.000000
24400.000000,17087.000000,23422.000000,59186.000000
24581.000000,17037.000000,23523.000000,59066.000000
24491.000000,17125.000000,23426.000000,59165.000000
24456.000000,17067.000000,23524.000000,59150.000000
24572.000000,17102.000000,23479.000000,59103.000000
24391.000000,16913.000000,23507.000000,59189.000000
24718.000000,16738.000000,23340.000000,59098.000000
24467.000000,17222.000000,23431.000000,59114.000000
24446.000000,17047.000000,23544.000000,59183.000000
24378.000000,16946.000000,23482.000000,59162.000000
24487.000000,16966.000000,23525.000000,59076.000000
24386.000000,16957.000000,23489.000000,59188.000000
24477.000000,17213.000000,23432.000000,59190.000000
24413.000000,17008.000000,23646.000000,59001.000000
24422.000000,17042.000000,23390.000000,59008.000000
24384.000000,16997.000000,23423.000000,59087.000000
24421.000000,16946.000000,23273.000000,59182.000000
24410.000000,16980.000000,23331.000000,59114.000000
24477.000000,16912.000000,23351.000000,58960.000000
24320.000000,16914.000000,23279.000000,58944.000000
24156.000000,16941.000000,23322.000000,59121.000000
24415.000000,16968.000000,23302.000000,58919.000000
24354.000000,16948.000000,23297.000000,59036.000000
24122.000000,16992.000000,23157.000000,59038.000000
24282.000000,16928.000000,23249.000000,58842.000000
24253.000000,16937.000000,23204.000000,58779.000000
24154.000000,16851.000000,23100.000000,59062.000000
24206.000000,16873.000000,23174.000000,58976.000000
24196.000000,16859.000000,23170.000000,58810.000000
24309.000000,16859.000000,23038.000000,58814.000000
24194.000000,16840.000000,22943.000000,58963.000000
24194.000000,16788.000000,23174.000000,58890.000000
24106.000000,16775.000000,22921.000000,58871.000000
24265.000000,16868.000000,23114.000000,58909.000000
24188.000000,16708.000000,23124.000000,58934.000000
24270.000000,16666.000000,22975.000000,58836.000000
24241.000000,16631.000000,23138.000000,58898.000000
24186.000000,16729.000000,22976.000000,58817.000000
24345.000000,16832.000000,22793.000000,58885.000000
24014.000000,16739.000000,22730.000000,58870.000000
24186.000000,16729.000000,22912.000000,58831.000000
24054.000000,16792.000000,22905.000000,58888.000000
24065.000000,16716.000000,22845.000000,58804.000000
24304.000000,16818.000000,22871.000000,58846.000000
24059.000000,16744.000000,22732.000000,58871.000000
24143.000000,16679.000000,22776.000000,58814.000000
24075.000000,16645.000000,22882.000000,58778.000000
24091.000000,16655.000000,22845.000000,58820.000000
24168.000000,16852.000000,22924.000000,58840.000000
23983.000000,16552.000000,22869.000000,58738.000000
24009.000000,16683.000000,22742.000000,58638.000000
24160.000000,16720.000000,22562.000000,58592.000000
24199.000000,16788.000000,22844.000000,58676.000000
24012.000000,16697.000000,22730.000000,58700.000000
24079.000000,16543.000000,22748.000000,58829.000000
24009.000000,16566.000000,22784.000000,58801.000000
24034.000000,16611.000000,22893.000000,58636.000000
24020.000000,16576.000000,22769.000000,58837.000000
23979.000000,16566.000000,22744.000000,58702.000000
24007.000000,16657.000000,22766.000000,58789.000000
23887.000000,16584.000000,22660.000000,58690.000000
24026.000000,16528.000000,22702.000000,58714.000000
23877.000000,16515.000000,22589.000000,58792.000000
23762.000000,16494.000000,22531.000000,58613.000000
23902.000000,16491.000000,22496.000000,58621.000000
23847.000000,16513.000000,22575.000000,58616.000000
23895.000000,16500.000000,22408.000000,58653.000000
23737.000000,16424.000000,22432.000000,58592.000000
23809.000000,16447.000000,22380.000000,58649.000000
23832.000000,16598.000000,22124.000000,58548.000000
23725.000000,16552.000000,22419.000000,58669.000000
23847.000000,16362.000000,22398.000000,58695.000000
23804.000000,16388.000000,22368.000000,58551.000000
23730.000000,16439.000000,22470.000000,58585.000000
23669.000000,16372.000000,22394.000000,58515.000000
23859.000000,16557.000000,22378.000000,58489.000000
23862.000000,16479.000000,22464.000000,58642.000000
23682.000000,16399.000000,22380.000000,58701.000000
23954.000000,16519.000000,22467.000000,58729.000000
23769.000000,16442.000000,22467.000000,58559.000000
23964.000000,16386.000000,22250.000000,58729.000000
23806.000000,16456.000000,22597.000000,58652.000000
23837.000000,16588.000000,22543.000000,58739.000000
23897.000000,16534.000000,22589.000000,58682.000000
23841.000000,16603.000000,22597.000000,58688.000000
24011.000000,16617.000000,22646.000000,58800.000000
23917.000000,16651.000000,22718.000000,58851.000000
23902.000000,16597.000000,22696.000000,58767.000000
23938.000000,16797.000000,22748.000000,58748.000000
24006.000000,16755.000000,22874.000000,58887.000000
24095.000000,16742.000000,22876.000000,58844.000000
24173.000000,16886.000000,23007.000000,58806.000000
24194.000000,16811.000000,23056.000000,58924.000000
24180.000000,16791.000000,23076.000000,58911.000000
24113.000000,16786.000000,23062.000000,59026.000000
24173.000000,16823.000000,23105.000000,59001.000000
24158.000000,16911.000000,23054.000000,59047.000000
24283.000000,16984.000000,23155.000000,58919.000000
24213.000000,16935.000000,23220.000000,59169.000000
24213.000000,16941.000000,23255.000000,59005.000000
24308.000000,16958.000000,23271.000000,59068.000000
24390.000000,17091.000000,23416.000000,59138.000000
24450.000000,17012.000000,23416.000000,59133.000000
24476.000000,17047.000000,23513.000000,59128.000000
24678.000000,17277.000000,23749.000000,59087.000000
24547.000000,17160.000000,23570.000000,59142.000000
24426.000000,16995.000000,23514.000000,59251.000000
24479.000000,17198.000000,23685.000000,59251.000000
24576.000000,17275.000000,23721.000000,59239.000000
24614.000000,17186.000000,23687.000000,59247.000000
24535.000000,17108.000000,23750.000000,59273.000000
24496.000000,17185.000000,23648.000000,59260.000000
24583.000000,17106.000000,23608.000000,59121.000000
24531.000000,17155.000000,23668.000000,59246.000000
24445.000000,17121.000000,23559.000000,59194.000000
24526.000000,16999.000000,23477.000000,59164.000000
24484.000000,17084.000000,23524.000000,59229.000000
24644.000000,17039.000000,23493.000000,59059.000000
24506.000000,16928.000000,23364.000000,59193.000000
24390.000000,17010.000000,23563.000000,59132.000000
24341.000000,16992.000000,23453.000000,59065.000000
24405.000000,16993.000000,23472.000000,59115.000000
24461.000000,16887.000000,23353.000000,59251.000000
24438.000000,17047.000000,23437.000000,59167.000000
24409.000000,16994.000000,23519.000000,59123.000000
24361.000000,16985.000000,23592.000000,59237.000000
24496.000000,16905.000000,23475.000000,59156.000000
24318.000000,16997.000000,23454.000000,59106.000000
24303.000000,16954.000000,23451.000000,59134.000000
24446.000000,16977.000000,23449.000000,59162.000000
24430.000000,16980.000000,23481.000000,59011.000000
24084.000000,17037.000000,23481.000000,59140.000000
24295.000000,16952.000000,23471.000000,59035.000000
24389.000000,16960.000000,23383.000000,59070.000000
24370.000000,16953.000000,23361.000000,59068.000000
24302.000000,17015.000000,23418.000000,59010.000000
24329.000000,16877.000000,23481.000000,59077.000000
24323.000000,16823.000000,23458.000000,58988.000000
24348.000000,16824.000000,23314.000000,59051.000000
24269.000000,16909.000000,23421.000000,58987.000000
24357.000000,16971.000000,23349.000000,59026.000000
24394.000000,16838.000000,23356.000000,59108.000000
24107.000000,16834.000000,23549.000000,59018.000000
24309.000000,16924.000000,23542.000000,59046.000000
24429.000000,16868.000000,23332.000000,59017.000000
24248.000000,16906.000000,23256.000000,59120.000000
24332.000000,16951.000000,23317.000000,58972.000000
24285.000000,16890.000000,23217.000000,58962.000000
24295.000000,16985.000000,23343.000000,59061.000000
24203.000000,16848.000000,23372.000000,59034.000000
24352.000000,16866.000000,23335.000000,58922.000000
24319.000000,16925.000000,23302.000000,59003.000000
24281.000000,16881.000000,23316.000000,58989.000000
24193.000000,16851.000000,23298.000000,59010.000000
24308.000000,16843.000000,23157.000000,59008.000000
24056.000000,16961.000000,23054.000000,58736.000000
24144.000000,16948.000000,23267.000000,58849.000000
24139.000000,16930.000000,23248.000000,58936.000000
24213.000000,16916.000000,23230.000000,58861.000000
24205.000000,16795.000000,23219.000000,58896.000000
24167.000000,16792.000000,23222.000000,58909.000000
24055.000000,16730.000000,23220.000000,58942.000000
24252.000000,16783.000000,23193.000000,58938.000000
24199.000000,16766.000000,23208.000000,58961.000000
24198.000000,16872.000000,23147.000000,58938.000000
24216.000000,16761.000000,23113.000000,58910.000000
24177.000000,16808.000000,23154.000000,58896.000000
24119.000000,16806.000000,22996.000000,58884.000000
24228.000000,16675.000000,22972.000000,58842.000000
24098.000000,16733.000000,23154.000000,58814.000000
24267.000000,16665.000000,23029.000000,58934.000000
24068.000000,16785.000000,23155.000000,58839.000000
24093.000000,16671.000000,23043.000000,58933.000000
24172.000000,16783.000000,22995.000000,58876.000000
24158.000000,16650.000000,23067.000000,58738.000000
24194.000000,16750.000000,22980.000000,58864.000000
23954.000000,16674.000000,22932.000000,58932.000000
24119.000000,16803.000000,22996.000000,58826.000000
