660nm,730nm,850nm,940nm
25171.000000,10052.000000,6794.000000,45778.000000
25232.000000,10060.000000,6777.000000,45683.000000
25037.000000,10080.000000,6855.000000,45810.000000
25012.000000,10126.000000,6748.000000,45750.000000
25216.000000,10140.000000,6701.000000,45630.000000
25049.000000,10076.000000,6790.000000,45836.000000
25052.000000,10020.000000,6738.000000,45734.000000
25032.000000,10028.000000,6683.000000,45641.000000
25019.000000,10072.000000,6752.000000,45798.000000
24984.000000,9962.000000,6871.000000,45674.000000
24995.000000,10178.000000,6709.000000,45657.000000
24848.000000,10000.000000,6690.000000,45701.000000
25062.000000,10084.000000,6749.000000,45713.000000
25074.000000,10071.000000,6725.000000,45764.000000
24960.000000,10084.000000,6650.000000,45603.000000
24889.000000,9992.000000,6799.000000,45696.000000
24990.000000,10047.000000,6652.000000,45692.000000
24966.000000,10011.000000,6831.000000,45708.000000
24915.000000,9933.000000,6580.000000,45656.000000
24929.000000,9952.000000,6579.000000,45706.000000
24857.000000,9976.000000,6570.000000,45602.000000
24900.000000,9941.000000,6630.000000,45570.000000
24888.000000,10000.000000,6622.000000,45624.000000
24963.000000,10017.000000,6722.000000,45494.000000
24797.000000,9898.000000,6431.000000,45848.000000
24838.000000,9879.000000,6573.000000,45582.000000
24774.000000,9765.000000,6651.000000,45590.000000
24794.000000,9944.000000,6584.000000,45662.000000
24748.000000,10172.000000,6431.000000,45663.000000
24919.000000,9961.000000,6502.000000,45716.000000
24835.000000,9963.000000,6594.000000,45550.000000
24791.000000,9909.000000,6544.000000,45649.000000
24748.000000,9837.000000,6488.000000,45567.000000
24877.000000,9890.000000,6449.000000,45442.000000
24751.000000,9660.000000,6507.000000,45502.000000
24734.000000,9827.000000,6228.000000,45505.000000
24620.000000,9647.000000,6339.000000,45473.000000
24589.000000,9658.000000,6289.000000,45462.000000
24508.000000,9728.000000,6300.000000,45670.000000
24608.000000,9705.000000,6335.000000,45491.000000
24641.000000,9781.000000,6440.000000,45505.000000
24489.000000,9726.000000,6361.000000,45703.000000
24493.000000,9678.000000,6391.000000,45538.000000
24522.000000,9664.000000,6308.000000,45599.000000
24533.000000,9666.000000,6161.000000,45449.000000
24626.000000,9599.000000,6331.000000,45425.000000
24539.000000,9625.000000,6351.000000,45462.000000
24591.000000,9592.000000,6352.000000,45529.000000
24664.000000,9636.000000,6321.000000,45538.000000
24497.000000,9589.000000,6297.000000,45474.000000
24419.000000,9439.000000,6192.000000,45486.000000
24511.000000,9666.000000,6302.000000,45444.000000
24551.000000,9541.000000,6157.000000,45434.000000
24639.000000,9662.000000,6163.000000,45394.000000
24455.000000,9608.000000,6034.000000,45370.000000
24589.000000,9668.000000,6174.000000,45464.000000
24555.000000,9635.000000,6337.000000,45413.000000
24530.000000,9517.000000,6137.000000,45416.000000
24363.000000,9511.000000,6127.000000,45513.000000
24424.000000,9584.000000,6092.000000,45322.000000
24374.000000,9523.000000,6056.000000,45451.000000
24356.000000,9532.000000,6027.000000,45460.000000
24400.000000,9578.000000,6112.000000,45385.000000
24281.000000,9566.000000,6074.000000,45459.000000
24470.000000,9569.000000,6153.000000,45361.000000
24345.000000,9529.000000,5958.000000,45395.000000
24464.000000,9555.000000,6036.000000,45400.000000
24285.000000,9525.000000,6004.000000,45452.000000
24450.000000,9548.000000,6070.000000,45350.000000
24411.000000,9644.000000,6128.000000,45386.000000
24436.000000,9557.000000,6028.000000,45350.000000
24346.000000,9610.000000,6081.000000,45619.000000
24413.000000,9507.000000,6126.000000,45496.000000
24356.000000,9466.000000,6155.000000,45411.000000
24436.000000,9588.000000,6134.000000,45362.000000
24229.000000,9685.000000,6124.000000,45484.000000
24562.000000,9499.000000,6129.000000,45556.000000
24445.000000,9665.000000,6196.000000,45479.000000
24458.000000,9490.000000,6170.000000,45448.000000
24407.000000,9749.000000,6126.000000,45402.000000
24598.000000,9625.000000,6198.000000,45445.000000
24514.000000,9665.000000,6334.000000,45378.000000
24674.000000,9681.000000,6279.000000,45373.000000
24451.000000,9550.000000,6132.000000,45442.000000
24548.000000,9740.000000,6252.000000,45458.000000
24567.000000,9594.000000,6424.000000,45641.000000
24487.000000,9702.000000,6340.000000,45453.000000
24556.000000,9760.000000,6369.000000,45574.000000
24630.000000,9766.000000,6394.000000,45666.000000
24706.000000,9772.000000,6395.000000,45551.000000
24657.000000,9790.000000,6543.000000,45548.000000
24616.000000,9769.000000,6395.000000,45571.000000
24752.000000,9811.000000,6411.000000,45559.000000
24829.000000,9845.000000,6556.000000,45633.000000
24779.000000,9961.000000,6595.000000,45610.000000
24904.000000,9953.000000,6636.000000,45834.000000
24946.000000,9927.000000,6652.000000,45729.000000
24953.000000,9986.000000,6744.000000,45784.000000
24919.000000,10037.000000,6840.000000,45819.000000
25078.000000,10045.000000,6826.000000,45741.000000
25081.000000,10092.000000,6778.000000,45771.000000
25150.000000,10070.000000,6869.000000,45808.000000
25224.000000,9968.000000,6835.000000,45834.000000
25250.000000,10178.000000,6988.000000,45868.000000
25176.000000,10153.000000,6960.000000,45905.000000
25265.000000,10250.000000,7011.000000,45878.000000
25252.000000,10169.000000,6972.000000,45809.000000
25259.000000,10109.000000,6946.000000,45836.000000
25248.000000,9953.000000,7019.000000,45904.000000
25180.000000,10046.000000,6941.000000,46001.000000
25253.000000,10105.000000,6948.000000,45878.000000
25226.000000,10044.000000,6960.000000,45812.000000
25141.000000,10096.000000,6829.000000,45804.000000
25290.000000,10081.000000,6795.000000,45836.000000
25249.000000,10087.000000,6914.000000,45762.000000
25103.000000,9995.000000,6927.000000,45897.000000
25210.000000,10054.000000,6913.000000,45815.000000
25127.000000,10039.000000,6936.000000,45804.000000
25156.000000,10196.000000,6870.000000,45810.000000
25163.000000,10088.000000,6910.000000,45873.000000
25011.000000,10091.000000,6815.000000,45835.000000
25143.000000,10079.000000,6812.000000,45798.000000
25194.000000,10117.000000,6831.000000,45686.000000
25098.000000,10014.000000,6712.000000,45785.000000
25056.000000,10155.000000,6822.000000,45695.000000
25008.000000,10008.000000,6826.000000,45806.000000
24963.000000,10024.000000,6773.000000,45753.000000
24986.000000,10093.000000,6739.000000,45726.000000
25032.000000,10029.000000,6787.000000,45775.000000
24899.000000,9954.000000,6559.000000,45752.000000
24983.000000,9947.000000,6630.000000,45694.000000
24862.000000,9908.000000,6648.000000,45744.000000
25012.000000,9964.000000,6650.000000,45657.000000
24978.000000,9906.000000,6585.000000,45720.000000
24952.000000,9975.000000,6474.000000,45779.000000
24930.000000,9847.000000,6541.000000,45803.000000
24949.000000,9944.000000,6622.000000,45727.000000
24859.000000,9950.000000,6534.000000,45706.000000
24966.000000,9814.000000,6604.000000,45611.000000
24812.000000,9896.000000,6636.000000,45603.000000
24865.000000,9804.000000,6499.000000,45687.000000
24810.000000,9718.000000,6510.000000,45611.000000
24791.000000,9781.000000,6678.000000,45645.000000
24779.000000,9831.000000,6549.000000,45648.000000
24820.000000,9855.000000,6416.000000,45694.000000
24728.000000,9706.000000,6545.000000,45630.000000
24714.000000,9829.000000,6546.000000,45618.000000
24887.000000,10001.000000,6442.000000,45622.000000
24782.000000,9913.000000,6471.000000,45496.000000
24688.000000,9752.000000,6456.000000,45661.000000
24815.000000,9796.000000,6403.000000,45660.000000
24754.000000,9700.000000,6336.000000,45646.000000
24685.000000,9759.000000,6315.000000,45526.000000
24734.000000,9759.000000,6306.000000,45595.000000
24705.000000,9661.000000,6372.000000,45558.000000
24612.000000,9810.000000,6473.000000,45558.000000
24618.000000,9751.000000,6331.000000,45641.000000
24544.000000,9603.000000,6164.000000,45443.000000
24576.000000,9691.000000,6353.000000,45563.000000
24564.000000,9647.000000,6306.000000,45481.000000
24637.000000,9677.000000,6378.000000,45672.000000
24548.000000,9656.000000,6249.000000,45530.000000
24580.000000,9604.000000,6224.000000,45377.000000
24643.000000,9528.000000,6299.000000,45561.000000
24448.000000,9717.000000,6335.000000,45472.000000
24561.000000,9558.000000,6092.000000,45435.000000
24592.000000,9587.000000,6200.000000,45410.000000
24605.000000,9595.000000,6145.000000,45449.000000
24531.000000,9571.000000,6243.000000,45418.000000
24647.000000,9706.000000,6094.000000,45431.000000
24431.000000,9588.000000,6120.000000,45330.000000
24560.000000,9577.000000,6104.000000,45535.000000
24365.000000,9637.000000,6148.000000,45368.000000
24509.000000,9564.000000,6218.000000,45409.000000
24442.000000,9640.000000,6198.000000,45258.000000
24435.000000,9573.000000,6083.000000,45258.000000
24325.000000,9394.000000,6018.000000,45418.000000
24512.000000,9618.000000,6095.000000,45416.000000
24492.000000,9477.000000,6073.000000,45328.000000
24323.000000,9492.000000,5981.000000,45290.000000
24336.000000,9437.000000,5907.000000,45385.000000
24415.000000,9369.000000,5772.000000,45313.000000
24313.000000,9440.000000,5914.000000,45241.000000
24323.000000,9405.000000,5955.000000,45459.000000
24234.000000,9322.000000,6003.000000,45362.000000
24380.000000,9311.000000,6029.000000,45159.000000
24203.000000,9424.000000,6067.000000,45335.000000
24278.000000,9466.000000,6044.000000,45215.000000
24390.000000,9377.000000,5917.000000,45260.000000
24385.000000,9400.000000,5881.000000,45340.000000
24193.000000,9452.000000,5894.000000,45305.000000
24352.000000,9431.000000,5961.000000,45240.000000
24348.000000,9370.000000,5942.000000,45180.000000
24470.000000,9422.000000,5888.000000,45439.000000
24263.000000,9410.000000,6042.000000,45438.000000
24351.000000,9439.000000,5932.000000,45335.000000
24331.000000,9473.000000,5928.000000,45376.000000
24309.000000,9412.000000,5926.000000,45326.000000
24238.000000,9420.000000,6062.000000,45290.000000
24447.000000,9394.000000,6024.000000,45217.000000
24288.000000,9376.000000,6016.000000,45396.000000
24332.000000,9440.000000,5992.000000,45472.000000
24344.000000,9425.000000,6017.000000,45438.000000
24437.000000,9477.000000,5938.000000,45408.000000
24410.000000,9513.000000,5989.000000,45345.000000
24466.000000,9455.000000,6034.000000,45365.000000
24395.000000,9502.000000,6065.000000,45424.000000
24479.000000,9410.000000,6172.000000,45454.000000
24545.000000,9506.000000,6206.000000,45487.000000
24533.000000,9484.000000,6194.000000,45455.000000
24720.000000,9675.000000,6231.000000,45531.000000
24510.000000,9575.000000,6319.000000,45533.000000
24659.000000,9629.000000,6342.000000,45559.000000
24760.000000,9832.000000,6352.000000,45646.000000
24761.000000,9706.000000,6398.000000,45546.000000
24954.000000,9507.000000,6752.000000,45444.000000
24786.000000,9843.000000,6458.000000,45576.000000
24941.000000,9804.000000,6298.000000,45637.000000
25031.000000,9832.000000,6551.000000,45629.000000
24986.000000,9756.000000,6567.000000,45736.000000
25031.000000,9861.000000,6637.000000,45740.000000
25009.000000,9933.000000,6656.000000,45786.000000
25081.000000,9954.000000,6599.000000,45745.000000
24977.000000,9743.000000,6753.000000,45790.000000
25167.000000,9901.000000,6670.000000,45790.000000
25294.000000,10006.000000,6843.000000,45790.000000
25202.000000,9998.000000,6816.000000,45756.000000
25102.000000,10064.000000,6940.000000,45761.000000
25234.000000,9952.000000,6861.000000,45811.000000
25188.000000,9918.000000,6881.000000,45757.000000
25116.000000,9921.000000,6786.000000,45820.000000
25190.000000,9975.000000,6875.000000,45823.000000
25196.000000,10025.000000,6844.000000,45820.000000
25162.000000,9936.000000,6852.000000,45779.000000
25145.000000,10125.000000,6873.000000,45824.000000
25177.000000,10027.000000,6769.000000,45841.000000
25151.000000,10100.000000,6832.000000,45713.000000
25167.000000,10009.000000,6714.000000,45788.000000
25111.000000,9984.000000,6770.000000,45840.000000
25131.000000,9999.000000,6737.000000,45645.000000
25107.000000,9962.000000,6737.000000,45750.000000
25087.000000,10105.000000,6872.000000,45847.000000
25163.000000,10039.000000,6682.000000,45775.000000
25034.000000,9907.000000,6711.000000,45750.000000
25090.000000,10143.000000,6767.000000,45629.000000
25045.000000,9910.000000,6625.000000,45708.000000
25034.000000,9942.000000,6693.000000,45724.000000
25124.000000,9950.000000,6600.000000,45777.000000
25004.000000,9992.000000,6525.000000,45753.000000
25136.000000,9971.000000,6651.000000,45736.000000
25008.000000,9881.000000,6676.000000,45800.000000
25010.000000,9897.000000,6697.000000,45745.000000
25184.000000,9786.000000,6860.000000,45686.000000
24968.000000,9911.000000,6730.000000,45698.000000
25027.000000,10002.000000,6610.000000,45684.000000
24954.000000,9940.000000,6660.000000,45650.000000
25000.000000,9966.000000,6563.000000,45670.000000
24971.000000,9988.000000,6618.000000,45727.000000
24856.000000,9957.000000,6576.000000,45882.000000
25008.000000,9902.000000,6667.000000,45713.000000
24921.000000,9973.000000,6595.000000,45701.000000
24990.000000,9873.000000,6613.000000,45591.000000
24959.000000,9887.000000,6546.000000,45666.000000
24900.000000,9906.000000,6664.000000,45747.000000
24827.000000,9876.000000,6553.000000,45817.000000
24953.000000,9788.000000,6547.000000,45628.000000
24960.000000,9843.000000,6569.000000,45581.000000
24851.000000,9884.000000,6548.000000,45674.000000
24892.000000,9884.000000,6539.000000,45732.000000
24875.000000,9949.000000,6558.000000,45691.000000
24849.000000,9767.000000,6553.000000,45719.000000
24847.000000,9776.000000,6525.000000,45682.000000
24772.000000,9823.000000,6549.000000,45519.000000
24824.000000,9971.000000,6537.000000,45624.000000
24784.000000,9769.000000,6567.000000,45642.000000
24768.000000,9900.000000,6371.000000,45509.000000
24704.000000,9928.000000,6523.000000,45674.000000
24788.000000,9728.000000,6510.000000,45508.000000
24826.000000,9864.000000,6545.000000,45543.000000
24508.000000,9731.000000,6436.000000,45579.000000
24719.000000,9737.000000,6445.000000,45575.000000
24713.000000,9824.000000,6474.000000,45554.000000
24761.000000,9780.000000,6408.000000,45475.000000
24651.000000,9793.000000,6305.000000,45534.000000
24695.000000,9722.000000,6430.000000,45584.000000
24663.000000,9733.000000,6426.000000,45585.000000
24761.000000,9784.000000,6389.000000,45583.000000
24740.000000,9684.000000,6524.000000,45507.000000
24722.000000,9729.000000,6396.000000,45504.000000
24686.000000,9746.000000,6260.000000,45620.000000
24692.000000,9707.000000,6283.000000,45534.000000
24569.000000,9645.000000,6351.000000,45553.000000
24760.000000,9790.000000,6331.000000,45493.000000
24673.000000,9763.000000,6579.000000,45518.000000
24689.000000,9719.000000,6322.000000,45591.000000
24507.000000,9603.000000,6302.000000,45562.000000
24602.000000,9743.000000,6333.000000,45502.000000
24654.000000,9684.000000,6323.000000,45560.000000
24549.000000,9712.000000,6328.000000,45535.000000
24508.000000,9829.000000,6447.000000,45518.000000
24726.000000,9685.000000,6259.000000,45522.000000
24574.000000,9688.000000,6238.000000,45490.000000
24597.000000,9667.000000,6231.000000,45537.000000
24434.000000,9609.000000,6206.000000,45378.000000
24599.000000,9724.000000,6210.000000,45500.000000
24490.000000,9661.000000,6238.000000,45459.000000
24498.000000,9609.000000,6176.000000,45472.000000
24459.000000,9560.000000,6146.000000,45528.000000
24458.000000,9596.000000,6188.000000,45388.000000
24399.000000,9593.000000,6149.000000,45474.000000
24449.000000,9684.000000,6225.000000,45552.000000
24423.000000,9578.000000,6199.000000,45433.000000
24543.000000,9601.000000,6202.000000,45397.000000
24469.000000,9575.000000,6318.000000,45425.000000
24467.000000,9670.000000,6089.000000,45463.000000
24295.000000,9608.000000,6216.000000,45314.000000
24537.000000,9611.000000,6247.000000,45498.000000
24505.000000,9703.000000,6228.000000,45416.000000
24473.000000,9515.000000,6195.000000,45496.000000
24552.000000,9683.000000,6425.000000,45471.000000
24551.000000,9619.000000,6310.000000,45441.000000
24724.000000,9739.000000,6236.000000,45489.000000
24475.000000,9703.000000,6367.000000,45508.000000
24607.000000,9817.000000,6314.000000,45573.000000
24625.000000,9680.000000,6475.000000,45413.000000
24561.000000,9718.000000,6287.000000,45572.000000
24524.000000,9627.000000,6430.000000,45623.000000
24641.000000,9795.000000,6368.000000,45608.000000
24755.000000,9811.000000,6449.000000,45585.000000
24682.000000,9815.000000,6529.000000,45657.000000
24594.000000,9836.000000,6402.000000,45598.000000
24698.000000,9883.000000,6588.000000,45670.000000
24825.000000,9898.000000,6525.000000,45664.000000
24736.000000,9965.000000,6496.000000,45676.000000
24783.000000,9932.000000,6542.000000,45658.000000
24871.000000,9870.000000,6718.000000,45740.000000
24824.000000,9954.000000,6678.000000,45749.000000
24911.000000,9946.000000,6698.000000,45818.000000
24890.000000,9990.000000,6665.000000,45772.000000
25006.000000,10088.000000,6874.000000,45663.000000
25122.000000,10121.000000,6817.000000,45920.000000
25059.000000,10101.000000,6989.000000,45901.000000
25058.000000,10144.000000,6971.000000,45840.000000
25046.000000,10173.000000,6991.000000,45812.000000
25184.000000,10095.000000,6953.000000,45950.000000
25120.000000,10270.000000,7107.000000,45788.000000
25206.000000,10283.000000,7008.000000,45955.000000
25264.000000,10156.000000,7105.000000,45905.000000
25299.000000,10170.000000,7196.000000,45884.000000
25270.000000,10198.000000,7163.000000,46053.000000
25247.000000,10272.000000,7194.000000,46026.000000
25371.000000,10305.000000,7125.000000,45967.000000
25329.000000,10335.000000,7114.000000,45931.000000
25392.000000,10207.000000,7119.000000,45914.000000
25321.000000,10335.000000,7086.000000,46028.000000
25339.000000,10317.000000,7120.000000,46004.000000
25302.000000,10416.000000,7133.000000,45903.000000
25245.000000,10222.000000,7104.000000,45939.000000
25257.000000,10178.000000,7162.000000,45933.000000
25240.000000,10175.000000,7106.000000,45914.000000
25264.000000,10250.000000,7097.000000,45916.000000
25157.000000,10247.000000,7167.000000,45886.000000
25162.000000,10211.000000,7060.000000,45730.000000
25211.000000,10212.000000,6946.000000,45837.000000
25225.000000,10143.000000,6987.000000,45881.000000
25176.000000,10150.000000,6977.000000,45954.000000
25128.000000,10152.000000,7006.000000,45881.000000
25143.000000,10185.000000,7018.000000,45900.000000
25114.000000,10157.000000,6993.000000,45831.000000
25073.000000,10126.000000,6952.000000,45837.000000
25204.000000,10118.000000,6854.000000,45833.000000
25070.000000,10219.000000,6992.000000,45872.000000
25084.000000,10124.000000,6909.000000,45862.000000
24987.000000,9972.000000,6850.000000,45796.000000
24978.000000,10076.000000,6784.000000,45814.000000
24987.000000,10107.000000,6819.000000,45852.000000
25136.000000,10017.000000,6784.000000,45843.000000
24947.000000,9975.000000,6760.000000,45772.000000
25012.000000,10056.000000,6812.000000,45790.000000
25016.000000,10081.000000,6802.000000,45712.000000
24945.000000,10073.000000,6599.000000,45651.000000
24994.000000,10031.000000,6856.000000,45747.000000
24977.000000,10079.000000,6796.000000,45729.000000
24984.000000,9980.000000,6582.000000,45702.000000
24888.000000,9990.000000,6578.000000,45710.000000
24933.000000,9836.000000,6738.000000,45619.000000
24905.000000,9918.000000,6753.000000,45702.000000
24853.000000,9929.000000,6742.000000,45838.000000
24838.000000,9949.000000,6643.000000,45717.000000
24737.000000,9914.000000,6612.000000,45806.000000
24874.000000,9859.000000,6617.000000,45624.000000
24768.000000,9813.000000,6582.000000,45659.000000
24802.000000,9922.000000,6612.000000,45607.000000
24677.000000,9829.000000,6587.000000,45695.000000
24870.000000,9853.000000,6534.000000,45714.000000
24619.000000,9792.000000,6555.000000,45766.000000
24659.000000,9802.000000,6526.000000,45693.000000
24720.000000,9803.000000,6490.000000,45483.000000
24783.000000,9873.000000,6507.000000,45641.000000
24797.000000,9853.000000,6556.000000,45542.000000
24672.000000,9784.000000,6459.000000,45578.000000
24506.000000,9753.000000,6458.000000,45595.000000
24649.000000,9919.000000,6482.000000,45395.000000
24663.000000,9871.000000,6477.000000,45574.000000
24619.000000,9831.000000,6396.000000,45527.000000
24603.000000,9801.000000,6479.000000,45686.000000
24643.000000,9751.000000,6406.000000,45620.000000
24632.000000,9773.000000,6426.000000,45521.000000
24590.000000,9896.000000,6282.000000,45629.000000
24624.000000,9814.000000,6375.000000,45619.000000
24698.000000,9765.000000,6323.000000,45524.000000
24684.000000,9749.000000,6462.000000,45566.000000
24548.000000,9736.000000,6417.000000,45660.000000
24700.000000,9812.000000,6346.000000,45579.000000
24588.000000,9646.000000,6375.000000,45484.000000
24602.000000,9861.000000,6360.000000,45514.000000
24580.000000,9785.000000,6459.000000,45640.000000
24561.000000,9699.000000,6260.000000,45431.000000
24413.000000,9644.000000,6325.000000,45518.000000
24497.000000,9705.000000,6351.000000,45581.000000
24523.000000,9706.000000,6326.000000,45542.000000
24462.000000,9609.000000,6149.000000,45576.000000
24410.000000,9656.000000,6176.000000,45578.000000
24368.000000,9743.000000,6252.000000,45566.000000
24458.000000,9561.000000,6253.000000,45548.000000
24438.000000,9707.000000,6316.000000,45552.000000
24340.000000,9729.000000,6140.000000,45450.000000
24409.000000,9635.000000,6189.000000,45516.000000
24423.000000,9609.000000,6037.000000,45509.000000
24398.000000,9637.000000,6189.000000,45453.000000
24456.000000,9549.000000,6282.000000,45441.000000
24317.000000,9609.000000,6036.000000,45462.000000
24413.000000,9533.000000,6174.000000,45531.000000
24403.000000,9621.000000,6227.000000,45410.000000
24407.000000,9595.000000,6130.000000,45453.000000
24489.000000,9661.000000,6240.000000,45512.000000
24333.000000,9599.000000,6220.000000,45408.000000
24512.000000,9616.000000,6199.000000,45330.000000
24372.000000,9659.000000,6267.000000,45612.000000
24392.000000,9605.000000,6172.000000,45362.000000
24402.000000,9564.000000,6335.000000,45360.000000
24470.000000,9604.000000,6323.000000,45492.000000
24467.000000,9657.000000,6306.000000,45498.000000
24362.000000,9740.000000,6222.000000,45524.000000
24530.000000,9705.000000,6355.000000,45532.000000
24561.000000,9667.000000,6356.000000,45570.000000
24511.000000,9744.000000,6390.000000,45518.000000
24479.000000,9665.000000,6348.000000,45607.000000
24678.000000,9728.000000,6408.000000,45564.000000
24663.000000,9768.000000,6414.000000,45532.000000
24589.000000,9734.000000,6543.000000,45643.000000
24641.000000,9751.000000,6536.000000,45606.000000
24645.000000,9833.000000,6579.000000,45605.000000
24604.000000,9879.000000,6562.000000,45816.000000
24671.000000,9877.000000,6549.000000,45680.000000
24698.000000,9823.000000,6612.000000,45793.000000
24646.000000,9860.000000,6600.000000,45794.000000
24805.000000,9978.000000,6789.000000,45855.000000
25017.000000,9984.000000,6767.000000,45747.000000
24985.000000,10058.000000,6726.000000,45688.000000
24929.000000,9987.000000,7024.000000,45788.000000
24987.000000,10094.000000,6906.000000,45794.000000
24955.000000,10125.000000,6975.000000,45789.000000
25014.000000,10046.000000,6965.000000,45938.000000
24817.000000,10046.000000,6936.000000,45927.000000
25214.000000,10150.000000,7141.000000,46019.000000
25087.000000,10052.000000,7110.000000,45962.000000
25200.000000,10370.000000,7178.000000,45971.000000
25217.000000,10198.000000,7183.000000,45939.000000
25249.000000,10215.000000,7099.000000,46031.000000
25157.000000,10175.000000,7294.000000,45901.000000
25135.000000,10217.000000,7148.000000,46110.000000
25178.000000,10270.000000,7214.000000,45961.000000
25127.000000,10352.000000,7177.000000,45950.000000
25158.000000,10149.000000,7035.000000,45969.000000
25211.000000,10278.000000,7000.000000,46134.000000
25164.000000,10197.000000,7046.000000,45897.000000
25215.000000,10327.000000,7180.000000,45923.000000
25152.000000,10193.000000,6940.000000,45979.000000
25144.000000,10209.000000,7085.000000,45930.000000
25208.000000,10176.000000,7139.000000,45995.000000
25190.000000,10201.000000,7032.000000,45996.000000
25100.000000,10049.000000,7054.000000,45995.000000
25082.000000,10211.000000,6990.000000,45892.000000
25116.000000,10115.000000,7013.000000,45953.000000
25231.000000,10141.000000,7101.000000,45962.000000
24998.000000,10144.000000,6968.000000,45811.000000
25059.000000,10087.000000,7006.000000,45886.000000
25108.000000,10246.000000,7095.000000,46020.000000
24990.000000,10004.000000,6941.000000,45880.000000
24992.000000,10058.000000,7041.000000,45908.000000
24995.000000,10191.000000,6947.000000,45821.000000
25120.000000,10058.000000,6996.000000,45869.000000
25024.000000,10088.000000,6878.000000,45900.000000
24978.000000,10055.000000,6896.000000,45865.000000
24936.000000,10048.000000,6834.000000,45915.000000
24896.000000,10056.000000,6881.000000,45875.000000
25029.000000,10088.000000,6883.000000,45829.000000
24864.000000,9990.000000,6882.000000,45755.000000
24980.000000,10019.000000,6802.000000,45830.000000
24842.000000,10011.000000,6850.000000,45794.000000
24916.000000,10038.000000,6995.000000,45788.000000
24775.000000,10034.000000,6839.000000,45607.000000
24830.000000,10013.000000,6910.000000,45755.000000
24846.000000,10041.000000,6779.000000,45711.000000
24938.000000,10053.000000,6738.000000,45788.000000
24919.000000,9911.000000,6722.000000,45749.000000
24819.000000,9957.000000,6738.000000,45728.000000
24785.000000,9997.000000,6700.000000,45788.000000
24640.000000,10041.000000,6678.000000,45807.000000
24793.000000,9858.000000,6647.000000,45774.000000
24829.000000,9848.000000,6729.000000,45730.000000
24811.000000,9862.000000,6778.000000,45707.000000
24758.000000,10006.000000,6667.000000,45854.000000
24599.000000,9852.000000,6693.000000,45694.000000
24768.000000,9888.000000,6655.000000,45876.000000
24672.000000,9881.000000,6671.000000,45681.000000
24691.000000,9837.000000,6698.000000,45661.000000
24714.000000,9834.000000,6556.000000,45710.000000
24629.000000,9788.000000,6584.000000,45746.000000
24694.000000,9808.000000,6617.000000,45697.000000
24550.000000,9716.000000,6570.000000,45672.000000
24684.000000,9806.000000,6558.000000,45636.000000
24527.000000,9681.000000,6611.000000,45641.000000
24648.000000,9762.000000,6571.000000,45704.000000
24558.000000,9698.000000,6520.000000,45679.000000
24657.000000,9808.000000,6508.000000,45690.000000
24589.000000,9803.000000,6634.000000,45683.000000
24484.000000,9819.000000,6519.000000,45607.000000
24458.000000,9818.000000,6518.000000,45572.000000
24475.000000,9716.000000,6441.000000,45659.000000
24583.000000,9763.000000,6518.000000,45565.000000
24508.000000,9680.000000,6399.000000,45580.000000
24452.000000,9720.000000,6454.000000,45634.000000
24420.000000,9688.000000,6463.000000,45726.000000
24491.000000,9730.000000,6371.000000,45530.000000
24450.000000,9689.000000,6340.000000,45608.000000
24555.000000,9680.000000,6512.000000,45668.000000
24444.000000,9703.000000,6399.000000,45522.000000
24449.000000,9588.000000,6424.000000,45640.000000
24459.000000,9474.000000,6291.000000,45522.000000
24308.000000,9538.000000,6376.000000,45566.000000
24343.000000,9629.000000,6307.000000,45545.000000
24379.000000,9570.000000,6278.000000,45629.000000
24351.000000,9575.000000,6209.000000,45552.000000
24288.000000,9522.000000,6181.000000,45545.000000
24324.000000,9610.000000,6366.000000,45471.000000
24339.000000,9638.000000,6220.000000,45519.000000
24124.000000,9564.000000,6232.000000,45513.000000
24201.000000,9520.000000,6212.000000,45525.000000
24301.000000,9544.000000,6211.000000,45563.000000
24353.000000,9576.000000,6171.000000,45436.000000
24245.000000,9579.000000,6249.000000,45504.000000
24394.000000,9634.000000,6272.000000,45573.000000
24406.000000,9640.000000,6201.000000,45447.000000
24311.000000,9586.000000,6266.000000,45531.000000
24156.000000,9504.000000,6253.000000,45529.000000
24275.000000,9496.000000,6260.000000,45489.000000
24271.000000,9613.000000,6304.000000,45500.000000
24365.000000,9592.000000,6272.000000,45538.000000
24208.000000,9437.000000,6405.000000,45451.000000
24357.000000,9589.000000,6276.000000,45538.000000
24530.000000,9629.000000,6144.000000,45557.000000
24326.000000,9669.000000,6333.000000,45539.000000
24319.000000,9662.000000,6281.000000,45514.000000
24417.000000,9647.000000,6359.000000,45480.000000
24294.000000,9664.000000,6335.000000,45563.000000
24450.000000,9621.000000,6360.000000,45571.000000
24351.000000,9584.000000,6338.000000,45669.000000
24471.000000,9713.000000,6502.000000,45657.000000
24554.000000,9695.000000,6444.000000,45610.000000
24361.000000,9689.000000,6466.000000,45587.000000
24476.000000,9653.000000,6517.000000,45711.000000
24568.000000,9773.000000,6558.000000,45653.000000
24591.000000,9793.000000,6504.000000,45664.000000
24630.000000,9871.000000,6543.000000,45736.000000
24579.000000,9797.000000,6695.000000,45843.000000
24624.000000,9849.000000,6676.000000,45614.000000
24730.000000,9891.000000,6664.000000,45825.000000
24580.000000,9930.000000,6745.000000,45843.000000
24681.000000,9919.000000,6787.000000,45811.000000
24767.000000,9900.000000,6832.000000,45894.000000
24881.000000,10091.000000,6846.000000,45864.000000
24778.000000,10100.000000,6869.000000,45807.000000
24886.000000,9996.000000,6908.000000,45789.000000
24838.000000,10123.000000,6944.000000,45839.000000
24896.000000,10091.000000,7046.000000,45969.000000
24956.000000,10130.000000,6954.000000,45929.000000
24987.000000,10052.000000,7093.000000,46005.000000
24940.000000,10077.000000,7104.000000,45999.000000
24963.000000,10089.000000,7093.000000,45920.000000
24971.000000,10112.000000,7070.000000,45954.000000
24953.000000,10125.000000,7075.000000,46081.000000
25033.000000,10170.000000,7175.000000,45921.000000
25013.000000,10124.000000,7058.000000,45973.000000
24857.000000,10099.000000,7056.000000,45888.000000
24935.000000,10119.000000,7063.000000,45921.000000
24938.000000,10045.000000,6996.000000,45922.000000
24887.000000,10134.000000,6983.000000,45950.000000
24879.000000,10006.000000,6997.000000,45877.000000
24874.000000,10108.000000,7017.000000,45943.000000
24950.000000,10043.000000,6907.000000,45874.000000
24879.000000,10054.000000,6910.000000,45916.000000
24757.000000,9981.000000,6886.000000,45901.000000
24797.000000,10014.000000,6955.000000,45857.000000
24813.000000,9924.000000,6857.000000,45879.000000
24856.000000,10010.000000,6861.000000,45859.000000
24905.000000,9868.000000,6844.000000,45878.000000
24804.000000,9936.000000,6852.000000,45807.000000
24921.000000,9939.000000,6873.000000,45690.000000
24770.000000,10010.000000,6855.000000,45773.000000
24692.000000,9954.000000,6692.000000,45691.000000
24837.000000,9978.000000,6842.000000,45767.000000
24812.000000,9915.000000,6874.000000,45876.000000
24725.000000,9882.000000,6854.000000,45794.000000
24789.000000,9881.000000,6746.000000,45850.000000
24762.000000,9869.000000,6747.000000,45896.000000
24716.000000,9953.000000,6763.000000,45758.000000
24652.000000,9920.000000,6735.000000,45724.000000
24660.000000,9853.000000,6630.000000,45767.000000
24636.000000,9907.000000,6690.000000,45826.000000
24600.000000,9867.000000,6725.000000,45700.000000
24551.000000,9839.000000,6709.000000,45869.000000
24619.000000,9814.000000,6691.000000,45743.000000
24687.000000,9852.000000,6692.000000,45758.000000
24616.000000,9848.000000,6794.000000,45890.000000
24581.000000,9873.000000,6718.000000,45801.000000
24516.000000,9859.000000,6693.000000,45771.000000
24516.000000,9857.000000,6675.000000,45627.000000
24577.000000,9933.000000,6682.000000,45650.000000
24513.000000,9764.000000,6697.000000,45724.000000
24628.000000,9853.000000,6569.000000,45666.000000
24620.000000,9835.000000,6634.000000,45595.000000
24535.000000,9876.000000,6624.000000,45758.000000
24404.000000,9886.000000,6588.000000,45628.000000
24531.000000,9829.000000,6599.000000,45663.000000
24496.000000,9796.000000,6605.000000,45745.000000
24529.000000,9819.000000,6599.000000,45704.000000
24353.000000,9708.000000,6490.000000,45594.000000
24501.000000,9774.000000,6552.000000,45704.000000
24358.000000,9763.000000,6550.000000,45693.000000
24347.000000,9833.000000,6587.000000,45742.000000
24420.000000,9819.000000,6682.000000,45612.000000
24492.000000,9867.000000,6511.000000,45651.000000
24356.000000,9789.000000,6450.000000,45595.000000
24394.000000,9784.000000,6541.000000,45687.000000
24477.000000,9759.000000,6420.000000,45622.000000
24448.000000,9671.000000,6534.000000,45727.000000
24462.000000,9772.000000,6555.000000,45740.000000
24269.000000,9769.000000,6556.000000,45589.000000
24422.000000,9736.000000,6505.000000,45525.000000
24407.000000,9689.000000,6515.000000,45700.000000
24331.000000,9745.000000,6493.000000,45603.000000
24418.000000,9622.000000,6592.000000,45773.000000
24282.000000,9618.000000,6557.000000,45661.000000
24310.000000,9672.000000,6435.000000,45584.000000
24311.000000,9710.000000,6485.000000,45572.000000
24309.000000,9754.000000,6435.000000,45655.000000
24287.000000,9686.000000,6410.000000,45615.000000
24324.000000,9637.000000,6407.000000,45576.000000
24239.000000,9578.000000,6421.000000,45707.000000
24248.000000,9612.000000,6542.000000,45640.000000
24214.000000,9553.000000,6510.000000,45562.000000
24253.000000,9562.000000,6304.000000,45564.000000
24127.000000,9664.000000,6319.000000,45559.000000
24143.000000,9735.000000,6346.000000,45577.000000
24148.000000,9519.000000,6309.000000,45587.000000
24187.000000,9485.000000,6316.000000,45644.000000
24202.000000,9516.000000,6327.000000,45470.000000
24093.000000,9556.000000,6240.000000,45597.000000
24005.000000,9438.000000,6248.000000,45472.000000
24197.000000,9554.000000,6230.000000,45520.000000
24081.000000,9536.000000,6331.000000,45603.000000
24040.000000,9582.000000,6323.000000,45549.000000
24094.000000,9533.000000,6279.000000,45574.000000
24117.000000,9551.000000,6357.000000,45533.000000
24212.000000,9615.000000,6287.000000,45536.000000
24085.000000,9433.000000,6401.000000,45651.000000
24140.000000,9548.000000,6395.000000,45512.000000
24186.000000,9601.000000,6452.000000,45498.000000
24149.000000,9576.000000,6313.000000,45520.000000
24065.000000,9575.000000,6282.000000,45613.000000
24206.000000,9567.000000,6393.000000,45569.000000
24047.000000,9645.000000,6295.000000,45705.000000
24222.000000,9672.000000,6401.000000,45600.000000
24075.000000,9447.000000,6350.000000,45592.000000
24278.000000,9705.000000,6443.000000,45548.000000
24307.000000,9735.000000,6534.000000,45631.000000
24258.000000,9796.000000,6461.000000,45593.000000
24300.000000,9654.000000,6495.000000,45652.000000
24329.000000,9672.000000,6501.000000,45696.000000
24290.000000,9730.000000,6494.000000,45590.000000
24402.000000,9744.000000,6624.000000,45744.000000
24401.000000,9767.000000,6685.000000,45761.000000
24295.000000,9810.000000,6669.000000,45835.000000
24336.000000,9779.000000,6601.000000,45763.000000
24407.000000,9873.000000,6800.000000,45773.000000
24381.000000,9731.000000,6733.000000,45754.000000
24495.000000,9879.000000,6719.000000,45718.000000
24563.000000,9910.000000,6890.000000,45891.000000
24637.000000,9928.000000,6792.000000,45859.000000
24549.000000,9894.000000,6922.000000,45827.000000
24696.000000,9864.000000,6939.000000,45935.000000
24663.000000,9977.000000,6937.000000,46002.000000
24709.000000,10048.000000,7022.000000,45854.000000
24791.000000,9957.000000,7115.000000,45970.000000
24881.000000,10034.000000,7090.000000,45983.000000
24843.000000,10148.000000,7057.000000,45986.000000
24888.000000,10029.000000,7135.000000,46033.000000
24697.000000,10123.000000,7277.000000,45964.000000
24874.000000,10095.000000,7162.000000,46109.000000
24738.000000,10070.000000,7111.000000,45919.000000
24667.000000,10016.000000,7167.000000,46061.000000
24844.000000,10029.000000,7212.000000,45943.000000
24806.000000,10157.000000,7054.000000,45980.000000
24824.000000,10105.000000,7176.000000,45936.000000
24738.000000,10073.000000,7259.000000,45965.000000
24741.000000,10083.000000,7036.000000,46051.000000
24842.000000,10075.000000,7018.000000,46052.000000
24805.000000,10100.000000,7090.000000,45939.000000
24769.000000,10027.000000,6974.000000,45986.000000
24807.000000,10039.000000,6995.000000,46002.000000
24739.000000,10037.000000,7062.000000,46013.000000
24682.000000,9930.000000,7015.000000,45948.000000
24699.000000,10004.000000,7126.000000,45860.000000
24701.000000,10015.000000,7021.000000,46001.000000
24688.000000,9975.000000,6981.000000,45931.000000
24588.000000,9993.000000,6965.000000,45883.000000
24527.000000,9891.000000,6848.000000,45987.000000
24644.000000,9943.000000,6992.000000,46063.000000
24547.000000,10011.000000,6852.000000,45812.000000
24674.000000,10088.000000,6891.000000,45783.000000
24399.000000,9845.000000,6927.000000,45817.000000
24506.000000,9918.000000,6939.000000,45877.000000
24598.000000,9898.000000,6768.000000,45894.000000
24598.000000,9846.000000,6835.000000,45879.000000
24481.000000,9770.000000,6819.000000,45797.000000
24475.000000,9872.000000,6757.000000,45816.000000
24476.000000,9797.000000,6707.000000,45823.000000
24348.000000,9822.000000,6827.000000,45829.000000
24384.000000,9807.000000,6714.000000,45859.000000
24419.000000,9758.000000,6760.000000,45895.000000
24313.000000,9824.000000,6767.000000,45684.000000
24392.000000,9707.000000,6725.000000,45708.000000
24352.000000,9829.000000,6646.000000,45667.000000
24241.000000,9693.000000,6640.000000,45924.000000
24326.000000,9862.000000,6639.000000,45690.000000
24298.000000,9729.000000,6654.000000,45799.000000
24201.000000,9648.000000,6672.000000,45710.000000
24296.000000,9666.000000,6586.000000,45653.000000
24253.000000,9713.000000,6591.000000,45749.000000
24091.000000,9715.000000,6588.000000,45736.000000
24204.000000,9540.000000,6485.000000,45582.000000
24208.000000,9676.000000,6545.000000,45696.000000
24190.000000,9672.000000,6473.000000,45737.000000
24111.000000,9680.000000,6383.000000,45628.000000
24202.000000,9556.000000,6382.000000,45643.000000
24209.000000,9684.000000,6455.000000,45654.000000
24149.000000,9577.000000,6455.000000,45628.000000
24063.000000,9629.000000,6477.000000,45675.000000
24115.000000,9583.000000,6410.000000,45590.000000
24185.000000,9511.000000,6312.000000,45630.000000
24196.000000,9553.000000,6386.000000,45654.000000
24142.000000,9485.000000,6292.000000,45640.000000
24146.000000,9579.000000,6363.000000,45607.000000
24087.000000,9435.000000,6315.000000,45552.000000
24081.000000,9525.000000,6319.000000,45671.000000
24072.000000,9507.000000,6287.000000,45563.000000
24201.000000,9466.000000,6354.000000,45570.000000
24076.000000,9530.000000,6268.000000,45654.000000
24034.000000,9518.000000,6362.000000,45616.000000
24067.000000,9447.000000,6257.000000,45401.000000
24026.000000,9470.000000,6258.000000,45442.000000
23907.000000,9388.000000,6288.000000,45607.000000
23971.000000,9614.000000,6312.000000,45465.000000
23975.000000,9287.000000,6206.000000,45593.000000
23920.000000,9425.000000,6247.000000,45551.000000
23970.000000,9479.000000,6252.000000,45613.000000
23912.000000,9503.000000,6239.000000,45483.000000
23908.000000,9400.000000,6176.000000,45428.000000
23941.000000,9436.000000,6263.000000,45529.000000
23931.000000,9361.000000,6244.000000,45552.000000
23889.000000,9492.000000,6263.000000,45544.000000
23891.000000,9306.000000,6167.000000,45529.000000
23921.000000,9434.000000,6218.000000,45430.000000
23822.000000,9422.000000,6209.000000,45476.000000
23829.000000,9384.000000,6105.000000,45438.000000
23840.000000,9333.000000,6162.000000,45535.000000
23904.000000,9271.000000,6123.000000,45482.000000
23731.000000,9405.000000,6071.000000,45484.000000
23750.000000,9320.000000,6162.000000,45519.000000
23829.000000,9426.000000,6100.000000,45540.000000
23777.000000,9455.000000,6132.000000,45545.000000
23769.000000,9346.000000,6209.000000,45466.000000
23673.000000,9391.000000,6191.000000,45471.000000
23771.000000,9355.000000,6189.000000,45508.000000
23806.000000,9402.000000,6151.000000,45416.000000
23810.000000,9403.000000,6199.000000,45431.000000
23687.000000,9385.000000,6045.000000,45576.000000
23795.000000,9411.000000,6185.000000,45523.000000
23817.000000,9418.000000,6231.000000,45562.000000
23817.000000,9442.000000,6154.000000,45482.000000
23715.000000,9283.000000,6218.000000,45576.000000
23735.000000,9436.000000,6207.000000,45515.000000
23734.000000,9439.000000,6295.000000,45584.000000
23808.000000,9485.000000,6073.000000,45517.000000
23721.000000,9457.000000,6308.000000,45511.000000
23855.000000,9417.000000,6325.000000,45528.000000
23927.000000,9502.000000,6299.000000,45457.000000
23901.000000,9541.000000,6343.000000,45624.000000
23848.000000,9485.000000,6413.000000,45527.000000
23958.000000,9500.000000,6415.000000,45611.000000
23910.000000,9489.000000,6305.000000,45600.000000
23914.000000,9562.000000,6321.000000,45681.000000
23970.000000,9474.000000,6365.000000,45588.000000
24069.000000,9514.000000,6552.000000,45660.000000
24122.000000,9720.000000,6482.000000,45718.000000
23985.000000,9613.000000,6492.000000,45686.000000
24039.000000,9582.000000,6534.000000,45788.000000
24145.000000,9713.000000,6589.000000,45701.000000
24193.000000,9729.000000,6635.000000,45687.000000
24089.000000,9680.000000,6588.000000,45788.000000
24255.000000,9647.000000,6667.000000,45808.000000
24317.000000,9620.000000,6716.000000,45836.000000
24339.000000,9698.000000,6778.000000,45829.000000
24357.000000,9849.000000,6860.000000,45777.000000
24358.000000,9810.000000,6858.000000,45771.000000
24416.000000,9892.000000,6906.000000,45909.000000
24474.000000,9869.000000,6928.000000,45908.000000
24475.000000,9862.000000,6997.000000,45969.000000
24609.000000,9921.000000,7001.000000,45918.000000
24532.000000,9944.000000,7073.000000,45985.000000
24613.000000,9981.000000,6985.000000,46058.000000
24454.000000,9999.000000,7095.000000,45943.000000
24594.000000,9988.000000,7063.000000,46016.000000
24534.000000,10106.000000,7079.000000,45993.000000
24585.000000,10034.000000,7117.000000,46041.000000
24523.000000,10025.000000,7071.000000,45984.000000
24523.000000,9966.000000,7080.000000,45990.000000
24547.000000,10069.000000,7118.000000,45932.000000
24589.000000,10034.000000,7095.000000,45972.000000
24577.000000,9975.000000,6999.000000,45959.000000
24441.000000,9964.000000,7149.000000,45996.000000
24539.000000,10074.000000,7084.000000,45924.000000
24594.000000,9912.000000,6999.000000,45950.000000
24450.000000,9960.000000,6967.000000,45868.000000
24440.000000,9995.000000,7094.000000,46031.000000
24487.000000,9826.000000,6932.000000,45907.000000
24527.000000,9930.000000,6999.000000,45923.000000
24354.000000,9899.000000,6942.000000,45916.000000
24379.000000,9953.000000,6940.000000,45890.000000
24444.000000,9978.000000,6861.000000,45951.000000
24394.000000,9779.000000,7020.000000,45910.000000
24397.000000,9866.000000,6961.000000,45876.000000
24413.000000,9862.000000,6874.000000,45939.000000
24454.000000,9875.000000,6905.000000,45920.000000
24462.000000,9844.000000,6896.000000,45950.000000
24295.000000,9835.000000,6788.000000,45740.000000
24396.000000,9814.000000,6833.000000,45856.000000
24350.000000,9783.000000,6888.000000,45997.000000
24419.000000,9867.000000,6918.000000,45843.000000
24272.000000,9759.000000,6800.000000,45844.000000
24250.000000,9793.000000,6829.000000,45824.000000
24212.000000,9826.000000,6840.000000,45801.000000
24154.000000,9729.000000,6834.000000,45797.000000
24239.000000,9659.000000,6702.000000,45778.000000
24189.000000,9758.000000,6714.000000,45678.000000
24205.000000,9720.000000,6715.000000,45732.000000
24355.000000,9696.000000,6681.000000,45768.000000
24239.000000,9594.000000,6724.000000,45776.000000
24145.000000,9767.000000,6705.000000,45804.000000
24281.000000,9680.000000,6721.000000,45730.000000
24145.000000,9643.000000,6648.000000,45689.000000
24124.000000,9722.000000,6568.000000,45709.000000
24182.000000,9777.000000,6780.000000,45812.000000
24131.000000,9775.000000,6682.000000,45822.000000
23947.000000,9656.000000,6640.000000,45707.000000
24073.000000,9659.000000,6643.000000,45686.000000
24051.000000,9612.000000,6562.000000,45667.000000
24020.000000,9675.000000,6572.000000,45706.000000
23963.000000,9558.000000,6356.000000,45698.000000
23951.000000,9705.000000,6561.000000,45663.000000
24027.000000,9571.000000,6559.000000,45782.000000
24080.000000,9657.000000,6598.000000,45695.000000
24004.000000,9501.000000,6569.000000,45643.000000
24010.000000,9648.000000,6544.000000,45707.000000
24011.000000,9604.000000,6646.000000,45690.000000
24029.000000,9532.000000,6497.000000,45688.000000
23870.000000,9580.000000,6593.000000,45667.000000
23969.000000,9538.000000,6530.000000,45650.000000
24009.000000,9559.000000,6519.000000,45715.000000
24074.000000,9556.000000,6473.000000,45633.000000
24072.000000,9476.000000,6370.000000,45579.000000
24017.000000,9429.000000,6431.000000,45649.000000
24041.000000,9589.000000,6415.000000,45681.000000
23880.000000,9544.000000,6471.000000,45700.000000
23787.000000,9469.000000,6317.000000,45564.000000
23921.000000,9584.000000,6393.000000,45558.000000
23947.000000,9404.000000,6476.000000,45673.000000
23774.000000,9539.000000,6365.000000,45622.000000
23814.000000,9434.000000,6332.000000,45600.000000
23854.000000,9549.000000,6389.000000,45702.000000
23811.000000,9494.000000,6454.000000,45701.000000
23766.000000,9455.000000,6368.000000,45545.000000
23703.000000,9487.000000,6325.000000,45518.000000
23650.000000,9349.000000,6377.000000,45554.000000
23717.000000,9414.000000,6390.000000,45545.000000
23733.000000,9490.000000,6297.000000,45582.000000
23721.000000,9425.000000,6307.000000,45556.000000
23649.000000,9398.000000,6265.000000,45566.000000
23740.000000,9397.000000,6330.000000,45500.000000
23703.000000,9466.000000,6288.000000,45578.000000
23636.000000,9471.000000,6260.000000,45617.000000
23529.000000,9379.000000,6283.000000,45502.000000
23632.000000,9388.000000,6291.000000,45539.000000
23648.000000,9471.000000,6285.000000,45455.000000
23608.000000,9346.000000,6250.000000,45478.000000
23555.000000,9407.000000,6304.000000,45532.000000
23526.000000,9414.000000,6312.000000,45536.000000
23672.000000,9468.000000,6374.000000,45522.000000
23694.000000,9395.000000,6315.000000,45545.000000
23556.000000,9371.000000,6366.000000,45447.000000
23657.000000,9408.000000,6290.000000,45554.000000
23764.000000,9399.000000,6198.000000,45490.000000
23595.000000,9423.000000,6295.000000,45609.000000
23653.000000,9384.000000,6323.000000,45508.000000
23702.000000,9417.000000,6337.000000,45614.000000
23716.000000,9404.000000,6347.000000,45663.000000
23787.000000,9440.000000,6442.000000,45587.000000
23663.000000,9429.000000,6363.000000,45717.000000
23836.000000,9456.000000,6433.000000,45723.000000
23876.000000,9658.000000,6423.000000,45670.000000
23677.000000,9525.000000,6564.000000,45660.000000
23891.000000,9508.000000,6272.000000,45708.000000
23920.000000,9485.000000,6531.000000,45718.000000
23825.000000,9530.000000,6558.000000,45700.000000
23916.000000,9578.000000,6478.000000,45673.000000
23920.000000,9589.000000,6502.000000,45648.000000
23953.000000,9710.000000,6701.000000,45781.000000
24076.000000,9784.000000,6733.000000,45742.000000
23946.000000,9700.000000,6706.000000,45780.000000
23923.000000,9653.000000,6756.000000,45878.000000
24253.000000,9665.000000,6737.000000,45768.000000
24020.000000,9732.000000,6866.000000,45815.000000
24120.000000,9773.000000,6765.000000,45806.000000
24092.000000,9712.000000,6848.000000,45999.000000
24149.000000,9840.000000,6968.000000,45894.000000
24299.000000,9870.000000,6906.000000,45950.000000
24279.000000,9837.000000,6961.000000,45958.000000
24239.000000,9965.000000,7084.000000,46000.000000
24364.000000,9897.000000,7037.000000,45989.000000
24367.000000,9949.000000,7089.000000,46058.000000
24384.000000,9980.000000,7125.000000,45938.000000
24427.000000,10042.000000,7151.000000,46055.000000
24565.000000,9927.000000,7127.000000,46000.000000
24549.000000,10010.000000,7182.000000,46006.000000
24405.000000,10038.000000,7160.000000,46156.000000
24515.000000,10069.000000,7251.000000,46045.000000
24481.000000,10047.000000,7314.000000,46072.000000
24549.000000,10120.000000,7260.000000,46114.000000
24584.000000,10032.000000,7205.000000,46040.000000
24499.000000,9992.000000,7291.000000,45986.000000
24536.000000,9959.000000,7213.000000,45969.000000
24521.000000,10214.000000,7267.000000,46016.000000
24413.000000,10059.000000,7189.000000,46027.000000
24448.000000,10061.000000,7233.000000,46163.000000
24459.000000,10052.000000,7085.000000,45990.000000
24450.000000,10096.000000,7155.000000,45964.000000
24282.000000,9923.000000,7094.000000,46060.000000
24462.000000,9979.000000,7192.000000,46078.000000
24450.000000,10036.000000,7063.000000,45979.000000
24437.000000,9941.000000,7113.000000,46004.000000
24276.000000,9915.000000,7064.000000,46001.000000
24217.000000,10004.000000,7010.000000,45963.000000
24272.000000,9977.000000,6974.000000,45938.000000
24242.000000,9876.000000,7038.000000,45954.000000
24225.000000,9905.000000,7037.000000,46005.000000
24364.000000,9978.000000,7066.000000,45917.000000
24236.000000,9858.000000,7067.000000,45931.000000
24430.000000,9913.000000,7033.000000,45884.000000
24346.000000,9838.000000,6927.000000,45870.000000
24292.000000,10033.000000,6865.000000,45944.000000
24171.000000,9870.000000,6913.000000,45950.000000
24174.000000,9750.000000,6881.000000,45945.000000
24139.000000,9788.000000,6961.000000,45936.000000
24252.000000,9869.000000,6965.000000,45939.000000
24091.000000,9864.000000,6931.000000,45885.000000
24107.000000,9794.000000,6918.000000,45823.000000
24146.000000,9716.000000,6869.000000,45898.000000
24238.000000,9773.000000,6816.000000,45843.000000
24057.000000,9758.000000,6874.000000,45877.000000
24021.000000,9790.000000,6884.000000,45879.000000
24078.000000,9796.000000,6873.000000,45688.000000
24083.000000,9832.000000,6742.000000,45757.000000
24042.000000,9756.000000,6812.000000,45763.000000
24030.000000,9608.000000,6777.000000,45737.000000
24039.000000,9713.000000,6776.000000,45686.000000
24061.000000,9695.000000,6857.000000,45793.000000
24024.000000,9678.000000,6746.000000,45758.000000
23845.000000,9584.000000,6689.000000,45768.000000
23982.000000,9613.000000,6701.000000,45700.000000
23986.000000,9671.000000,6670.000000,45724.000000
24055.000000,9717.000000,6618.000000,45796.000000
23934.000000,9558.000000,6594.000000,45727.000000
24029.000000,9652.000000,6721.000000,45754.000000
23927.000000,9747.000000,6753.000000,45715.000000
24080.000000,9585.000000,6675.000000,45835.000000
23886.000000,9614.000000,6666.000000,45746.000000
23869.000000,9697.000000,6632.000000,45664.000000
23890.000000,9738.000000,6560.000000,45727.000000
23955.000000,9727.000000,6609.000000,45711.000000
23775.000000,9601.000000,6524.000000,45676.000000
23862.000000,9722.000000,6506.000000,45669.000000
23828.000000,9475.000000,6415.000000,45781.000000
23799.000000,9533.000000,6553.000000,45609.000000
23760.000000,9426.000000,6562.000000,45687.000000
23840.000000,9600.000000,6465.000000,45668.000000
23846.000000,9534.000000,6554.000000,45704.000000
23716.000000,9616.000000,6621.000000,45852.000000
23688.000000,9515.000000,6501.000000,45726.000000
23770.000000,9662.000000,6508.000000,45642.000000
23700.000000,9553.000000,6429.000000,45660.000000
23679.000000,9569.000000,6577.000000,45614.000000
23729.000000,9412.000000,6450.000000,45593.000000
23756.000000,9555.000000,6489.000000,45647.000000
23755.000000,9515.000000,6477.000000,45690.000000
23580.000000,9468.000000,6478.000000,45729.000000
23645.000000,9432.000000,6438.000000,45583.000000
23603.000000,9501.000000,6396.000000,45704.000000
23652.000000,9462.000000,6352.000000,45581.000000
23532.000000,9426.000000,6428.000000,45580.000000
23614.000000,9430.000000,6316.000000,45580.000000
23583.000000,9416.000000,6265.000000,45703.000000
23578.000000,9445.000000,6415.000000,45530.000000
23567.000000,9374.000000,6338.000000,45641.000000
23597.000000,9424.000000,6361.000000,45454.000000
23632.000000,9417.000000,6283.000000,45620.000000
23611.000000,9392.000000,6368.000000,45601.000000
23526.000000,9388.000000,6383.000000,45572.000000
23560.000000,9412.000000,6264.000000,45633.000000
23466.000000,9411.000000,6299.000000,45536.000000
23580.000000,9373.000000,6367.000000,45626.000000
23553.000000,9378.000000,6384.000000,45539.000000
23562.000000,9422.000000,6412.000000,45737.000000
23525.000000,9467.000000,6335.000000,45640.000000
23644.000000,9387.000000,6300.000000,45644.000000
23575.000000,9335.000000,6419.000000,45723.000000
23590.000000,9433.000000,6452.000000,45587.000000
23702.000000,9493.000000,6338.000000,45530.000000
23602.000000,9493.000000,6422.000000,45706.000000
23632.000000,9533.000000,6462.000000,45670.000000
23650.000000,9521.000000,6540.000000,45521.000000
23720.000000,9563.000000,6540.000000,45632.000000
23764.000000,9508.000000,6500.000000,45657.000000
23696.000000,9473.000000,6510.000000,45691.000000
23803.000000,9584.000000,6648.000000,45714.000000
23841.000000,9559.000000,6598.000000,45785.000000
23826.000000,9588.000000,6562.000000,45708.000000
23792.000000,9577.000000,6639.000000,45768.000000
23897.000000,9627.000000,6664.000000,45739.000000
23902.000000,9715.000000,6644.000000,45855.000000
23890.000000,9735.000000,6777.000000,45873.000000
23915.000000,9724.000000,6816.000000,45874.000000
24080.000000,9728.000000,6796.000000,45732.000000
24013.000000,9807.000000,6789.000000,45857.000000
24032.000000,9680.000000,6892.000000,45868.000000
24133.000000,9815.000000,6912.000000,45909.000000
24165.000000,9822.000000,6945.000000,45778.000000
24281.000000,9858.000000,6999.000000,45901.000000
24256.000000,9911.000000,7025.000000,45946.000000
24358.000000,9887.000000,7010.000000,45947.000000
24404.000000,9919.000000,7157.000000,46054.000000
24324.000000,9948.000000,7127.000000,46020.000000
24428.000000,9913.000000,7200.000000,45969.000000
24392.000000,10001.000000,7262.000000,46042.000000
24466.000000,10047.000000,7228.000000,46198.000000
24475.000000,10068.000000,7297.000000,46025.000000
24457.000000,9959.000000,7186.000000,46163.000000
24518.000000,10102.000000,7272.000000,46049.000000
24594.000000,9928.000000,7314.000000,46174.000000
24559.000000,10182.000000,7287.000000,46205.000000
24552.000000,10153.000000,7280.000000,46095.000000
24526.000000,10002.000000,7261.000000,46125.000000
24433.000000,10071.000000,7199.000000,46228.000000
24490.000000,10178.000000,7272.000000,46097.000000
24394.000000,10085.000000,7304.000000,46006.000000
24457.000000,10070.000000,7150.000000,46094.000000
24422.000000,10059.000000,7292.000000,46051.000000
24451.000000,9980.000000,7241.000000,46026.000000
24389.000000,9991.000000,7147.000000,46188.000000
24407.000000,9995.000000,7156.000000,46070.000000
24373.000000,10070.000000,7216.000000,46027.000000
24426.000000,10094.000000,7186.000000,46064.000000
24277.000000,9956.000000,7102.000000,46117.000000
24334.000000,10050.000000,7174.000000,46014.000000
24417.000000,9931.000000,7154.000000,46014.000000
24298.000000,10027.000000,7091.000000,45966.000000
24355.000000,9952.000000,7141.000000,46007.000000
24350.000000,9967.000000,7080.000000,45959.000000
24247.000000,9913.000000,7079.000000,46002.000000
24294.000000,9931.000000,7100.000000,45974.000000
24243.000000,9865.000000,6955.000000,46100.000000
24165.000000,9898.000000,7014.000000,45980.000000
24287.000000,9976.000000,7037.000000,45918.000000
24112.000000,9849.000000,6948.000000,45996.000000
24183.000000,9812.000000,7002.000000,45919.000000
24281.000000,9818.000000,7032.000000,45963.000000
24254.000000,9841.000000,6894.000000,46013.000000
24144.000000,9848.000000,6951.000000,45985.000000
24184.000000,9814.000000,6905.000000,45832.000000
24182.000000,9883.000000,7009.000000,45863.000000
24093.000000,9730.000000,6917.000000,45901.000000
24064.000000,9799.000000,6986.000000,45869.000000
24081.000000,9779.000000,6873.000000,45844.000000
24184.000000,9838.000000,6869.000000,45872.000000
24051.000000,9758.000000,6884.000000,45863.000000
24156.000000,9766.000000,6852.000000,45886.000000
24139.000000,9808.000000,6913.000000,45897.000000
23965.000000,9742.000000,6805.000000,46073.000000
24084.000000,9723.000000,6814.000000,45815.000000
23878.000000,9793.000000,6737.000000,45753.000000
24092.000000,9780.000000,6797.000000,45813.000000
24018.000000,9707.000000,6810.000000,45863.000000
24018.000000,9648.000000,6899.000000,45792.000000
23966.000000,9612.000000,6829.000000,45763.000000
24061.000000,9757.000000,6664.000000,45888.000000
23990.000000,9695.000000,6836.000000,45822.000000
23920.000000,9718.000000,6764.000000,45790.000000
23908.000000,9727.000000,6775.000000,45924.000000
23962.000000,9566.000000,6692.000000,45911.000000
23937.000000,9688.000000,6794.000000,45931.000000
23888.000000,9703.000000,6708.000000,45831.000000
23828.000000,9636.000000,6788.000000,45749.000000
23881.000000,9700.000000,6719.000000,45761.000000
23893.000000,9623.000000,6655.000000,45824.000000
23855.000000,9642.000000,6652.000000,45760.000000
23848.000000,9602.000000,6663.000000,45753.000000
23871.000000,9631.000000,6690.000000,45720.000000
23879.000000,9715.000000,6596.000000,45678.000000
23836.000000,9653.000000,6702.000000,45801.000000
23920.000000,9608.000000,6597.000000,45661.000000
23832.000000,9643.000000,6561.000000,45663.000000
23811.000000,9535.000000,6616.000000,45767.000000
23810.000000,9569.000000,6637.000000,45679.000000
23757.000000,9618.000000,6525.000000,45706.000000
23732.000000,9583.000000,6593.000000,45631.000000
23802.000000,9534.000000,6499.000000,45724.000000
23610.000000,9493.000000,6571.000000,45630.000000
23706.000000,9539.000000,6552.000000,45740.000000
23694.000000,9577.000000,6495.000000,45657.000000
23675.000000,9573.000000,6536.000000,45647.000000
23635.000000,9501.000000,6545.000000,45734.000000
23768.000000,9611.000000,6463.000000,45636.000000
23689.000000,9567.000000,6367.000000,45720.000000
23698.000000,9506.000000,6435.000000,45661.000000
23606.000000,9336.000000,6462.000000,45690.000000
23662.000000,9561.000000,6469.000000,45607.000000
23651.000000,9571.000000,6440.000000,45674.000000
23686.000000,9575.000000,6468.000000,45646.000000
23658.000000,9495.000000,6548.000000,45761.000000
23719.000000,9495.000000,6500.000000,45621.000000
23664.000000,9412.000000,6496.000000,45717.000000
23558.000000,9559.000000,6517.000000,45691.000000
23633.000000,9559.000000,6427.000000,45712.000000
23746.000000,9565.000000,6543.000000,45705.000000
23655.000000,9615.000000,6648.000000,45649.000000
23758.000000,9556.000000,6595.000000,45655.000000
23647.000000,9540.000000,6554.000000,45711.000000
23785.000000,9511.000000,6619.000000,45702.000000
23678.000000,9637.000000,6545.000000,45713.000000
23737.000000,9669.000000,6687.000000,45701.000000
23794.000000,9564.000000,6569.000000,45780.000000
23849.000000,9701.000000,6709.000000,45679.000000
23875.000000,9629.000000,6645.000000,45778.000000
23890.000000,9693.000000,6662.000000,45785.000000
23759.000000,9598.000000,6801.000000,45773.000000
23925.000000,9687.000000,6775.000000,45849.000000
23863.000000,9657.000000,6727.000000,45804.000000
23919.000000,9751.000000,6867.000000,45728.000000
24011.000000,9609.000000,6715.000000,45867.000000
24056.000000,9825.000000,6839.000000,45853.000000
24059.000000,9641.000000,6902.000000,45861.000000
24053.000000,9761.000000,6963.000000,45938.000000
23944.000000,9663.000000,7081.000000,45984.000000
24217.000000,9871.000000,7012.000000,45966.000000
24214.000000,9824.000000,7050.000000,45927.000000
24225.000000,9927.000000,7097.000000,45977.000000
24196.000000,9984.000000,6975.000000,45973.000000
24329.000000,10020.000000,7225.000000,46108.000000
24287.000000,9977.000000,7195.000000,45983.000000
24319.000000,9976.000000,7213.000000,46052.000000
24410.000000,10031.000000,7249.000000,46090.000000
24378.000000,10118.000000,7279.000000,45973.000000
24504.000000,10118.000000,7306.000000,46075.000000
24413.000000,10108.000000,7213.000000,46140.000000
24565.000000,10205.000000,7346.000000,46149.000000
24579.000000,10225.000000,7366.000000,46123.000000
24566.000000,10179.000000,7384.000000,46160.000000
24592.000000,10144.000000,7350.000000,46185.000000
24560.000000,10106.000000,7395.000000,46182.000000
24526.000000,10107.000000,7411.000000,46106.000000
24636.000000,10161.000000,7389.000000,46282.000000
24619.000000,10211.000000,7411.000000,46130.000000
24598.000000,10034.000000,7416.000000,46165.000000
24581.000000,10055.000000,7328.000000,46164.000000
24513.000000,10171.000000,7358.000000,46126.000000
24587.000000,10126.000000,7357.000000,46109.000000
24576.000000,10123.000000,7302.000000,46157.000000
24524.000000,10089.000000,7266.000000,46044.000000
24579.000000,10144.000000,7373.000000,46073.000000
24453.000000,10054.000000,7328.000000,46113.000000
24374.000000,10079.000000,7163.000000,45982.000000
24421.000000,10015.000000,7103.000000,46063.000000
24536.000000,10052.000000,7260.000000,46012.000000
24501.000000,10116.000000,7314.000000,46054.000000
24448.000000,10099.000000,7153.000000,46212.000000
24333.000000,10034.000000,7167.000000,45987.000000
24406.000000,10015.000000,7161.000000,46019.000000
24315.000000,10025.000000,7186.000000,46113.000000
24341.000000,9989.000000,7183.000000,46076.000000
24271.000000,9908.000000,7126.000000,46005.000000
24378.000000,10007.000000,7100.000000,45982.000000
24258.000000,9969.000000,7134.000000,45986.000000
24291.000000,10061.000000,6903.000000,45977.000000
24212.000000,9903.000000,7043.000000,45919.000000
24252.000000,9924.000000,7063.000000,46005.000000
24311.000000,9969.000000,7092.000000,45972.000000
24088.000000,9838.000000,6957.000000,45972.000000
24275.000000,9916.000000,6994.000000,45949.000000
24268.000000,9914.000000,7116.000000,46007.000000
24137.000000,9937.000000,6959.000000,46023.000000
24015.000000,9900.000000,7016.000000,45911.000000
24316.000000,9823.000000,6965.000000,45977.000000
24136.000000,9986.000000,7005.000000,45925.000000
24151.000000,9910.000000,6988.000000,45949.000000
24156.000000,9783.000000,7003.000000,45982.000000
24134.000000,9882.000000,7037.000000,45940.000000
24201.000000,9806.000000,6951.000000,45878.000000
24155.000000,9837.000000,6953.000000,45949.000000
24098.000000,9762.000000,6891.000000,45900.000000
24156.000000,9856.000000,7005.000000,45877.000000
24124.000000,9870.000000,6817.000000,45854.000000
24057.000000,9890.000000,6962.000000,45853.000000
24057.000000,9755.000000,6924.000000,45854.000000
23969.000000,9860.000000,6849.000000,45923.000000
24176.000000,9781.000000,6864.000000,45835.000000
23970.000000,9839.000000,6881.000000,45956.000000
23976.000000,9714.000000,6809.000000,45806.000000
24005.000000,9779.000000,6735.000000,45877.000000
23988.000000,9702.000000,6770.000000,45863.000000
24035.000000,9744.000000,6771.000000,45774.000000
23958.000000,9671.000000,6701.000000,45894.000000
24023.000000,9774.000000,6841.000000,45822.000000
24011.000000,9730.000000,6764.000000,45884.000000
23996.000000,9749.000000,6816.000000,45794.000000
23880.000000,9763.000000,6680.000000,45851.000000
24021.000000,9745.000000,6759.000000,45872.000000
23990.000000,9697.000000,6762.000000,45801.000000
23966.000000,9647.000000,6727.000000,45792.000000
23873.000000,9622.000000,6791.000000,45811.000000
23982.000000,9706.000000,6687.000000,45859.000000
23929.000000,9540.000000,6702.000000,45735.000000
23849.000000,9735.000000,6724.000000,45795.000000
23816.000000,9607.000000,6663.000000,45741.000000
23850.000000,9656.000000,6586.000000,45765.000000
23796.000000,9637.000000,6680.000000,45882.000000
23795.000000,9688.000000,6661.000000,45739.000000
23826.000000,9611.000000,6568.000000,45729.000000
23771.000000,9599.000000,6652.000000,45694.000000
23753.000000,9503.000000,6603.000000,45717.000000
23674.000000,9489.000000,6598.000000,45782.000000
23759.000000,9574.000000,6559.000000,45762.000000
23755.000000,9509.000000,6553.000000,45751.000000
23757.000000,9600.000000,6556.000000,45688.000000
23714.000000,9602.000000,6572.000000,45638.000000
23688.000000,9538.000000,6575.000000,45744.000000
23704.000000,9637.000000,6581.000000,45755.000000
23818.000000,9551.000000,6570.000000,45675.000000
23742.000000,9605.000000,6534.000000,45819.000000
23760.000000,9579.000000,6575.000000,45743.000000
23870.000000,9426.000000,6581.000000,45654.000000
23689.000000,9547.000000,6722.000000,45739.000000
23791.000000,9542.000000,6605.000000,45684.000000
23728.000000,9594.000000,6456.000000,45814.000000
23733.000000,9595.000000,6618.000000,45742.000000
23803.000000,9776.000000,6628.000000,45763.000000
23838.000000,9603.000000,6538.000000,45736.000000
23905.000000,9640.000000,6682.000000,45798.000000
23808.000000,9675.000000,6715.000000,45780.000000
23885.000000,9667.000000,6705.000000,45799.000000
23919.000000,9630.000000,6692.000000,45787.000000
23973.000000,9693.000000,6616.000000,45719.000000
23941.000000,9656.000000,6736.000000,45837.000000
23944.000000,9721.000000,6675.000000,45860.000000
23931.000000,9583.000000,6810.000000,45785.000000
23999.000000,9659.000000,6856.000000,45821.000000
24002.000000,9798.000000,6798.000000,45957.000000
23979.000000,9839.000000,6967.000000,45825.000000
24027.000000,9747.000000,6938.000000,45858.000000
24085.000000,9784.000000,7001.000000,45995.000000
24215.000000,9868.000000,7022.000000,45952.000000
24192.000000,9806.000000,7102.000000,46067.000000
24088.000000,9893.000000,7128.000000,46041.000000
24282.000000,10050.000000,7103.000000,45962.000000
24299.000000,10044.000000,7112.000000,46040.000000
24242.000000,9941.000000,6991.000000,46219.000000
24334.000000,10009.000000,7198.000000,46049.000000
24429.000000,10058.000000,7265.000000,46087.000000
24437.000000,10094.000000,7274.000000,46143.000000
24406.000000,10021.000000,7348.000000,46012.000000
24466.000000,10169.000000,7225.000000,46100.000000
24472.000000,10088.000000,7331.000000,46199.000000
24523.000000,10143.000000,7273.000000,46160.000000
24509.000000,9954.000000,7375.000000,46060.000000
24571.000000,10109.000000,7349.000000,46143.000000
24602.000000,10106.000000,7384.000000,46128.000000
24611.000000,10081.000000,7413.000000,46173.000000
24450.000000,10043.000000,7221.000000,46148.000000
24518.000000,10146.000000,7358.000000,46189.000000
24476.000000,10250.000000,7307.000000,46185.000000
24442.000000,10063.000000,7298.000000,46107.000000
24406.000000,10054.000000,7287.000000,46175.000000
24517.000000,10021.000000,7207.000000,46079.000000
24344.000000,10121.000000,7209.000000,46026.000000
24373.000000,10134.000000,7389.000000,46094.000000
24370.000000,10047.000000,7172.000000,46019.000000
24445.000000,10029.000000,7211.000000,46074.000000
24317.000000,10006.000000,7123.000000,46061.000000
24373.000000,9989.000000,7076.000000,46072.000000
24298.000000,9952.000000,7106.000000,46038.000000
24312.000000,9917.000000,7096.000000,46065.000000
24303.000000,9931.000000,7096.000000,46003.000000
24297.000000,9924.000000,7195.000000,45995.000000
24440.000000,9971.000000,7121.000000,46037.000000
24279.000000,10002.000000,7093.000000,46017.000000
24227.000000,9894.000000,7079.000000,45994.000000
24224.000000,9992.000000,7071.000000,46009.000000
24190.000000,9905.000000,7003.000000,45923.000000
24136.000000,9872.000000,7049.000000,45994.000000
24196.000000,9954.000000,7056.000000,45886.000000
24230.000000,9735.000000,6996.000000,45984.000000
24053.000000,9827.000000,6950.000000,45899.000000
24225.000000,9831.000000,6983.000000,45899.000000
24097.000000,9825.000000,6965.000000,45941.000000
24020.000000,9848.000000,6905.000000,46022.000000
24051.000000,9781.000000,6846.000000,45910.000000
24057.000000,9745.000000,6917.000000,45972.000000
24041.000000,9802.000000,6896.000000,45895.000000
24021.000000,9733.000000,6832.000000,45901.000000
23984.000000,9784.000000,6772.000000,45763.000000
24023.000000,9750.000000,6870.000000,45915.000000
23963.000000,9681.000000,6844.000000,45872.000000
23888.000000,9752.000000,6790.000000,45843.000000
23954.000000,9726.000000,6757.000000,45809.000000
24006.000000,9680.000000,6762.000000,45841.000000
23909.000000,9687.000000,6716.000000,45882.000000
23814.000000,9562.000000,6739.000000,45785.000000
23916.000000,9676.000000,6652.000000,45803.000000
23926.000000,9779.000000,6697.000000,45814.000000
23909.000000,9630.000000,6700.000000,45796.000000
23771.000000,9451.000000,6676.000000,45792.000000
23956.000000,9573.000000,6601.000000,45784.000000
23788.000000,9624.000000,6571.000000,45848.000000
23686.000000,9565.000000,6629.000000,45756.000000
23703.000000,9581.000000,6495.000000,45704.000000
23883.000000,9648.000000,6524.000000,45771.000000
23822.000000,9515.000000,6466.000000,45735.000000
23712.000000,9528.000000,6560.000000,45761.000000
23612.000000,9498.000000,6467.000000,45783.000000
23779.000000,9496.000000,6528.000000,45839.000000
23825.000000,9513.000000,6471.000000,45695.000000
23742.000000,9538.000000,6534.000000,45729.000000
23645.000000,9540.000000,6444.000000,45711.000000
23799.000000,9419.000000,6514.000000,45751.000000
23699.000000,9450.000000,6535.000000,45767.000000
23617.000000,9395.000000,6396.000000,45855.000000
23618.000000,9493.000000,6429.000000,45715.000000
23649.000000,9419.000000,6515.000000,45688.000000
23660.000000,9563.000000,6452.000000,45664.000000
23552.000000,9412.000000,6444.000000,45674.000000
23620.000000,9497.000000,6355.000000,45515.000000
23614.000000,9383.000000,6449.000000,45635.000000
23580.000000,9370.000000,6331.000000,45739.000000
23587.000000,9381.000000,6392.000000,45554.000000
23565.000000,9314.000000,6299.000000,45522.000000
23641.000000,9414.000000,6341.000000,45656.000000
23558.000000,9470.000000,6402.000000,45656.000000
23415.000000,9393.000000,6409.000000,45633.000000
23364.000000,9294.000000,6266.000000,45567.000000
23515.000000,9358.000000,6233.000000,45532.000000
23455.000000,9402.000000,6271.000000,45552.000000
23407.000000,9286.000000,6322.000000,45561.000000
23413.000000,9344.000000,6242.000000,45475.000000
23482.000000,9380.000000,6215.000000,45618.000000
23477.000000,9333.000000,6320.000000,45550.000000
23389.000000,9113.000000,6297.000000,45699.000000
23402.000000,9316.000000,6232.000000,45539.000000
23457.000000,9194.000000,6358.000000,45574.000000
23495.000000,9332.000000,6276.000000,45523.000000
23471.000000,9354.000000,6297.000000,45460.000000
23494.000000,9390.000000,6256.000000,45576.000000
23354.000000,9329.000000,6296.000000,45626.000000
23486.000000,9202.000000,6314.000000,45633.000000
23395.000000,9519.000000,6335.000000,45640.000000
23589.000000,9353.000000,6280.000000,45625.000000
23588.000000,9404.000000,6273.000000,45669.000000
23406.000000,9423.000000,6355.000000,45611.000000
23447.000000,9337.000000,6376.000000,45552.000000
23624.000000,9448.000000,6374.000000,45652.000000
23552.000000,9379.000000,6329.000000,45725.000000
23517.000000,9384.000000,6426.000000,45698.000000
23470.000000,9571.000000,6387.000000,45673.000000
23616.000000,9398.000000,6393.000000,45733.000000
23575.000000,9522.000000,6473.000000,45562.000000
23652.000000,9557.000000,6535.000000,45735.000000
23671.000000,9475.000000,6389.000000,45707.000000
23724.000000,9486.000000,6570.000000,45781.000000
23609.000000,9509.000000,6563.000000,45694.000000
23740.000000,9551.000000,6604.000000,45795.000000
23761.000000,9583.000000,6672.000000,45672.000000
23830.000000,9638.000000,6740.000000,45951.000000
23849.000000,9672.000000,6580.000000,45731.000000
23857.000000,9650.000000,6790.000000,45910.000000
23841.000000,9628.000000,6702.000000,45840.000000
23960.000000,9655.000000,6823.000000,45898.000000
23998.000000,9688.000000,6880.000000,45883.000000
24013.000000,9742.000000,6793.000000,45928.000000
24004.000000,9625.000000,6862.000000,45948.000000
24130.000000,9796.000000,6860.000000,45945.000000
24131.000000,9836.000000,6982.000000,45918.000000
24132.000000,9758.000000,6932.000000,46021.000000
24168.000000,9795.000000,7071.000000,45976.000000
24202.000000,9882.000000,6873.000000,45992.000000
24204.000000,9871.000000,7003.000000,46056.000000
24147.000000,9855.000000,7036.000000,45997.000000
24207.000000,9933.000000,7013.000000,45987.000000
24246.000000,9884.000000,7090.000000,45873.000000
24200.000000,9921.000000,7036.000000,45983.000000
24244.000000,9902.000000,7032.000000,46061.000000
24266.000000,9764.000000,6956.000000,46068.000000
24192.000000,9904.000000,6898.000000,46027.000000
24235.000000,9937.000000,7032.000000,45941.000000
24094.000000,9829.000000,6918.000000,45995.000000
24241.000000,9798.000000,6932.000000,45966.000000
24073.000000,9773.000000,6917.000000,46038.000000
24027.000000,9728.000000,6926.000000,45960.000000
24018.000000,9758.000000,6861.000000,46043.000000
24088.000000,9710.000000,6813.000000,45878.000000
24014.000000,9767.000000,6810.000000,45906.000000
23962.000000,9720.000000,6843.000000,45865.000000
23894.000000,9817.000000,6896.000000,45908.000000
23961.000000,9723.000000,6747.000000,45979.000000
23919.000000,9696.000000,6840.000000,45928.000000
23893.000000,9681.000000,6860.000000,45856.000000
23929.000000,9615.000000,6758.000000,45801.000000
23976.000000,9554.000000,6711.000000,45891.000000
23915.000000,9680.000000,6711.000000,45751.000000
23767.000000,9560.000000,6706.000000,45745.000000
23802.000000,9581.000000,6632.000000,45812.000000
23745.000000,9639.000000,6588.000000,45830.000000
23693.000000,9663.000000,6754.000000,45801.000000
23792.000000,9571.000000,6630.000000,45759.000000
23734.000000,9535.000000,6625.000000,45823.000000
23850.000000,9500.000000,6532.000000,45734.000000
23645.000000,9527.000000,6581.000000,45876.000000
23717.000000,9551.000000,6453.000000,45715.000000
23660.000000,9463.000000,6527.000000,45744.000000
23744.000000,9550.000000,6567.000000,45747.000000
23670.000000,9535.000000,6540.000000,45726.000000
23582.000000,9464.000000,6445.000000,45727.000000
23574.000000,9420.000000,6527.000000,45738.000000
23591.000000,9502.000000,6386.000000,45723.000000
23584.000000,9459.000000,6383.000000,45751.000000
23686.000000,9370.000000,6303.000000,45616.000000
23529.000000,9361.000000,6390.000000,45735.000000
23528.000000,9383.000000,6371.000000,45608.000000
23548.000000,9368.000000,6442.000000,45632.000000
23490.000000,9297.000000,6271.000000,45612.000000
23490.000000,9370.000000,6310.000000,45638.000000
23502.000000,9244.000000,6199.000000,45559.000000
23500.000000,9377.000000,6275.000000,45606.000000
23444.000000,9186.000000,6286.000000,45604.000000
23471.000000,9271.000000,6284.000000,45639.000000
23488.000000,9243.000000,6218.000000,45645.000000
23482.000000,9343.000000,6324.000000,45603.000000
23374.000000,9209.000000,6277.000000,45656.000000
23488.000000,9309.000000,6220.000000,45465.000000
23359.000000,9224.000000,6183.000000,45590.000000
23319.000000,9252.000000,6152.000000,45575.000000
23367.000000,9189.000000,6121.000000,45522.000000
23366.000000,9203.000000,6140.000000,45522.000000
23296.000000,9213.000000,6128.000000,45449.000000
23402.000000,9299.000000,6084.000000,45545.000000
23286.000000,9131.000000,6162.000000,45512.000000
23334.000000,9211.000000,6062.000000,45420.000000
23308.000000,9204.000000,6134.000000,45538.000000
23222.000000,9187.000000,6051.000000,45495.000000
23218.000000,9196.000000,6052.000000,45365.000000
23262.000000,9197.000000,6038.000000,45562.000000
23480.000000,9151.000000,5948.000000,45531.000000
23167.000000,9200.000000,6038.000000,45555.000000
23129.000000,9147.000000,6037.000000,45511.000000
23177.000000,9202.000000,5995.000000,45471.000000
23309.000000,9096.000000,6052.000000,45461.000000
23258.000000,9127.000000,5948.000000,45486.000000
23104.000000,9096.000000,5938.000000,45414.000000
23177.000000,9063.000000,5971.000000,45474.000000
23124.000000,9127.000000,6020.000000,45481.000000
23157.000000,9073.000000,5950.000000,45431.000000
23139.000000,9020.000000,6000.000000,45375.000000
23172.000000,9088.000000,5873.000000,45398.000000
23076.000000,9106.000000,6000.000000,45395.000000
23060.000000,9051.000000,5922.000000,45583.000000
23025.000000,9084.000000,5781.000000,45361.000000
22981.000000,9024.000000,5969.000000,45544.000000
23078.000000,9023.000000,5968.000000,45320.000000
22896.000000,9016.000000,5902.000000,45393.000000
23013.000000,8994.000000,5867.000000,45323.000000
23022.000000,9039.000000,5947.000000,45435.000000
23062.000000,8981.000000,5874.000000,45414.000000
22946.000000,9163.000000,5827.000000,45373.000000
23039.000000,9062.000000,5795.000000,45357.000000
23046.000000,9012.000000,5937.000000,45531.000000
22982.000000,9003.000000,5919.000000,45462.000000
22983.000000,8991.000000,5876.000000,45383.000000
23063.000000,9052.000000,5981.000000,45498.000000
22951.000000,9112.000000,6013.000000,45475.000000
23041.000000,9090.000000,5997.000000,45452.000000
22956.000000,9201.000000,5964.000000,45417.000000
23112.000000,9083.000000,6008.000000,45400.000000
23102.000000,9155.000000,5954.000000,45384.000000
23055.000000,9092.000000,6014.000000,45373.000000
23063.000000,9051.000000,5928.000000,45460.000000
23128.000000,9151.000000,6072.000000,45488.000000
23143.000000,9060.000000,6100.000000,45492.000000
23169.000000,9118.000000,6062.000000,45525.000000
23124.000000,9114.000000,6021.000000,45473.000000
23180.000000,9168.000000,6114.000000,45493.000000
23215.000000,9244.000000,6118.000000,45516.000000
23161.000000,9241.000000,6273.000000,45534.000000
23260.000000,9145.000000,6243.000000,45568.000000
23347.000000,9309.000000,6271.000000,45664.000000
23296.000000,9270.000000,6256.000000,45588.000000
23346.000000,9311.000000,6324.000000,45682.000000
23341.000000,9198.000000,6305.000000,45626.000000
23454.000000,9369.000000,6362.000000,45677.000000
23487.000000,9426.000000,6373.000000,45678.000000
23558.000000,9449.000000,6451.000000,45664.000000
23555.000000,9460.000000,6460.000000,45722.000000
23559.000000,9471.000000,6521.000000,45658.000000
23692.000000,9589.000000,6547.000000,45821.000000
23631.000000,9463.000000,6572.000000,45813.000000
23706.000000,9622.000000,6681.000000,45807.000000
23687.000000,9611.000000,6579.000000,45836.000000
23831.000000,9614.000000,6699.000000,45975.000000
23817.000000,9583.000000,6766.000000,45870.000000
23868.000000,9624.000000,6821.000000,45803.000000
23833.000000,9602.000000,6726.000000,45918.000000
23993.000000,9666.000000,6837.000000,45899.000000
23877.000000,9578.000000,6812.000000,45838.000000
23942.000000,9675.000000,6862.000000,45900.000000
23926.000000,9767.000000,6801.000000,45838.000000
23904.000000,9721.000000,6861.000000,45960.000000
23833.000000,9626.000000,6784.000000,46015.000000
23975.000000,9631.000000,6854.000000,45936.000000
23883.000000,9711.000000,6810.000000,45867.000000
23854.000000,9719.000000,6748.000000,45898.000000
23722.000000,9612.000000,6819.000000,45868.000000
23912.000000,9586.000000,6809.000000,45836.000000
23773.000000,9657.000000,6786.000000,45906.000000
23793.000000,9634.000000,6753.000000,45892.000000
23697.000000,9618.000000,6724.000000,45790.000000
23723.000000,9660.000000,6757.000000,45768.000000
23767.000000,9492.000000,6607.000000,45789.000000
23655.000000,9556.000000,6639.000000,45875.000000
23635.000000,9430.000000,6608.000000,45768.000000
23752.000000,9602.000000,6625.000000,45802.000000
23783.000000,9556.000000,6619.000000,45780.000000
23657.000000,9485.000000,6697.000000,45795.000000
23691.000000,9435.000000,6553.000000,45821.000000
23697.000000,9467.000000,6579.000000,45790.000000
23650.000000,9453.000000,6562.000000,45897.000000
23612.000000,9441.000000,6544.000000,45751.000000
23523.000000,9449.000000,6541.000000,45808.000000
23578.000000,9447.000000,6487.000000,45810.000000
23589.000000,9527.000000,6555.000000,45751.000000
23552.000000,9460.000000,6451.000000,45613.000000
23395.000000,9331.000000,6493.000000,45780.000000
23500.000000,9478.000000,6531.000000,45693.000000
23443.000000,9297.000000,6502.000000,45725.000000
23369.000000,9340.000000,6419.000000,45685.000000
23400.000000,9298.000000,6350.000000,45718.000000
23388.000000,9328.000000,6390.000000,45598.000000
23409.000000,9338.000000,6407.000000,45629.000000
23359.000000,9320.000000,6304.000000,45758.000000
23422.000000,9374.000000,6306.000000,45635.000000
23333.000000,9250.000000,6376.000000,45561.000000
23339.000000,9273.000000,6322.000000,45672.000000
23277.000000,9333.000000,6312.000000,45770.000000
23387.000000,9236.000000,6290.000000,45622.000000
23300.000000,9183.000000,6283.000000,45609.000000
23257.000000,9242.000000,6259.000000,45644.000000
23271.000000,9201.000000,6220.000000,45522.000000
23107.000000,9236.000000,6213.000000,45665.000000
23113.000000,9237.000000,6220.000000,45564.000000
23194.000000,9107.000000,6264.000000,45536.000000
23204.000000,9246.000000,6117.000000,45572.000000
23218.000000,9228.000000,6145.000000,45605.000000
23154.000000,9152.000000,6138.000000,45576.000000
23170.000000,9141.000000,6103.000000,45623.000000
23017.000000,9220.000000,6168.000000,45505.000000
23182.000000,9215.000000,6231.000000,45497.000000
23238.000000,9144.000000,6125.000000,45513.000000
23173.000000,9096.000000,6168.000000,45610.000000
23018.000000,9108.000000,6156.000000,45535.000000
23052.000000,9133.000000,6037.000000,45551.000000
23149.000000,8990.000000,5995.000000,45537.000000
23054.000000,9102.000000,6053.000000,45556.000000
23008.000000,9088.000000,6081.000000,45474.000000
23078.000000,9117.000000,6121.000000,45522.000000
23046.000000,9130.000000,6093.000000,45477.000000
22939.000000,9089.000000,6046.000000,45403.000000
22859.000000,8968.000000,5988.000000,45487.000000
22901.000000,8976.000000,6067.000000,45437.000000
22970.000000,9061.000000,5942.000000,45418.000000
22989.000000,8984.000000,5900.000000,45474.000000
22913.000000,8959.000000,6002.000000,45413.000000
22907.000000,9049.000000,5870.000000,45329.000000
22833.000000,9104.000000,5892.000000,45453.000000
22922.000000,9060.000000,5918.000000,45496.000000
22875.000000,8901.000000,5908.000000,45420.000000
22855.000000,8881.000000,5910.000000,45399.000000
22840.000000,8966.000000,5894.000000,45279.000000
22701.000000,8883.000000,5916.000000,45254.000000
22805.000000,8879.000000,5822.000000,45362.000000
22809.000000,8889.000000,5804.000000,45349.000000
22755.000000,8906.000000,5806.000000,45296.000000
22633.000000,8776.000000,5695.000000,45414.000000
22791.000000,8808.000000,5741.000000,45324.000000
22649.000000,8853.000000,5766.000000,45338.000000
22654.000000,8790.000000,5777.000000,45253.000000
22646.000000,8757.000000,5708.000000,45255.000000
22797.000000,8825.000000,5677.000000,45281.000000
22680.000000,8859.000000,5695.000000,45338.000000
22584.000000,8678.000000,5684.000000,45305.000000
22616.000000,8724.000000,5652.000000,45439.000000
22687.000000,8725.000000,5601.000000,45371.000000
22620.000000,8710.000000,5714.000000,45287.000000
22649.000000,8784.000000,5789.000000,45301.000000
22626.000000,8768.000000,5701.000000,45181.000000
22591.000000,8827.000000,5633.000000,45307.000000
22606.000000,8837.000000,5688.000000,45267.000000
22694.000000,8825.000000,5607.000000,45223.000000
22493.000000,8825.000000,5731.000000,45301.000000
22722.000000,8823.000000,5776.000000,45301.000000
22665.000000,8761.000000,5717.000000,45313.000000
22680.000000,8874.000000,5741.000000,45416.000000
22604.000000,8844.000000,5756.000000,45348.000000
22747.000000,8895.000000,5702.000000,45398.000000
22749.000000,8854.000000,5848.000000,45315.000000
22674.000000,8974.000000,5837.000000,45453.000000
22762.000000,8918.000000,5950.000000,45341.000000
22822.000000,8828.000000,5934.000000,45489.000000
22861.000000,8959.000000,5902.000000,45397.000000
22893.000000,9061.000000,5903.000000,45448.000000
22929.000000,9017.000000,6093.000000,45509.000000
22905.000000,9054.000000,5913.000000,45439.000000
22972.000000,9021.000000,6133.000000,45484.000000
22985.000000,9053.000000,6072.000000,45571.000000
23128.000000,9120.000000,6162.000000,45599.000000
22988.000000,9120.000000,6270.000000,45629.000000
23064.000000,9191.000000,6206.000000,45618.000000
23177.000000,9258.000000,6261.000000,45692.000000
23162.000000,9286.000000,6310.000000,45569.000000
23265.000000,9258.000000,6426.000000,45781.000000
23337.000000,9345.000000,6389.000000,45775.000000
23438.000000,9400.000000,6464.000000,45735.000000
23295.000000,9363.000000,6489.000000,45743.000000
23277.000000,9488.000000,6392.000000,45659.000000
23504.000000,9346.000000,6551.000000,45795.000000
23462.000000,9589.000000,6617.000000,45901.000000
23536.000000,9496.000000,6668.000000,45921.000000
23496.000000,9544.000000,6686.000000,45792.000000
23586.000000,9466.000000,6601.000000,45639.000000
23618.000000,9463.000000,6551.000000,45825.000000
23605.000000,9466.000000,6622.000000,45978.000000
23637.000000,9644.000000,6887.000000,45665.000000
23610.000000,9561.000000,6717.000000,45903.000000
23666.000000,9482.000000,6735.000000,45850.000000
23712.000000,9486.000000,6703.000000,45849.000000
23522.000000,9490.000000,6794.000000,45847.000000
23650.000000,9480.000000,6690.000000,45843.000000
23686.000000,9425.000000,6804.000000,45795.000000
23495.000000,9502.000000,6752.000000,45807.000000
23464.000000,9433.000000,6607.000000,45938.000000
23517.000000,9367.000000,6711.000000,45814.000000
23405.000000,9512.000000,6579.000000,45850.000000
23403.000000,9319.000000,6648.000000,45793.000000
23394.000000,9402.000000,6581.000000,45741.000000
23398.000000,9443.000000,6628.000000,45730.000000
23337.000000,9375.000000,6541.000000,45758.000000
23457.000000,9426.000000,6617.000000,45755.000000
23437.000000,9364.000000,6581.000000,45744.000000
23354.000000,9165.000000,6434.000000,45705.000000
23334.000000,9359.000000,6488.000000,45931.000000
23236.000000,9259.000000,6466.000000,45727.000000
23413.000000,9317.000000,6463.000000,45702.000000
23261.000000,9391.000000,6433.000000,45642.000000
23262.000000,9390.000000,6434.000000,45524.000000
23345.000000,9249.000000,6282.000000,45610.000000
23144.000000,9255.000000,6247.000000,45760.000000
23046.000000,9156.000000,6339.000000,45751.000000
23226.000000,9193.000000,6321.000000,45652.000000
23298.000000,9142.000000,6350.000000,45597.000000
23192.000000,9230.000000,6342.000000,45704.000000
23121.000000,9128.000000,6346.000000,45517.000000
23110.000000,9215.000000,6304.000000,45632.000000
23141.000000,9216.000000,6249.000000,45618.000000
23140.000000,9171.000000,6275.000000,45626.000000
23059.000000,9114.000000,6216.000000,45683.000000
23113.000000,9130.000000,6218.000000,45634.000000
23099.000000,9093.000000,6146.000000,45526.000000
23024.000000,9014.000000,6292.000000,45608.000000
23056.000000,9113.000000,6179.000000,45597.000000
23067.000000,9173.000000,6170.000000,45531.000000
23005.000000,9128.000000,6066.000000,45621.000000
23114.000000,9137.000000,6283.000000,45552.000000
22995.000000,9042.000000,6040.000000,45526.000000
23086.000000,9030.000000,6079.000000,45487.000000
22910.000000,8979.000000,6206.000000,45583.000000
22936.000000,8958.000000,6049.000000,45456.000000
22906.000000,9001.000000,6053.000000,45500.000000
22894.000000,9068.000000,6066.000000,45457.000000
22894.000000,9006.000000,6096.000000,45505.000000
22873.000000,8991.000000,6152.000000,45472.000000
22737.000000,9027.000000,6109.000000,45442.000000
22961.000000,9015.000000,6059.000000,45551.000000
22907.000000,9082.000000,6109.000000,45388.000000
22804.000000,9007.000000,6040.000000,45498.000000
22790.000000,8926.000000,5924.000000,45612.000000
22823.000000,8978.000000,5997.000000,45441.000000
22873.000000,9039.000000,5914.000000,45448.000000
22830.000000,9007.000000,6038.000000,45412.000000
22781.000000,8982.000000,5921.000000,45359.000000
22750.000000,8995.000000,5948.000000,45383.000000
22835.000000,8889.000000,5950.000000,45438.000000
22736.000000,8960.000000,5934.000000,45458.000000
22825.000000,8901.000000,5902.000000,45384.000000
22763.000000,8929.000000,5929.000000,45441.000000
22714.000000,8998.000000,5984.000000,45426.000000
22686.000000,8870.000000,5882.000000,45446.000000
22681.000000,8857.000000,5813.000000,45440.000000
22769.000000,8885.000000,5925.000000,45422.000000
22699.000000,8813.000000,5727.000000,45481.000000
22508.000000,8752.000000,5744.000000,45458.000000
22684.000000,8775.000000,5869.000000,45389.000000
22603.000000,8815.000000,5730.000000,45310.000000
22546.000000,8813.000000,5766.000000,45320.000000
22633.000000,8829.000000,5729.000000,45397.000000
22558.000000,8840.000000,5743.000000,45254.000000
22545.000000,8887.000000,5798.000000,45357.000000
22478.000000,8700.000000,5735.000000,45338.000000
22474.000000,8673.000000,5845.000000,45348.000000
22460.000000,8738.000000,5683.000000,45336.000000
22532.000000,8691.000000,5640.000000,45247.000000
22456.000000,8714.000000,5644.000000,45394.000000
22490.000000,8767.000000,5651.000000,45329.000000
22518.000000,8711.000000,5759.000000,45196.000000
22472.000000,8665.000000,5709.000000,45329.000000
22510.000000,8729.000000,5809.000000,45296.000000
22547.000000,8704.000000,5742.000000,45426.000000
22519.000000,8728.000000,5704.000000,45458.000000
22500.000000,8761.000000,5800.000000,45437.000000
22541.000000,8731.000000,5700.000000,45320.000000
22650.000000,8798.000000,5844.000000,45368.000000
22509.000000,8743.000000,5799.000000,45410.000000
22551.000000,8867.000000,5833.000000,45378.000000
22617.000000,8835.000000,5897.000000,45404.000000
22683.000000,8880.000000,5854.000000,45401.000000
22701.000000,8849.000000,5861.000000,45472.000000
22680.000000,8973.000000,5919.000000,45423.000000
22720.000000,8810.000000,5927.000000,45510.000000
22771.000000,9032.000000,5922.000000,45447.000000
22761.000000,8968.000000,5955.000000,45508.000000
22895.000000,9058.000000,6106.000000,45590.000000
22828.000000,9040.000000,6025.000000,45523.000000
22839.000000,9055.000000,6059.000000,45588.000000
22839.000000,9090.000000,6164.000000,45503.000000
22882.000000,9140.000000,6244.000000,45634.000000
23080.000000,9075.000000,6249.000000,45588.000000
23053.000000,9042.000000,6279.000000,45610.000000
23019.000000,9236.000000,6331.000000,45649.000000
23052.000000,9199.000000,6282.000000,45683.000000
23244.000000,9269.000000,6388.000000,45658.000000
23208.000000,9341.000000,6434.000000,45714.000000
23133.000000,9358.000000,6486.000000,45819.000000
23324.000000,9278.000000,6551.000000,45727.000000
23489.000000,9302.000000,6533.000000,45773.000000
23440.000000,9429.000000,6667.000000,45862.000000
23405.000000,9430.000000,6695.000000,45827.000000
23441.000000,9481.000000,6764.000000,45924.000000
23630.000000,9498.000000,6736.000000,45813.000000
23653.000000,9572.000000,6798.000000,45871.000000
23689.000000,9537.000000,6731.000000,45877.000000
23671.000000,9535.000000,6731.000000,45881.000000
23652.000000,9653.000000,6715.000000,45896.000000
23698.000000,9629.000000,6813.000000,45956.000000
23593.000000,9490.000000,6776.000000,45922.000000
23658.000000,9705.000000,6788.000000,45829.000000
23595.000000,9518.000000,6888.000000,45898.000000
23541.000000,9596.000000,6835.000000,45814.000000
23571.000000,9468.000000,6632.000000,45891.000000
23651.000000,9526.000000,6815.000000,45961.000000
23564.000000,9611.000000,6870.000000,45871.000000
23605.000000,9572.000000,6677.000000,45992.000000
23480.000000,9515.000000,6705.000000,45934.000000
23632.000000,9453.000000,6796.000000,45865.000000
23467.000000,9492.000000,6762.000000,45911.000000
23404.000000,9517.000000,6749.000000,45851.000000
23498.000000,9522.000000,6615.000000,45912.000000
23522.000000,9530.000000,6728.000000,45874.000000
23419.000000,9500.000000,6715.000000,45867.000000
23455.000000,9430.000000,6535.000000,45898.000000
23399.000000,9459.000000,6574.000000,45823.000000
23415.000000,9493.000000,6678.000000,45876.000000
23429.000000,9452.000000,6688.000000,45776.000000
23386.000000,9386.000000,6590.000000,45781.000000
23467.000000,9396.000000,6540.000000,45767.000000
23412.000000,9378.000000,6616.000000,45830.000000
23407.000000,9441.000000,6588.000000,45819.000000
23262.000000,9387.000000,6508.000000,45794.000000
23385.000000,9385.000000,6546.000000,45797.000000
23465.000000,9370.000000,6464.000000,45705.000000
23327.000000,9433.000000,6581.000000,45812.000000
23325.000000,9428.000000,6498.000000,45783.000000
23324.000000,9319.000000,6489.000000,45694.000000
23335.000000,9330.000000,6458.000000,45816.000000
23280.000000,9367.000000,6432.000000,45700.000000
23256.000000,9310.000000,6454.000000,45699.000000
23238.000000,9331.000000,6411.000000,45696.000000
23228.000000,9262.000000,6427.000000,45724.000000
23239.000000,9364.000000,6412.000000,45689.000000
23033.000000,9325.000000,6396.000000,45638.000000
23142.000000,9313.000000,6412.000000,45715.000000
23111.000000,9272.000000,6445.000000,45622.000000
23150.000000,9345.000000,6378.000000,45740.000000
23090.000000,9207.000000,6357.000000,45652.000000
23187.000000,9229.000000,6335.000000,45656.000000
23101.000000,9217.000000,6333.000000,45635.000000
23009.000000,9202.000000,6494.000000,45680.000000
23046.000000,9231.000000,6323.000000,45688.000000
23135.000000,9305.000000,6262.000000,45665.000000
23106.000000,9206.000000,6227.000000,45723.000000
22986.000000,9124.000000,6265.000000,45665.000000
22956.000000,9171.000000,6218.000000,45604.000000
23072.000000,9139.000000,6323.000000,45613.000000
23059.000000,9114.000000,6244.000000,45657.000000
23044.000000,9194.000000,6241.000000,45664.000000
22922.000000,9063.000000,6210.000000,45603.000000
23005.000000,9253.000000,6238.000000,45703.000000
22979.000000,9190.000000,6112.000000,45583.000000
22873.000000,9117.000000,6206.000000,45639.000000
22873.000000,9020.000000,6114.000000,45569.000000
22923.000000,9032.000000,6133.000000,45586.000000
22926.000000,9229.000000,6208.000000,45496.000000
22827.000000,9107.000000,6115.000000,45664.000000
22928.000000,9008.000000,6206.000000,45589.000000
22940.000000,9166.000000,6265.000000,45603.000000
22851.000000,9138.000000,6239.000000,45506.000000
22936.000000,9016.000000,6162.000000,45594.000000
22828.000000,8995.000000,6082.000000,45516.000000
22825.000000,9072.000000,6181.000000,45593.000000
22844.000000,9006.000000,6136.000000,45522.000000
22767.000000,9000.000000,5992.000000,45339.000000
22827.000000,9039.000000,6062.000000,45409.000000
22824.000000,9120.000000,6021.000000,45471.000000
22794.000000,8972.000000,6020.000000,45586.000000
22678.000000,9016.000000,5993.000000,45514.000000
22732.000000,9013.000000,5978.000000,45520.000000
22744.000000,9069.000000,5953.000000,45428.000000
22738.000000,8943.000000,6011.000000,45489.000000
22674.000000,8899.000000,6058.000000,45488.000000
22707.000000,8847.000000,5971.000000,45498.000000
22697.000000,8992.000000,5995.000000,45364.000000
22659.000000,8942.000000,6033.000000,45431.000000
22695.000000,8998.000000,5894.000000,45309.000000
22725.000000,8791.000000,5878.000000,45516.000000
22723.000000,8818.000000,5851.000000,45508.000000
22724.000000,8886.000000,5894.000000,45364.000000
22587.000000,8919.000000,5890.000000,45318.000000
22631.000000,8933.000000,5887.000000,45377.000000
22788.000000,8879.000000,5923.000000,45480.000000
22723.000000,8990.000000,5977.000000,45458.000000
22719.000000,8856.000000,5847.000000,45528.000000
22863.000000,8951.000000,5929.000000,45525.000000
22758.000000,8975.000000,5874.000000,45439.000000
22745.000000,8865.000000,5934.000000,45484.000000
22689.000000,8932.000000,6075.000000,45460.000000
22787.000000,8945.000000,6062.000000,45464.000000
22839.000000,8973.000000,5993.000000,45460.000000
22703.000000,9067.000000,5939.000000,45580.000000
22786.000000,8932.000000,6067.000000,45606.000000
22881.000000,9109.000000,6143.000000,45510.000000
22868.000000,9080.000000,6209.000000,45549.000000
22943.000000,9002.000000,6127.000000,45600.000000
22998.000000,9119.000000,6099.000000,45580.000000
23110.000000,9140.000000,6243.000000,45592.000000
23016.000000,9139.000000,6289.000000,45718.000000
23086.000000,9112.000000,6335.000000,45658.000000
23030.000000,9148.000000,6329.000000,45706.000000
23210.000000,9291.000000,6363.000000,45736.000000
23231.000000,9304.000000,6386.000000,45717.000000
23167.000000,9321.000000,6416.000000,45664.000000
23278.000000,9341.000000,6460.000000,45749.000000
23364.000000,9399.000000,6528.000000,45719.000000
23380.000000,9398.000000,6553.000000,45768.000000
23364.000000,9398.000000,6685.000000,45826.000000
23421.000000,9483.000000,6609.000000,45833.000000
23490.000000,9530.000000,6660.000000,45766.000000
23366.000000,9551.000000,6775.000000,45888.000000
23626.000000,9576.000000,6724.000000,45952.000000
23654.000000,9612.000000,6823.000000,45910.000000
23610.000000,9516.000000,6868.000000,45967.000000
23765.000000,9534.000000,6866.000000,45983.000000
23720.000000,9634.000000,6915.000000,45952.000000
23821.000000,9744.000000,6985.000000,46037.000000
23736.000000,9687.000000,7018.000000,46111.000000
23825.000000,9741.000000,7010.000000,46038.000000
23871.000000,9670.000000,6993.000000,46047.000000
23841.000000,9742.000000,7121.000000,46022.000000
23890.000000,9709.000000,7055.000000,46131.000000
23849.000000,9714.000000,6999.000000,46029.000000
23749.000000,9702.000000,6949.000000,46085.000000
23872.000000,9715.000000,7039.000000,46097.000000
23837.000000,9737.000000,7125.000000,46120.000000
23862.000000,9724.000000,7051.000000,46136.000000
23685.000000,9679.000000,6975.000000,46068.000000
23773.000000,9753.000000,6966.000000,46036.000000
23770.000000,9718.000000,6974.000000,45946.000000
23744.000000,9674.000000,6890.000000,46041.000000
23726.000000,9731.000000,6893.000000,45842.000000
23726.000000,9617.000000,6924.000000,45869.000000
23687.000000,9741.000000,6871.000000,45933.000000
23689.000000,9649.000000,6872.000000,45877.000000
23711.000000,9627.000000,6853.000000,45868.000000
23704.000000,9660.000000,6838.000000,45977.000000
23700.000000,9690.000000,6827.000000,45894.000000
23629.000000,9676.000000,6767.000000,45992.000000
23639.000000,9596.000000,6841.000000,46036.000000
23763.000000,9583.000000,6884.000000,45904.000000
23664.000000,9582.000000,6745.000000,45915.000000
23566.000000,9509.000000,6750.000000,45855.000000
23481.000000,9593.000000,6702.000000,45843.000000
23612.000000,9517.000000,6654.000000,45948.000000
23601.000000,9593.000000,6795.000000,45877.000000
23480.000000,9494.000000,6740.000000,45997.000000
23541.000000,9515.000000,6749.000000,45888.000000
23518.000000,9510.000000,6582.000000,45841.000000
23510.000000,9564.000000,6650.000000,45836.000000
23447.000000,9499.000000,6589.000000,45836.000000
23453.000000,9581.000000,6686.000000,45842.000000
23378.000000,9559.000000,6497.000000,45918.000000
23543.000000,9418.000000,6579.000000,45795.000000
23477.000000,9202.000000,6560.000000,45845.000000
23458.000000,9425.000000,6615.000000,45730.000000
23342.000000,9403.000000,6600.000000,45850.000000
23335.000000,9480.000000,6543.000000,45853.000000
23333.000000,9403.000000,6519.000000,45826.000000
23525.000000,9467.000000,6526.000000,45750.000000
23416.000000,9387.000000,6529.000000,45752.000000
23372.000000,9375.000000,6454.000000,45653.000000
23260.000000,9417.000000,6558.000000,45769.000000
23307.000000,9457.000000,6553.000000,45864.000000
23330.000000,9391.000000,6473.000000,45762.000000
23331.000000,9351.000000,6385.000000,45821.000000
23213.000000,9361.000000,6421.000000,45741.000000
23302.000000,9359.000000,6428.000000,45709.000000
23203.000000,9307.000000,6464.000000,45779.000000
23215.000000,9363.000000,6372.000000,45709.000000
23193.000000,9257.000000,6479.000000,45622.000000
23200.000000,9338.000000,6415.000000,45540.000000
23313.000000,9294.000000,6513.000000,45565.000000
23212.000000,9336.000000,6345.000000,45708.000000
23088.000000,9239.000000,6322.000000,45653.000000
23137.000000,9316.000000,6376.000000,45688.000000
23218.000000,9238.000000,6320.000000,45663.000000
23175.000000,9133.000000,6341.000000,45726.000000
23129.000000,9243.000000,6304.000000,45674.000000
23227.000000,9217.000000,6313.000000,45644.000000
23161.000000,9247.000000,6270.000000,45634.000000
23064.000000,9277.000000,6364.000000,45656.000000
23156.000000,9221.000000,6224.000000,45567.000000
23142.000000,9166.000000,6288.000000,45607.000000
23175.000000,9200.000000,6329.000000,45770.000000
22993.000000,9176.000000,6207.000000,45633.000000
23080.000000,9186.000000,6304.000000,45580.000000
23138.000000,9101.000000,6180.000000,45603.000000
23117.000000,9141.000000,6229.000000,45624.000000
22944.000000,8907.000000,6300.000000,45566.000000
23011.000000,9119.000000,6149.000000,45509.000000
23046.000000,9077.000000,6067.000000,45486.000000
23013.000000,9094.000000,6138.000000,45535.000000
22987.000000,9028.000000,6180.000000,45578.000000
23008.000000,9111.000000,6178.000000,45577.000000
22938.000000,9174.000000,6111.000000,45596.000000
22912.000000,8978.000000,6029.000000,45574.000000
22883.000000,8988.000000,6041.000000,45580.000000
22969.000000,9014.000000,6047.000000,45558.000000
22955.000000,8946.000000,6115.000000,45498.000000
22916.000000,9002.000000,6113.000000,45528.000000
22937.000000,8997.000000,6036.000000,45463.000000
22944.000000,9029.000000,5960.000000,45521.000000
22947.000000,9096.000000,6035.000000,45498.000000
23042.000000,9098.000000,6028.000000,45517.000000
22825.000000,9056.000000,5981.000000,45388.000000
22993.000000,9029.000000,6020.000000,45463.000000
22947.000000,8988.000000,6089.000000,45586.000000
22948.000000,9029.000000,6145.000000,45561.000000
22887.000000,9035.000000,6028.000000,45571.000000
22936.000000,9054.000000,6134.000000,45518.000000
23050.000000,9072.000000,6017.000000,45517.000000
23065.000000,9122.000000,6280.000000,45593.000000
22908.000000,9170.000000,6149.000000,45557.000000
23128.000000,9134.000000,6171.000000,45593.000000
23177.000000,9147.000000,6166.000000,45567.000000
23092.000000,9169.000000,6284.000000,45671.000000
23185.000000,9184.000000,6349.000000,45692.000000
23148.000000,9233.000000,6267.000000,45705.000000
23190.000000,9213.000000,6328.000000,45704.000000
23083.000000,9184.000000,6336.000000,45679.000000
23265.000000,9301.000000,6240.000000,45583.000000
23201.000000,9206.000000,6340.000000,45734.000000
23326.000000,9256.000000,6455.000000,45761.000000
23297.000000,9288.000000,6381.000000,45735.000000
23337.000000,9244.000000,6546.000000,45708.000000
23555.000000,9401.000000,6542.000000,45887.000000
23409.000000,9444.000000,6573.000000,45765.000000
23552.000000,9457.000000,6608.000000,45723.000000
23496.000000,9540.000000,6664.000000,45779.000000
23615.000000,9564.000000,6673.000000,45866.000000
23645.000000,9509.000000,6720.000000,45861.000000
23635.000000,9462.000000,6760.000000,45897.000000
23814.000000,9544.000000,6780.000000,46004.000000
23728.000000,9684.000000,6892.000000,46095.000000
23797.000000,9671.000000,6884.000000,45991.000000
23753.000000,9604.000000,6889.000000,46063.000000
23874.000000,9653.000000,6820.000000,46150.000000
23873.000000,9760.000000,7021.000000,45876.000000
23918.000000,9724.000000,7060.000000,46089.000000
23928.000000,9776.000000,6982.000000,46022.000000
24018.000000,9769.000000,7011.000000,46036.000000
24081.000000,9853.000000,7111.000000,46068.000000
24045.000000,9745.000000,7126.000000,46081.000000
24050.000000,9872.000000,7062.000000,46087.000000
23911.000000,9832.000000,7070.000000,46103.000000
23996.000000,9847.000000,6997.000000,45945.000000
24094.000000,9734.000000,7051.000000,45963.000000
23955.000000,9769.000000,7048.000000,46005.000000
23963.000000,9781.000000,7017.000000,46089.000000
23968.000000,9825.000000,7065.000000,46010.000000
23971.000000,9686.000000,7012.000000,45967.000000
23785.000000,9660.000000,6936.000000,46050.000000
23885.000000,9671.000000,6929.000000,46022.000000
23833.000000,9727.000000,6814.000000,45994.000000
23850.000000,9693.000000,6851.000000,45893.000000
23904.000000,9672.000000,6947.000000,46016.000000
23769.000000,9734.000000,6927.000000,45915.000000
23789.000000,9630.000000,6863.000000,45947.000000
23928.000000,9680.000000,6809.000000,46002.000000
23866.000000,9618.000000,6878.000000,45922.000000
23803.000000,9609.000000,6820.000000,45956.000000
23762.000000,9688.000000,6889.000000,45957.000000
23727.000000,9583.000000,6792.000000,45867.000000
23712.000000,9659.000000,6695.000000,45909.000000
23878.000000,9676.000000,6802.000000,45898.000000
23786.000000,9620.000000,6827.000000,45906.000000
23698.000000,9544.000000,6873.000000,46027.000000
23714.000000,9565.000000,6727.000000,45964.000000
23751.000000,9613.000000,6774.000000,45879.000000
23737.000000,9575.000000,6679.000000,45869.000000
23665.000000,9476.000000,6687.000000,45970.000000
23684.000000,9528.000000,6750.000000,45892.000000
23575.000000,9570.000000,6638.000000,45896.000000
23760.000000,9608.000000,6709.000000,45834.000000
23651.000000,9536.000000,6649.000000,45887.000000
23663.000000,9431.000000,6610.000000,45890.000000
23584.000000,9417.000000,6611.000000,45912.000000
23602.000000,9468.000000,6577.000000,45814.000000
23568.000000,9429.000000,6580.000000,45917.000000
23712.000000,9426.000000,6639.000000,45823.000000
23548.000000,9477.000000,6633.000000,45769.000000
23448.000000,9514.000000,6617.000000,45808.000000
23520.000000,9454.000000,6687.000000,45840.000000
23534.000000,9479.000000,6504.000000,45751.000000
23565.000000,9535.000000,6599.000000,45795.000000
23462.000000,9436.000000,6615.000000,45782.000000
23469.000000,9469.000000,6505.000000,45883.000000
23576.000000,9416.000000,6550.000000,45795.000000
23424.000000,9475.000000,6596.000000,45811.000000
23477.000000,9386.000000,6476.000000,45740.000000
23449.000000,9443.000000,6479.000000,45570.000000
23420.000000,9384.000000,6483.000000,45783.000000
23472.000000,9385.000000,6458.000000,45674.000000
23436.000000,9456.000000,6607.000000,45875.000000
23355.000000,9398.000000,6435.000000,45747.000000
23477.000000,9356.000000,6439.000000,45728.000000
23394.000000,9430.000000,6522.000000,45675.000000
23358.000000,9373.000000,6464.000000,45780.000000
23335.000000,9366.000000,6475.000000,45841.000000
23473.000000,9347.000000,6412.000000,45902.000000
23484.000000,9499.000000,6377.000000,45720.000000
23394.000000,9310.000000,6448.000000,45720.000000
23358.000000,9357.000000,6344.000000,45732.000000
23394.000000,9368.000000,6280.000000,45734.000000
23370.000000,9347.000000,6399.000000,45683.000000
23360.000000,9291.000000,6394.000000,45718.000000
23310.000000,9570.000000,6363.000000,45624.000000
23424.000000,9370.000000,6435.000000,45717.000000
23382.000000,9378.000000,6419.000000,45752.000000
23274.000000,9236.000000,6328.000000,45761.000000
23365.000000,9363.000000,6370.000000,45715.000000
23330.000000,9313.000000,6266.000000,45754.000000
23385.000000,9209.000000,6296.000000,45679.000000
23274.000000,9269.000000,6393.000000,45559.000000
23176.000000,9307.000000,6306.000000,45729.000000
23383.000000,9282.000000,6330.000000,45561.000000
23429.000000,9266.000000,6349.000000,45659.000000
23173.000000,9283.000000,6242.000000,45648.000000
23369.000000,9240.000000,6251.000000,45600.000000
23333.000000,9224.000000,6309.000000,45794.000000
23145.000000,9308.000000,6247.000000,45686.000000
23149.000000,9141.000000,6355.000000,45574.000000
23253.000000,9235.000000,6347.000000,45657.000000
23263.000000,9259.000000,6126.000000,45677.000000
23231.000000,9198.000000,6173.000000,45649.000000
23151.000000,9173.000000,6114.000000,45625.000000
23194.000000,9244.000000,6204.000000,45522.000000
23261.000000,9328.000000,6267.000000,45657.000000
23140.000000,9216.000000,6191.000000,45717.000000
23182.000000,9217.000000,6251.000000,45662.000000
23227.000000,9288.000000,6274.000000,45621.000000
23260.000000,9275.000000,6274.000000,45728.000000
23161.000000,9285.000000,6281.000000,45649.000000
23195.000000,9300.000000,6287.000000,45672.000000
23264.000000,9365.000000,6298.000000,45557.000000
23324.000000,9321.000000,6318.000000,45691.000000
23232.000000,9268.000000,6325.000000,45760.000000
23360.000000,9329.000000,6389.000000,45737.000000
23389.000000,9310.000000,6365.000000,45756.000000
23391.000000,9324.000000,6389.000000,45720.000000
23358.000000,9318.000000,6465.000000,45736.000000
23362.000000,9446.000000,6436.000000,45745.000000
23568.000000,9435.000000,6467.000000,45719.000000
23459.000000,9461.000000,6504.000000,45867.000000
23433.000000,9496.000000,6571.000000,45832.000000
23530.000000,9424.000000,6542.000000,45877.000000
23573.000000,9439.000000,6622.000000,45819.000000
23644.000000,9561.000000,6583.000000,45904.000000
23364.000000,9513.000000,6619.000000,45831.000000
23622.000000,9577.000000,6674.000000,45894.000000
23730.000000,9685.000000,6798.000000,45876.000000
23714.000000,9666.000000,6756.000000,45907.000000
23766.000000,9619.000000,6793.000000,45886.000000
23920.000000,9650.000000,6899.000000,45990.000000
23827.000000,9770.000000,6847.000000,46013.000000
23957.000000,9753.000000,6986.000000,45987.000000
23955.000000,9806.000000,6953.000000,46080.000000
24097.000000,9791.000000,7131.000000,46055.000000
24035.000000,9872.000000,7036.000000,46098.000000
24103.000000,9904.000000,7188.000000,46068.000000
24032.000000,9945.000000,7235.000000,46154.000000
24141.000000,10019.000000,7198.000000,46110.000000
24210.000000,9958.000000,7197.000000,46174.000000
24182.000000,9964.000000,7272.000000,46146.000000
24097.000000,9953.000000,7315.000000,46178.000000
24131.000000,9966.000000,7206.000000,46215.000000
24238.000000,9956.000000,7319.000000,46164.000000
24145.000000,10043.000000,7234.000000,46252.000000
24185.000000,10018.000000,7236.000000,46168.000000
24234.000000,9973.000000,7289.000000,46143.000000
24266.000000,9960.000000,7220.000000,46124.000000
24145.000000,10058.000000,7138.000000,46182.000000
24131.000000,9898.000000,7146.000000,46124.000000
24079.000000,10029.000000,7234.000000,46146.000000
24174.000000,9896.000000,7167.000000,46164.000000
24030.000000,9963.000000,7072.000000,46142.000000
23931.000000,9790.000000,7230.000000,46028.000000
24097.000000,9820.000000,7086.000000,46160.000000
24127.000000,9948.000000,7154.000000,46078.000000
23999.000000,9764.000000,6896.000000,46033.000000
24007.000000,9807.000000,7058.000000,46070.000000
24096.000000,9852.000000,7030.000000,46103.000000
24035.000000,9937.000000,6930.000000,46130.000000
24044.000000,9777.000000,7027.000000,46073.000000
23992.000000,9720.000000,7001.000000,46135.000000
24035.000000,9796.000000,7006.000000,46014.000000
24070.000000,9678.000000,6997.000000,45968.000000
23881.000000,9701.000000,6948.000000,46005.000000
23965.000000,9820.000000,6944.000000,46102.000000
23812.000000,9825.000000,7052.000000,45993.000000
23900.000000,9717.000000,6899.000000,46050.000000
23834.000000,9673.000000,6918.000000,46075.000000
23835.000000,9798.000000,6882.000000,45986.000000
23908.000000,9705.000000,6778.000000,45793.000000
23770.000000,9724.000000,6844.000000,45976.000000
23719.000000,9631.000000,6804.000000,46014.000000
23884.000000,9669.000000,6843.000000,45896.000000
23934.000000,9683.000000,6730.000000,45862.000000
23789.000000,9603.000000,6774.000000,45993.000000
23762.000000,9693.000000,6801.000000,45915.000000
23866.000000,9711.000000,6785.000000,45913.000000
23769.000000,9561.000000,6728.000000,45898.000000
23777.000000,9660.000000,6776.000000,45842.000000
23667.000000,9521.000000,6592.000000,45887.000000
23686.000000,9601.000000,6698.000000,45927.000000
23660.000000,9589.000000,6706.000000,45808.000000
23696.000000,9555.000000,6687.000000,45767.000000
23663.000000,9418.000000,6542.000000,45848.000000
23783.000000,9536.000000,6655.000000,45868.000000
23629.000000,9543.000000,6712.000000,45938.000000
23564.000000,9461.000000,6636.000000,45915.000000
23628.000000,9521.000000,6639.000000,45839.000000
23648.000000,9505.000000,6637.000000,45777.000000
23698.000000,9485.000000,6682.000000,45884.000000
23520.000000,9554.000000,6634.000000,45796.000000
23531.000000,9425.000000,6617.000000,45812.000000
23599.000000,9470.000000,6618.000000,45831.000000
23595.000000,9524.000000,6624.000000,45786.000000
23628.000000,9482.000000,6542.000000,45726.000000
23574.000000,9495.000000,6560.000000,45715.000000
23566.000000,9465.000000,6508.000000,45772.000000
23547.000000,9526.000000,6525.000000,45835.000000
23523.000000,9390.000000,6596.000000,45775.000000
23498.000000,9438.000000,6614.000000,45803.000000
23518.000000,9517.000000,6504.000000,45745.000000
23501.000000,9416.000000,6481.000000,45769.000000
23467.000000,9417.000000,6599.000000,45708.000000
23435.000000,9522.000000,6515.000000,45762.000000
23534.000000,9448.000000,6472.000000,45768.000000
23484.000000,9441.000000,6542.000000,45812.000000
23513.000000,9488.000000,6439.000000,45708.000000
23503.000000,9497.000000,6762.000000,45910.000000
23534.000000,9468.000000,6478.000000,45745.000000
23536.000000,9458.000000,6532.000000,45784.000000
23503.000000,9370.000000,6439.000000,45680.000000
23451.000000,9424.000000,6475.000000,45727.000000
23470.000000,9429.000000,6521.000000,45853.000000
23592.000000,9490.000000,6342.000000,45766.000000
23434.000000,9228.000000,6421.000000,45815.000000
23428.000000,9507.000000,6417.000000,45759.000000
23396.000000,9442.000000,6511.000000,45666.000000
23450.000000,9363.000000,6414.000000,45722.000000
23318.000000,9393.000000,6426.000000,45730.000000
23441.000000,9368.000000,6357.000000,45762.000000
23304.000000,9366.000000,6389.000000,45766.000000
23332.000000,9390.000000,6460.000000,45618.000000
23380.000000,9359.000000,6385.000000,45659.000000
23399.000000,9375.000000,6470.000000,45714.000000
23298.000000,9345.000000,6482.000000,45682.000000
23379.000000,9452.000000,6383.000000,45725.000000
23308.000000,9362.000000,6377.000000,45753.000000
23347.000000,9268.000000,6411.000000,45695.000000
23328.000000,9415.000000,6462.000000,45741.000000
23196.000000,9411.000000,6336.000000,45747.000000
23351.000000,9411.000000,6430.000000,45722.000000
23266.000000,9360.000000,6373.000000,45795.000000
23433.000000,9394.000000,6390.000000,45691.000000
23247.000000,9373.000000,6513.000000,45775.000000
23259.000000,9502.000000,6469.000000,45692.000000
23256.000000,9403.000000,6504.000000,45768.000000
23421.000000,9393.000000,6456.000000,45698.000000
23386.000000,9403.000000,6446.000000,45735.000000
23360.000000,9468.000000,6516.000000,45732.000000
23409.000000,9458.000000,6501.000000,45779.000000
23435.000000,9496.000000,6519.000000,45742.000000
23478.000000,9517.000000,6416.000000,45736.000000
23445.000000,9484.000000,6547.000000,45773.000000
23652.000000,9463.000000,6589.000000,45740.000000
23489.000000,9452.000000,6599.000000,45731.000000
23476.000000,9492.000000,6572.000000,45823.000000
23497.000000,9590.000000,6589.000000,45723.000000
23543.000000,9645.000000,6695.000000,45959.000000
23628.000000,9570.000000,6712.000000,45883.000000
23599.000000,9538.000000,6675.000000,45790.000000
23616.000000,9621.000000,6761.000000,45929.000000
23750.000000,9674.000000,6851.000000,45883.000000
23691.000000,9666.000000,6808.000000,45924.000000
23549.000000,9694.000000,6918.000000,45946.000000
23813.000000,9676.000000,6822.000000,45913.000000
23800.000000,9812.000000,6933.000000,46018.000000
23735.000000,9734.000000,6971.000000,45988.000000
23869.000000,9802.000000,6891.000000,46048.000000
23763.000000,9847.000000,7094.000000,45999.000000
23994.000000,9849.000000,7221.000000,46043.000000
23944.000000,9773.000000,7135.000000,46076.000000
24017.000000,9847.000000,7068.000000,46125.000000
24039.000000,9896.000000,7143.000000,46174.000000
24081.000000,9973.000000,7125.000000,46110.000000
24064.000000,9985.000000,7279.000000,46122.000000
24210.000000,9893.000000,7195.000000,46105.000000
24165.000000,9950.000000,7271.000000,46190.000000
24271.000000,10004.000000,7295.000000,46151.000000
24151.000000,9999.000000,7184.000000,46178.000000
24176.000000,9915.000000,7250.000000,46013.000000
24362.000000,10013.000000,7292.000000,46193.000000
24336.000000,9984.000000,7243.000000,46140.000000
24182.000000,9942.000000,7191.000000,46223.000000
24165.000000,9962.000000,7179.000000,46061.000000
24115.000000,9937.000000,7199.000000,46135.000000
24154.000000,9836.000000,7187.000000,46140.000000
24172.000000,9892.000000,7241.000000,46157.000000
24124.000000,9908.000000,7182.000000,46088.000000
24112.000000,9991.000000,7144.000000,46077.000000
24099.000000,9945.000000,7201.000000,46044.000000
24072.000000,9997.000000,7183.000000,46129.000000
24064.000000,9907.000000,7015.000000,46075.000000
24134.000000,9809.000000,7078.000000,45915.000000
24054.000000,9892.000000,7087.000000,46107.000000
24015.000000,9766.000000,7048.000000,46060.000000
24039.000000,9642.000000,7171.000000,46040.000000
23969.000000,9845.000000,7133.000000,46119.000000
24050.000000,9857.000000,7100.000000,46055.000000
23982.000000,9832.000000,7150.000000,46010.000000
24002.000000,9792.000000,7008.000000,46070.000000
23969.000000,9792.000000,7069.000000,46018.000000
23948.000000,9781.000000,7007.000000,46022.000000
23902.000000,9819.000000,6970.000000,46022.000000
24016.000000,9788.000000,7001.000000,45972.000000
23910.000000,9711.000000,7023.000000,46080.000000
23933.000000,9778.000000,6968.000000,45957.000000
23911.000000,9873.000000,6813.000000,46026.000000
23903.000000,9739.000000,6960.000000,46020.000000
23903.000000,9659.000000,6908.000000,45948.000000
23902.000000,9800.000000,6958.000000,45941.000000
23842.000000,9704.000000,6848.000000,45920.000000
23891.000000,9793.000000,6848.000000,46040.000000
23869.000000,9676.000000,6853.000000,45921.000000
23780.000000,9756.000000,6851.000000,45869.000000
23856.000000,9738.000000,6843.000000,45951.000000
23752.000000,9685.000000,6774.000000,45997.000000
23761.000000,9554.000000,6758.000000,45926.000000
23638.000000,9598.000000,6732.000000,45909.000000
23734.000000,9565.000000,6778.000000,45941.000000
23739.000000,9643.000000,6763.000000,45858.000000
23757.000000,9598.000000,6740.000000,45870.000000
23603.000000,9690.000000,6696.000000,45858.000000
23662.000000,9555.000000,6697.000000,45963.000000
23729.000000,9663.000000,6691.000000,45917.000000
23645.000000,9609.000000,6727.000000,45925.000000
23615.000000,9564.000000,6651.000000,45855.000000
23520.000000,9506.000000,6612.000000,45924.000000
23661.000000,9480.000000,6718.000000,45801.000000
23704.000000,9642.000000,6600.000000,45700.000000
23493.000000,9484.000000,6676.000000,45710.000000
23588.000000,9564.000000,6643.000000,45793.000000
23625.000000,9488.000000,6651.000000,45937.000000
23557.000000,9607.000000,6656.000000,45804.000000
23527.000000,9455.000000,6620.000000,45744.000000
23520.000000,9406.000000,6666.000000,45829.000000
23533.000000,9378.000000,6565.000000,45723.000000
23526.000000,9464.000000,6503.000000,45723.000000
23426.000000,9446.000000,6458.000000,45720.000000
23481.000000,9472.000000,6495.000000,45698.000000
23360.000000,9394.000000,6501.000000,45758.000000
23542.000000,9448.000000,6484.000000,45697.000000
23384.000000,9436.000000,6471.000000,45837.000000
23489.000000,9358.000000,6517.000000,45803.000000
23460.000000,9507.000000,6511.000000,45743.000000
23475.000000,9459.000000,6493.000000,45731.000000
23426.000000,9422.000000,6508.000000,45728.000000
23434.000000,9416.000000,6515.000000,45762.000000
23428.000000,9418.000000,6554.000000,45709.000000
23372.000000,9425.000000,6484.000000,45773.000000
23322.000000,9320.000000,6431.000000,45795.000000
23382.000000,9343.000000,6414.000000,45791.000000
23456.000000,9509.000000,6450.000000,45694.000000
23397.000000,9453.000000,6565.000000,45832.000000
23376.000000,9234.000000,6477.000000,45735.000000
23430.000000,9369.000000,6397.000000,45797.000000
23425.000000,9384.000000,6418.000000,45665.000000
23335.000000,9320.000000,6321.000000,45651.000000
23208.000000,9269.000000,6300.000000,45638.000000
23261.000000,9317.000000,6301.000000,45751.000000
23312.000000,9379.000000,6401.000000,45666.000000
23166.000000,9431.000000,6422.000000,45702.000000
23211.000000,9363.000000,6320.000000,45622.000000
23245.000000,9420.000000,6354.000000,45663.000000
23338.000000,9276.000000,6345.000000,45557.000000
23223.000000,9355.000000,6291.000000,45683.000000
23253.000000,9285.000000,6309.000000,45662.000000
23246.000000,9357.000000,6277.000000,45598.000000
23223.000000,9263.000000,6290.000000,45612.000000
23140.000000,9303.000000,6308.000000,45631.000000
