660nm,730nm,850nm,940nm
23884.000000,8827.000000,10238.000000,50065.000000
23836.000000,8754.000000,10219.000000,50018.000000
23762.000000,8795.000000,10231.000000,50022.000000
23821.000000,8759.000000,10292.000000,50064.000000
23806.000000,8761.000000,10132.000000,50035.000000
23877.000000,8772.000000,10082.000000,50011.000000
23816.000000,8797.000000,10117.000000,50021.000000
23944.000000,8765.000000,10150.000000,50085.000000
23809.000000,8774.000000,10136.000000,49953.000000
23870.000000,8792.000000,10136.000000,49977.000000
23820.000000,8742.000000,10096.000000,49997.000000
23894.000000,8762.000000,10054.000000,49932.000000
23693.000000,8717.000000,10104.000000,50012.000000
23849.000000,8746.000000,10093.000000,50012.000000
23811.000000,8645.000000,10048.000000,49966.000000
23830.000000,8806.000000,10102.000000,49919.000000
23783.000000,8652.000000,10005.000000,49983.000000
23697.000000,8653.000000,10019.000000,50043.000000
23688.000000,8623.000000,10023.000000,49944.000000
23688.000000,8626.000000,10009.000000,49936.000000
23697.000000,8728.000000,9951.000000,49907.000000
23663.000000,8632.000000,10008.000000,49907.000000
23639.000000,8639.000000,9946.000000,49940.000000
23615.000000,8629.000000,9952.000000,49873.000000
23684.000000,8582.000000,9895.000000,49917.000000
23660.000000,8558.000000,9927.000000,49883.000000
23539.000000,8569.000000,9941.000000,49826.000000
23661.000000,8505.000000,9956.000000,49911.000000
23680.000000,8579.000000,9946.000000,49779.000000
23571.000000,8565.000000,9873.000000,49920.000000
23590.000000,8562.000000,9834.000000,49924.000000
23647.000000,8556.000000,9862.000000,49890.000000
23536.000000,8560.000000,9797.000000,49809.000000
23497.000000,8471.000000,9839.000000,49826.000000
23582.000000,8494.000000,9826.000000,49823.000000
23512.000000,8533.000000,9912.000000,49880.000000
23521.000000,8507.000000,9783.000000,49814.000000
23517.000000,8474.000000,9754.000000,49782.000000
23534.000000,8497.000000,9857.000000,49823.000000
23532.000000,8520.000000,9745.000000,49877.000000
23610.000000,8506.000000,9755.000000,49806.000000
23385.000000,8528.000000,9818.000000,49684.000000
23449.000000,8496.000000,9782.000000,49776.000000
23494.000000,8403.000000,9724.000000,49797.000000
23464.000000,8338.000000,9584.000000,49740.000000
23354.000000,8328.000000,9741.000000,49783.000000
23520.000000,8375.000000,9688.000000,49812.000000
23417.000000,8435.000000,9626.000000,49653.000000
23412.000000,8401.000000,9639.000000,49732.000000
23292.000000,8324.000000,9556.000000,49674.000000
23387.000000,8366.000000,9487.000000,49787.000000
23325.000000,8293.000000,9601.000000,49644.000000
23281.000000,8318.000000,9584.000000,49692.000000
23234.000000,8206.000000,9575.000000,49621.000000
23267.000000,8241.000000,9541.000000,49599.000000
23257.000000,8236.000000,9503.000000,49714.000000
23268.000000,8215.000000,9463.000000,49583.000000
23197.000000,8275.000000,9445.000000,49669.000000
23138.000000,8270.000000,9466.000000,49607.000000
23179.000000,8176.000000,9391.000000,49703.000000
23053.000000,8198.000000,9439.000000,49589.000000
23109.000000,8122.000000,9457.000000,49619.000000
23204.000000,8224.000000,9438.000000,49577.000000
23195.000000,8195.000000,9340.000000,49591.000000
23099.000000,8128.000000,9375.000000,49544.000000
23077.000000,8129.000000,9356.000000,49671.000000
23160.000000,8141.000000,9316.000000,49528.000000
23045.000000,8128.000000,9364.000000,49502.000000
22957.000000,8145.000000,9316.000000,49558.000000
22964.000000,8096.000000,9310.000000,49458.000000
23017.000000,8025.000000,9248.000000,49512.000000
23004.000000,8066.000000,9293.000000,49431.000000
22850.000000,8058.000000,9254.000000,49473.000000
22868.000000,8002.000000,9218.000000,49537.000000
22968.000000,8002.000000,9216.000000,49463.000000
22899.000000,8025.000000,9167.000000,49427.000000
22945.000000,7968.000000,9112.000000,49510.000000
22880.000000,7984.000000,9134.000000,49428.000000
22803.000000,7866.000000,9092.000000,49399.000000
22811.000000,7946.000000,9092.000000,49410.000000
22766.000000,8019.000000,9175.000000,49370.000000
22741.000000,7948.000000,9174.000000,49406.000000
22784.000000,7938.000000,9071.000000,49361.000000
22910.000000,7861.000000,9188.000000,49436.000000
22695.000000,7868.000000,9129.000000,49368.000000
22632.000000,7946.000000,9040.000000,49415.000000
22789.000000,7848.000000,9035.000000,49393.000000
22730.000000,7923.000000,9036.000000,49307.000000
22727.000000,7855.000000,8929.000000,49375.000000
22731.000000,7835.000000,8944.000000,49339.000000
22697.000000,7873.000000,8981.000000,49328.000000
22689.000000,7947.000000,9053.000000,49326.000000
22603.000000,7800.000000,8989.000000,49323.000000
22699.000000,7824.000000,8940.000000,49385.000000
22619.000000,7909.000000,8840.000000,49344.000000
22647.000000,7815.000000,8971.000000,49313.000000
22535.000000,7852.000000,9017.000000,49373.000000
22629.000000,7767.000000,8915.000000,49347.000000
22608.000000,7734.000000,8856.000000,49291.000000
22603.000000,7707.000000,8809.000000,49339.000000
22490.000000,7748.000000,8840.000000,49292.000000
22553.000000,7653.000000,8724.000000,49286.000000
22540.000000,7797.000000,8737.000000,49212.000000
22470.000000,7655.000000,8810.000000,49271.000000
22434.000000,7613.000000,8616.000000,49232.000000
22389.000000,7648.000000,8658.000000,49216.000000
22396.000000,7639.000000,8804.000000,49308.000000
22348.000000,7553.000000,8673.000000,49147.000000
22265.000000,7544.000000,8690.000000,49091.000000
22397.000000,7477.000000,8605.000000,49149.000000
22272.000000,7526.000000,8550.000000,49269.000000
22218.000000,7535.000000,8462.000000,49060.000000
22183.000000,7492.000000,8570.000000,49217.000000
22253.000000,7522.000000,8564.000000,49111.000000
22206.000000,7494.000000,8484.000000,49115.000000
22167.000000,7428.000000,8552.000000,49047.000000
22233.000000,7438.000000,8492.000000,49044.000000
22238.000000,7511.000000,8577.000000,49047.000000
22243.000000,7564.000000,8540.000000,49133.000000
22231.000000,7491.000000,8591.000000,49175.000000
22430.000000,7544.000000,8531.000000,49188.000000
22365.000000,7559.000000,8631.000000,49149.000000
22384.000000,7600.000000,8606.000000,49168.000000
22436.000000,7610.000000,8689.000000,49177.000000
22456.000000,7696.000000,8694.000000,49226.000000
22396.000000,7554.000000,8692.000000,49135.000000
22528.000000,7683.000000,8760.000000,49292.000000
22442.000000,7683.000000,8804.000000,49310.000000
22645.000000,7702.000000,8809.000000,49226.000000
22520.000000,7775.000000,8790.000000,49245.000000
22582.000000,7828.000000,8911.000000,49373.000000
22543.000000,7715.000000,8910.000000,49300.000000
22652.000000,7736.000000,9113.000000,49357.000000
22786.000000,7872.000000,8989.000000,49360.000000
22815.000000,7934.000000,9024.000000,49434.000000
22760.000000,7862.000000,9048.000000,49266.000000
22850.000000,7910.000000,9098.000000,49396.000000
22823.000000,8138.000000,9170.000000,49501.000000
22884.000000,7950.000000,9157.000000,49405.000000
22971.000000,8051.000000,9179.000000,49475.000000
23059.000000,8109.000000,9372.000000,49502.000000
23065.000000,8237.000000,9389.000000,49591.000000
23163.000000,8218.000000,9445.000000,49570.000000
23139.000000,8237.000000,9474.000000,49664.000000
23270.000000,8316.000000,9522.000000,49673.000000
23431.000000,8345.000000,9625.000000,49803.000000
23404.000000,8403.000000,9725.000000,49798.000000
23533.000000,8426.000000,9788.000000,49718.000000
23470.000000,8544.000000,9865.000000,49883.000000
23641.000000,8605.000000,9917.000000,49821.000000
23675.000000,8607.000000,10013.000000,49927.000000
23729.000000,8577.000000,10091.000000,49894.000000
23844.000000,8734.000000,10148.000000,50026.000000
23904.000000,8828.000000,10178.000000,50058.000000
23955.000000,8835.000000,10250.000000,50091.000000
23985.000000,8899.000000,10340.000000,50132.000000
24049.000000,8892.000000,10291.000000,50214.000000
24081.000000,8936.000000,10387.000000,50196.000000
24101.000000,9007.000000,10441.000000,50268.000000
24174.000000,8987.000000,10520.000000,50220.000000
24210.000000,9057.000000,10526.000000,50285.000000
24221.000000,9030.000000,10493.000000,50239.000000
24238.000000,9025.000000,10388.000000,50233.000000
24184.000000,8969.000000,10486.000000,50242.000000
24201.000000,9034.000000,10547.000000,50246.000000
24198.000000,9083.000000,10474.000000,50175.000000
24107.000000,8933.000000,10513.000000,50231.000000
24249.000000,9026.000000,10452.000000,50185.000000
24131.000000,8981.000000,10583.000000,50241.000000
24110.000000,8980.000000,10498.000000,50180.000000
24033.000000,8946.000000,10375.000000,50201.000000
24116.000000,8939.000000,10392.000000,50156.000000
24092.000000,9031.000000,10309.000000,50218.000000
24047.000000,8894.000000,10325.000000,50201.000000
24051.000000,8887.000000,10354.000000,50133.000000
24106.000000,8851.000000,10358.000000,50144.000000
24121.000000,8825.000000,10329.000000,50113.000000
24100.000000,8913.000000,10243.000000,50089.000000
23952.000000,8923.000000,10314.000000,50029.000000
24008.000000,8877.000000,10290.000000,50143.000000
23919.000000,8904.000000,10259.000000,50058.000000
23982.000000,8825.000000,10290.000000,50087.000000
23890.000000,8853.000000,10308.000000,50080.000000
23962.000000,8832.000000,10237.000000,50083.000000
23882.000000,8853.000000,10298.000000,50023.000000
23852.000000,8830.000000,10157.000000,50031.000000
23987.000000,8741.000000,10230.000000,50024.000000
23940.000000,8833.000000,10158.000000,50065.000000
23836.000000,8742.000000,10172.000000,50022.000000
23879.000000,8686.000000,10077.000000,50035.000000
23839.000000,8775.000000,10158.000000,50046.000000
23859.000000,8773.000000,10116.000000,50104.000000
23883.000000,8829.000000,10004.000000,50104.000000
23777.000000,8756.000000,10004.000000,49967.000000
23751.000000,8756.000000,10011.000000,49998.000000
23780.000000,8699.000000,10016.000000,50004.000000
23817.000000,8705.000000,10080.000000,50040.000000
23650.000000,8673.000000,10094.000000,49993.000000
23795.000000,8745.000000,10015.000000,49906.000000
23818.000000,8662.000000,10080.000000,49979.000000
23801.000000,8678.000000,9989.000000,49946.000000
23793.000000,8563.000000,9917.000000,49959.000000
23718.000000,8579.000000,9960.000000,49925.000000
23703.000000,8595.000000,10056.000000,49947.000000
23772.000000,8666.000000,9983.000000,49897.000000
23650.000000,8615.000000,9938.000000,49948.000000
23662.000000,8574.000000,9963.000000,49882.000000
23740.000000,8567.000000,9858.000000,49929.000000
23621.000000,8531.000000,9989.000000,49957.000000
23610.000000,8545.000000,9902.000000,49880.000000
23593.000000,8538.000000,9964.000000,49908.000000
23604.000000,8559.000000,9794.000000,49927.000000
23551.000000,8523.000000,9834.000000,49827.000000
23545.000000,8561.000000,9889.000000,49882.000000
23558.000000,8497.000000,9872.000000,49815.000000
23515.000000,8560.000000,9844.000000,49852.000000
23557.000000,8537.000000,9727.000000,49890.000000
23504.000000,8438.000000,9816.000000,49914.000000
23500.000000,8515.000000,9687.000000,49814.000000
23470.000000,8504.000000,9821.000000,49901.000000
23629.000000,8507.000000,9643.000000,49794.000000
23524.000000,8464.000000,9724.000000,49815.000000
23471.000000,8470.000000,9704.000000,49809.000000
23529.000000,8522.000000,9713.000000,49787.000000
23403.000000,8391.000000,9718.000000,49841.000000
23504.000000,8388.000000,9747.000000,49773.000000
23388.000000,8404.000000,9736.000000,49699.000000
23402.000000,8444.000000,9688.000000,49814.000000
23397.000000,8393.000000,9623.000000,49717.000000
23289.000000,8321.000000,9488.000000,49775.000000
23382.000000,8273.000000,9534.000000,49764.000000
23416.000000,8309.000000,9480.000000,49795.000000
23348.000000,8307.000000,9511.000000,49695.000000
23251.000000,8236.000000,9544.000000,49705.000000
23369.000000,8266.000000,9532.000000,49629.000000
23270.000000,8272.000000,9494.000000,49704.000000
23286.000000,8179.000000,9463.000000,49738.000000
23258.000000,8187.000000,9453.000000,49620.000000
23231.000000,8240.000000,9498.000000,49600.000000
23238.000000,8241.000000,9487.000000,49682.000000
23131.000000,8146.000000,9407.000000,49600.000000
23161.000000,8168.000000,9410.000000,49652.000000
23143.000000,8159.000000,9442.000000,49663.000000
23189.000000,8221.000000,9349.000000,49571.000000
23054.000000,8129.000000,9419.000000,49631.000000
23121.000000,8037.000000,9377.000000,49616.000000
23131.000000,8172.000000,9290.000000,49528.000000
23059.000000,8155.000000,9247.000000,49558.000000
22975.000000,8088.000000,9224.000000,49564.000000
23038.000000,8039.000000,9152.000000,49495.000000
23051.000000,8059.000000,9252.000000,49583.000000
22980.000000,8106.000000,9226.000000,49503.000000
23032.000000,8018.000000,9274.000000,49394.000000
23084.000000,8009.000000,9136.000000,49405.000000
22872.000000,7987.000000,9080.000000,49429.000000
22994.000000,7908.000000,9099.000000,49523.000000
22795.000000,7872.000000,9056.000000,49469.000000
22899.000000,7989.000000,9126.000000,49381.000000
22817.000000,7873.000000,8992.000000,49435.000000
22772.000000,7806.000000,9052.000000,49429.000000
22756.000000,7832.000000,8951.000000,49375.000000
22750.000000,7839.000000,9033.000000,49370.000000
22721.000000,7787.000000,8959.000000,49307.000000
22645.000000,7764.000000,8914.000000,49334.000000
22555.000000,7796.000000,8824.000000,49337.000000
22707.000000,7773.000000,8767.000000,49329.000000
22626.000000,7733.000000,8760.000000,49182.000000
22598.000000,7685.000000,8822.000000,49321.000000
22528.000000,7666.000000,8830.000000,49301.000000
22600.000000,7670.000000,8747.000000,49226.000000
22516.000000,7687.000000,8781.000000,49228.000000
22566.000000,7622.000000,8763.000000,49266.000000
22471.000000,7734.000000,8708.000000,49157.000000
22540.000000,7601.000000,8764.000000,49198.000000
22465.000000,7637.000000,8688.000000,49223.000000
22507.000000,7644.000000,8718.000000,49237.000000
22526.000000,7600.000000,8673.000000,49223.000000
22575.000000,7649.000000,8610.000000,49224.000000
22506.000000,7643.000000,8667.000000,49241.000000
22375.000000,7616.000000,8708.000000,49233.000000
22481.000000,7579.000000,8660.000000,49123.000000
22532.000000,7565.000000,8653.000000,49146.000000
22463.000000,7594.000000,8633.000000,49190.000000
22385.000000,7618.000000,8638.000000,49256.000000
22460.000000,7647.000000,8624.000000,49130.000000
22272.000000,7586.000000,8491.000000,49257.000000
22471.000000,7627.000000,8634.000000,49093.000000
22427.000000,7514.000000,8573.000000,49111.000000
22350.000000,7546.000000,8566.000000,49151.000000
22443.000000,7614.000000,8540.000000,49124.000000
22442.000000,7573.000000,8648.000000,49164.000000
22428.000000,7529.000000,8544.000000,49104.000000
22401.000000,7524.000000,8558.000000,49096.000000
22366.000000,7546.000000,8653.000000,49237.000000
22290.000000,7521.000000,8533.000000,49118.000000
22322.000000,7455.000000,8515.000000,49032.000000
22356.000000,7484.000000,8580.000000,49042.000000
22286.000000,7427.000000,8433.000000,49060.000000
22245.000000,7541.000000,8488.000000,49004.000000
22204.000000,7330.000000,8367.000000,49027.000000
22237.000000,7469.000000,8411.000000,48999.000000
22304.000000,7357.000000,8310.000000,49141.000000
22267.000000,7368.000000,8358.000000,48969.000000
22098.000000,7252.000000,8278.000000,49064.000000
22171.000000,7291.000000,8259.000000,49018.000000
22155.000000,7354.000000,8279.000000,49011.000000
22116.000000,7280.000000,8252.000000,48969.000000
22075.000000,7257.000000,8285.000000,49001.000000
22119.000000,7337.000000,8266.000000,48889.000000
22074.000000,7292.000000,8253.000000,48955.000000
22117.000000,7303.000000,8267.000000,48946.000000
21983.000000,7214.000000,8259.000000,48923.000000
22132.000000,7308.000000,8321.000000,49008.000000
22199.000000,7276.000000,8395.000000,48985.000000
22016.000000,7377.000000,8330.000000,48997.000000
22120.000000,7362.000000,8342.000000,49036.000000
22112.000000,7402.000000,8378.000000,48995.000000
22139.000000,7431.000000,8359.000000,49081.000000
22211.000000,7397.000000,8350.000000,49077.000000
22110.000000,7399.000000,8439.000000,49073.000000
22233.000000,7461.000000,8402.000000,49156.000000
22265.000000,7443.000000,8389.000000,49084.000000
22219.000000,7439.000000,8408.000000,49131.000000
22288.000000,7451.000000,8494.000000,49091.000000
22306.000000,7597.000000,8639.000000,49097.000000
22403.000000,7588.000000,8580.000000,49123.000000
22305.000000,7550.000000,8576.000000,49150.000000
22482.000000,7655.000000,8722.000000,49225.000000
22451.000000,7636.000000,8636.000000,49274.000000
22534.000000,7659.000000,8719.000000,49278.000000
22568.000000,7707.000000,8826.000000,49297.000000
22608.000000,7698.000000,8830.000000,49287.000000
22676.000000,7790.000000,8880.000000,49294.000000
22731.000000,7858.000000,8908.000000,49345.000000
22749.000000,7855.000000,8898.000000,49413.000000
22885.000000,7846.000000,9094.000000,49420.000000
22890.000000,8039.000000,9210.000000,49467.000000
23016.000000,7993.000000,9287.000000,49470.000000
22934.000000,8117.000000,9332.000000,49522.000000
23110.000000,8176.000000,9415.000000,49658.000000
23218.000000,8260.000000,9516.000000,49655.000000
23299.000000,8295.000000,9527.000000,49723.000000
23402.000000,8307.000000,9640.000000,49718.000000
23404.000000,8360.000000,9689.000000,49838.000000
23595.000000,8471.000000,9772.000000,49894.000000
23645.000000,8571.000000,9860.000000,49865.000000
23655.000000,8495.000000,9858.000000,50016.000000
23809.000000,8634.000000,9964.000000,49939.000000
23849.000000,8658.000000,10051.000000,50042.000000
23939.000000,8775.000000,10070.000000,49981.000000
23858.000000,8667.000000,10050.000000,50048.000000
23927.000000,8767.000000,10213.000000,49985.000000
24010.000000,8794.000000,10231.000000,50069.000000
24097.000000,8806.000000,10219.000000,50074.000000
24055.000000,8837.000000,10261.000000,50081.000000
24036.000000,8840.000000,10283.000000,50181.000000
24086.000000,8920.000000,10221.000000,50160.000000
24052.000000,8820.000000,10147.000000,50161.000000
24036.000000,8900.000000,10250.000000,50065.000000
24065.000000,8830.000000,10361.000000,50095.000000
24039.000000,8842.000000,10255.000000,50067.000000
23950.000000,8801.000000,10272.000000,50180.000000
24018.000000,8801.000000,10273.000000,50072.000000
24132.000000,8761.000000,10164.000000,50087.000000
23942.000000,8787.000000,10203.000000,50082.000000
23988.000000,8742.000000,10177.000000,50167.000000
23996.000000,8709.000000,10141.000000,50041.000000
23962.000000,8736.000000,10122.000000,50069.000000
23853.000000,8773.000000,10161.000000,50095.000000
23918.000000,8738.000000,10142.000000,50068.000000
23957.000000,8759.000000,10054.000000,50048.000000
23911.000000,8739.000000,10076.000000,50099.000000
23915.000000,8732.000000,10149.000000,50075.000000
23825.000000,8723.000000,10029.000000,49933.000000
23937.000000,8635.000000,10066.000000,50026.000000
23895.000000,8689.000000,10112.000000,49996.000000
23851.000000,8641.000000,9970.000000,50057.000000
23878.000000,8740.000000,10024.000000,49984.000000
23717.000000,8667.000000,9947.000000,49984.000000
23648.000000,8628.000000,10044.000000,49986.000000
23740.000000,8641.000000,9918.000000,50002.000000
23710.000000,8533.000000,9907.000000,49883.000000
23636.000000,8640.000000,9955.000000,49948.000000
23674.000000,8609.000000,9992.000000,49956.000000
23669.000000,8606.000000,9877.000000,49943.000000
23692.000000,8567.000000,9815.000000,50000.000000
23565.000000,8636.000000,9862.000000,49899.000000
23614.000000,8513.000000,9829.000000,49906.000000
23705.000000,8496.000000,9829.000000,49903.000000
23564.000000,8481.000000,9921.000000,49837.000000
23636.000000,8460.000000,9860.000000,49887.000000
23665.000000,8466.000000,9873.000000,49896.000000
23613.000000,8441.000000,9813.000000,49882.000000
23662.000000,8477.000000,9823.000000,49878.000000
23664.000000,8475.000000,9906.000000,49825.000000
23609.000000,8550.000000,9827.000000,49799.000000
23674.000000,8433.000000,9903.000000,49962.000000
23588.000000,8442.000000,9817.000000,49873.000000
23546.000000,8524.000000,9788.000000,49910.000000
23521.000000,8501.000000,9750.000000,49910.000000
23519.000000,8382.000000,9775.000000,49852.000000
23529.000000,8484.000000,9797.000000,49771.000000
23561.000000,8553.000000,9786.000000,49803.000000
23493.000000,8412.000000,9753.000000,49839.000000
23509.000000,8416.000000,9805.000000,49766.000000
23492.000000,8424.000000,9719.000000,49865.000000
23410.000000,8359.000000,9702.000000,49805.000000
23377.000000,8383.000000,9684.000000,49785.000000
23401.000000,8350.000000,9663.000000,49763.000000
23422.000000,8256.000000,9722.000000,49767.000000
23441.000000,8346.000000,9579.000000,49763.000000
23364.000000,8288.000000,9639.000000,49839.000000
23390.000000,8176.000000,9581.000000,49756.000000
23387.000000,8353.000000,9580.000000,49781.000000
23414.000000,8360.000000,9517.000000,49760.000000
23391.000000,8287.000000,9525.000000,49763.000000
23305.000000,8304.000000,9592.000000,49705.000000
23318.000000,8325.000000,9594.000000,49766.000000
23312.000000,8253.000000,9559.000000,49671.000000
23290.000000,8316.000000,9529.000000,49693.000000
23224.000000,8159.000000,9517.000000,49758.000000
23302.000000,8221.000000,9525.000000,49762.000000
23290.000000,8175.000000,9528.000000,49680.000000
23215.000000,8253.000000,9439.000000,49658.000000
23168.000000,8122.000000,9423.000000,49628.000000
23271.000000,8175.000000,9425.000000,49690.000000
23197.000000,8228.000000,9413.000000,49667.000000
23144.000000,8134.000000,9397.000000,49652.000000
23199.000000,8133.000000,9380.000000,49584.000000
23117.000000,8108.000000,9340.000000,49625.000000
23139.000000,8118.000000,9396.000000,49579.000000
22983.000000,8153.000000,9385.000000,49695.000000
23081.000000,8207.000000,9303.000000,49496.000000
23072.000000,8091.000000,9325.000000,49637.000000
23022.000000,7976.000000,9272.000000,49563.000000
22896.000000,8095.000000,9253.000000,49561.000000
22923.000000,8090.000000,9232.000000,49566.000000
22979.000000,8030.000000,9226.000000,49565.000000
22988.000000,8041.000000,9211.000000,49490.000000
22907.000000,8016.000000,9241.000000,49469.000000
22986.000000,7968.000000,9155.000000,49537.000000
22888.000000,7950.000000,9216.000000,49526.000000
22957.000000,7980.000000,9152.000000,49515.000000
22916.000000,7896.000000,9102.000000,49523.000000
22886.000000,7884.000000,9123.000000,49439.000000
22814.000000,7913.000000,9052.000000,49425.000000
22856.000000,7858.000000,9068.000000,49393.000000
22778.000000,7824.000000,9040.000000,49484.000000
22735.000000,7896.000000,9005.000000,49419.000000
22749.000000,7849.000000,9005.000000,49448.000000
22634.000000,7853.000000,8990.000000,49460.000000
22685.000000,7816.000000,8925.000000,49374.000000
22695.000000,7826.000000,8972.000000,49329.000000
22782.000000,7828.000000,8849.000000,49334.000000
22659.000000,7729.000000,8932.000000,49488.000000
22599.000000,7740.000000,8802.000000,49295.000000
22692.000000,7705.000000,8796.000000,49406.000000
22667.000000,7855.000000,8795.000000,49297.000000
22614.000000,7723.000000,8829.000000,49357.000000
22573.000000,7759.000000,8827.000000,49268.000000
22603.000000,7738.000000,8801.000000,49249.000000
22609.000000,7720.000000,8880.000000,49348.000000
22555.000000,7606.000000,8764.000000,49367.000000
22440.000000,7698.000000,8771.000000,49337.000000
22500.000000,7699.000000,8768.000000,49378.000000
22470.000000,7685.000000,8691.000000,49239.000000
22436.000000,7589.000000,8739.000000,49330.000000
22401.000000,7566.000000,8661.000000,49163.000000
22486.000000,7619.000000,8657.000000,49224.000000
22543.000000,7646.000000,8631.000000,49208.000000
22367.000000,7576.000000,8656.000000,49209.000000
22356.000000,7554.000000,8624.000000,49089.000000
22410.000000,7600.000000,8642.000000,49230.000000
22336.000000,7531.000000,8584.000000,49174.000000
22365.000000,7532.000000,8608.000000,49189.000000
22339.000000,7466.000000,8601.000000,49123.000000
22332.000000,7472.000000,8641.000000,49172.000000
22332.000000,7511.000000,8475.000000,49178.000000
22374.000000,7498.000000,8575.000000,49153.000000
22210.000000,7439.000000,8551.000000,49195.000000
22383.000000,7465.000000,8627.000000,49216.000000
22352.000000,7525.000000,8595.000000,49100.000000
22281.000000,7448.000000,8472.000000,49182.000000
22296.000000,7403.000000,8425.000000,49071.000000
22316.000000,7413.000000,8465.000000,49184.000000
22244.000000,7435.000000,8476.000000,49176.000000
22145.000000,7420.000000,8480.000000,49046.000000
22197.000000,7415.000000,8428.000000,49122.000000
22126.000000,7340.000000,8353.000000,49079.000000
22213.000000,7396.000000,8371.000000,49069.000000
21981.000000,7255.000000,8312.000000,49062.000000
22127.000000,7249.000000,8317.000000,49018.000000
22053.000000,7213.000000,8299.000000,48992.000000
22001.000000,7277.000000,8174.000000,48952.000000
22004.000000,7249.000000,8259.000000,48977.000000
21856.000000,7179.000000,8242.000000,48881.000000
21871.000000,7132.000000,8204.000000,48961.000000
21915.000000,7261.000000,8232.000000,48912.000000
21870.000000,7128.000000,8140.000000,48929.000000
21955.000000,7145.000000,8111.000000,48965.000000
21944.000000,7206.000000,8077.000000,48863.000000
21885.000000,7187.000000,8147.000000,48884.000000
21815.000000,7099.000000,8142.000000,48907.000000
21952.000000,7140.000000,8147.000000,48887.000000
21928.000000,7195.000000,8153.000000,48986.000000
21903.000000,7158.000000,8187.000000,48891.000000
21906.000000,7126.000000,8087.000000,48830.000000
21915.000000,7185.000000,8150.000000,48957.000000
21984.000000,7161.000000,8057.000000,48953.000000
22012.000000,7282.000000,8222.000000,48920.000000
21945.000000,7225.000000,8130.000000,48972.000000
22038.000000,7186.000000,8173.000000,48982.000000
22037.000000,7256.000000,8244.000000,48983.000000
22033.000000,7222.000000,8310.000000,49018.000000
22042.000000,7250.000000,8313.000000,49051.000000
22172.000000,7300.000000,8361.000000,49001.000000
22158.000000,7267.000000,8470.000000,49153.000000
22107.000000,7356.000000,8377.000000,49032.000000
22209.000000,7304.000000,8416.000000,49050.000000
22227.000000,7453.000000,8478.000000,49102.000000
22287.000000,7450.000000,8580.000000,49101.000000
22222.000000,7408.000000,8582.000000,49153.000000
22302.000000,7510.000000,8574.000000,49124.000000
22440.000000,7452.000000,8624.000000,49295.000000
22394.000000,7627.000000,8716.000000,49233.000000
22503.000000,7631.000000,8852.000000,49164.000000
22531.000000,7723.000000,8866.000000,49322.000000
22626.000000,7726.000000,8817.000000,49416.000000
22616.000000,7796.000000,8895.000000,49410.000000
22657.000000,7835.000000,8912.000000,49485.000000
22763.000000,7828.000000,9022.000000,49423.000000
22850.000000,7971.000000,9123.000000,49460.000000
22864.000000,7931.000000,9208.000000,49499.000000
22989.000000,8030.000000,9224.000000,49533.000000
23044.000000,8027.000000,9244.000000,49632.000000
23091.000000,8119.000000,9471.000000,49647.000000
23147.000000,8201.000000,9591.000000,49792.000000
23176.000000,8274.000000,9543.000000,49727.000000
23291.000000,8334.000000,9625.000000,49811.000000
23433.000000,8371.000000,9791.000000,49891.000000
23457.000000,8365.000000,9790.000000,49779.000000
23484.000000,8554.000000,9873.000000,50001.000000
23571.000000,8442.000000,9917.000000,50006.000000
23636.000000,8557.000000,9977.000000,49903.000000
23765.000000,8567.000000,10000.000000,49956.000000
23793.000000,8588.000000,9999.000000,50022.000000
23822.000000,8663.000000,10148.000000,50102.000000
23781.000000,8643.000000,10162.000000,50097.000000
23906.000000,8766.000000,10176.000000,50136.000000
23818.000000,8838.000000,10230.000000,50103.000000
23951.000000,8753.000000,10225.000000,50107.000000
23896.000000,8750.000000,10224.000000,50069.000000
23936.000000,8697.000000,10217.000000,50095.000000
23836.000000,8719.000000,10181.000000,50111.000000
23899.000000,8734.000000,10219.000000,50106.000000
23898.000000,8721.000000,10234.000000,50089.000000
23905.000000,8716.000000,10214.000000,50054.000000
23824.000000,8658.000000,10132.000000,50073.000000
23785.000000,8795.000000,10144.000000,50116.000000
23834.000000,8725.000000,10177.000000,50050.000000
23672.000000,8629.000000,10035.000000,50134.000000
23780.000000,8654.000000,10104.000000,50102.000000
23808.000000,8579.000000,10156.000000,50041.000000
23828.000000,8678.000000,10078.000000,50043.000000
23721.000000,8722.000000,10054.000000,50157.000000
23761.000000,8681.000000,9997.000000,49994.000000
23820.000000,8682.000000,10075.000000,49968.000000
23757.000000,8642.000000,10013.000000,49953.000000
23745.000000,8641.000000,9919.000000,49887.000000
23740.000000,8614.000000,9996.000000,50021.000000
23739.000000,8673.000000,9996.000000,49997.000000
23730.000000,8577.000000,10003.000000,50001.000000
23701.000000,8507.000000,9976.000000,49932.000000
23665.000000,8576.000000,9929.000000,49974.000000
23764.000000,8530.000000,9874.000000,49962.000000
23632.000000,8490.000000,9984.000000,49958.000000
23592.000000,8522.000000,9818.000000,49983.000000
23600.000000,8492.000000,9867.000000,49942.000000
23657.000000,8496.000000,10028.000000,49898.000000
23553.000000,8528.000000,9899.000000,49952.000000
23480.000000,8529.000000,9786.000000,49841.000000
23580.000000,8461.000000,9808.000000,49926.000000
23543.000000,8527.000000,9874.000000,49907.000000
23581.000000,8406.000000,9769.000000,49935.000000
23434.000000,8462.000000,9861.000000,49899.000000
23490.000000,8402.000000,9751.000000,49906.000000
23600.000000,8432.000000,9752.000000,49862.000000
23535.000000,8469.000000,9713.000000,49836.000000
23474.000000,8342.000000,9770.000000,49823.000000
23493.000000,8420.000000,9819.000000,49822.000000
23566.000000,8447.000000,9748.000000,49960.000000
23496.000000,8347.000000,9738.000000,49858.000000
23484.000000,8353.000000,9709.000000,49880.000000
23470.000000,8383.000000,9772.000000,49804.000000
23388.000000,8361.000000,9731.000000,49780.000000
23493.000000,8392.000000,9704.000000,49831.000000
23434.000000,8385.000000,9735.000000,49845.000000
23440.000000,8523.000000,9694.000000,49778.000000
23315.000000,8339.000000,9695.000000,49849.000000
23252.000000,8313.000000,9597.000000,49781.000000
23341.000000,8269.000000,9607.000000,49782.000000
23386.000000,8254.000000,9639.000000,49800.000000
23310.000000,8303.000000,9688.000000,49789.000000
23207.000000,8296.000000,9554.000000,49699.000000
23287.000000,8266.000000,9605.000000,49732.000000
23359.000000,8261.000000,9564.000000,49765.000000
23265.000000,8277.000000,9603.000000,49735.000000
23158.000000,8167.000000,9491.000000,49833.000000
23334.000000,8278.000000,9543.000000,49803.000000
23304.000000,8336.000000,9602.000000,49744.000000
23311.000000,8342.000000,9565.000000,49728.000000
23223.000000,8278.000000,9547.000000,49713.000000
23284.000000,8343.000000,9494.000000,49746.000000
23205.000000,8183.000000,9511.000000,49700.000000
23263.000000,8306.000000,9581.000000,49754.000000
23282.000000,8254.000000,9523.000000,49672.000000
23141.000000,8281.000000,9504.000000,49720.000000
23234.000000,8127.000000,9422.000000,49748.000000
23255.000000,8270.000000,9425.000000,49747.000000
23133.000000,8135.000000,9351.000000,49683.000000
23099.000000,8042.000000,9334.000000,49693.000000
23057.000000,8135.000000,9427.000000,49638.000000
23115.000000,8101.000000,9367.000000,49659.000000
23074.000000,8114.000000,9400.000000,49668.000000
23136.000000,8097.000000,9412.000000,49684.000000
23024.000000,8047.000000,9425.000000,49689.000000
23058.000000,8060.000000,9313.000000,49613.000000
22976.000000,7951.000000,9323.000000,49639.000000
23072.000000,8087.000000,9321.000000,49619.000000
23019.000000,8047.000000,9297.000000,49562.000000
23124.000000,8070.000000,9224.000000,49690.000000
22847.000000,7975.000000,9259.000000,49475.000000
22983.000000,7907.000000,9238.000000,49553.000000
22944.000000,7989.000000,9211.000000,49563.000000
22955.000000,7957.000000,9163.000000,49558.000000
22816.000000,7962.000000,9187.000000,49541.000000
22872.000000,7936.000000,9162.000000,49547.000000
22939.000000,7924.000000,9158.000000,49611.000000
22819.000000,7954.000000,9152.000000,49397.000000
22802.000000,7870.000000,9192.000000,49434.000000
22779.000000,7866.000000,9150.000000,49467.000000
22869.000000,7897.000000,9084.000000,49427.000000
22818.000000,7904.000000,8995.000000,49548.000000
22781.000000,7845.000000,9026.000000,49357.000000
22765.000000,7911.000000,9091.000000,49418.000000
22700.000000,7878.000000,8986.000000,49372.000000
22708.000000,7851.000000,8943.000000,49437.000000
22691.000000,7781.000000,9003.000000,49378.000000
22697.000000,7890.000000,8886.000000,49365.000000
22645.000000,7781.000000,8934.000000,49375.000000
22562.000000,7720.000000,8939.000000,49402.000000
22613.000000,7647.000000,8884.000000,49413.000000
22585.000000,7741.000000,8816.000000,49330.000000
22570.000000,7735.000000,8880.000000,49299.000000
22447.000000,7632.000000,8871.000000,49335.000000
22537.000000,7623.000000,8742.000000,49284.000000
22531.000000,7540.000000,8811.000000,49232.000000
22466.000000,7712.000000,8828.000000,49301.000000
22420.000000,7574.000000,8737.000000,49230.000000
22480.000000,7588.000000,8791.000000,49314.000000
22463.000000,7666.000000,8704.000000,49301.000000
22455.000000,7582.000000,8670.000000,49278.000000
22355.000000,7584.000000,8698.000000,49156.000000
22451.000000,7548.000000,8660.000000,49305.000000
22471.000000,7584.000000,8610.000000,49189.000000
22398.000000,7623.000000,8722.000000,49281.000000
22324.000000,7435.000000,8628.000000,49120.000000
22373.000000,7486.000000,8637.000000,49212.000000
22285.000000,7517.000000,8642.000000,49212.000000
22243.000000,7554.000000,8509.000000,49171.000000
22271.000000,7432.000000,8675.000000,49130.000000
22272.000000,7471.000000,8551.000000,49144.000000
22332.000000,7497.000000,8650.000000,49132.000000
22272.000000,7437.000000,8640.000000,49139.000000
22296.000000,7472.000000,8494.000000,49175.000000
22273.000000,7449.000000,8529.000000,49253.000000
22265.000000,7453.000000,8529.000000,49175.000000
22206.000000,7437.000000,8551.000000,49141.000000
22230.000000,7385.000000,8495.000000,49078.000000
22235.000000,7424.000000,8460.000000,49151.000000
22213.000000,7316.000000,8525.000000,49163.000000
22128.000000,7389.000000,8484.000000,49109.000000
22109.000000,7356.000000,8494.000000,49133.000000
22095.000000,7322.000000,8397.000000,49095.000000
22147.000000,7259.000000,8413.000000,49044.000000
21961.000000,7319.000000,8315.000000,49104.000000
22051.000000,7206.000000,8396.000000,49001.000000
22022.000000,7241.000000,8266.000000,49038.000000
22008.000000,7263.000000,8256.000000,49031.000000
21791.000000,7273.000000,8283.000000,49071.000000
21864.000000,7209.000000,8172.000000,48964.000000
21797.000000,7156.000000,8230.000000,48898.000000
21860.000000,7161.000000,8072.000000,48957.000000
21730.000000,7157.000000,8175.000000,49030.000000
21734.000000,7094.000000,8105.000000,48907.000000
21781.000000,7028.000000,8117.000000,48896.000000
21766.000000,7143.000000,8130.000000,48883.000000
21778.000000,6994.000000,8055.000000,48893.000000
21744.000000,7105.000000,8053.000000,48817.000000
21816.000000,7044.000000,8090.000000,48868.000000
21725.000000,7090.000000,8127.000000,48908.000000
21788.000000,7021.000000,8152.000000,48900.000000
21751.000000,7090.000000,8097.000000,48966.000000
21841.000000,7144.000000,8154.000000,48938.000000
21862.000000,7054.000000,8093.000000,48975.000000
21672.000000,7078.000000,8098.000000,48913.000000
21833.000000,7104.000000,8165.000000,49017.000000
21770.000000,7159.000000,8129.000000,48953.000000
21851.000000,7136.000000,8176.000000,48868.000000
21875.000000,7131.000000,8151.000000,48976.000000
21888.000000,7156.000000,8182.000000,49024.000000
21921.000000,7197.000000,8322.000000,49045.000000
21905.000000,7345.000000,8275.000000,49026.000000
22003.000000,7235.000000,8455.000000,49060.000000
21970.000000,7263.000000,8332.000000,49077.000000
22022.000000,7246.000000,8433.000000,49120.000000
21949.000000,7271.000000,8357.000000,49080.000000
22089.000000,7340.000000,8508.000000,49117.000000
22231.000000,7339.000000,8417.000000,49186.000000
22148.000000,7491.000000,8471.000000,49126.000000
22264.000000,7410.000000,8517.000000,49178.000000
22258.000000,7477.000000,8648.000000,49147.000000
22338.000000,7505.000000,8662.000000,49209.000000
22311.000000,7536.000000,8677.000000,49254.000000
22395.000000,7507.000000,8730.000000,49209.000000
22431.000000,7620.000000,8782.000000,49314.000000
22526.000000,7619.000000,8898.000000,49358.000000
22616.000000,7787.000000,8885.000000,49387.000000
22638.000000,7755.000000,9071.000000,49472.000000
22788.000000,7771.000000,9042.000000,49523.000000
22816.000000,7898.000000,9156.000000,49578.000000
22877.000000,8026.000000,9283.000000,49536.000000
22951.000000,7932.000000,9318.000000,49613.000000
22973.000000,8078.000000,9390.000000,49642.000000
23160.000000,8208.000000,9307.000000,49707.000000
23286.000000,8213.000000,9580.000000,49793.000000
23262.000000,8282.000000,9607.000000,49751.000000
23425.000000,8307.000000,9627.000000,49840.000000
23451.000000,8392.000000,9780.000000,49863.000000
23599.000000,8490.000000,9877.000000,49934.000000
23660.000000,8485.000000,9980.000000,49920.000000
23629.000000,8590.000000,10000.000000,49952.000000
23667.000000,8579.000000,9993.000000,50060.000000
23809.000000,8594.000000,9988.000000,49979.000000
23714.000000,8664.000000,10105.000000,50164.000000
23819.000000,8654.000000,10150.000000,50023.000000
23781.000000,8615.000000,10126.000000,50091.000000
23703.000000,8681.000000,10190.000000,50081.000000
23757.000000,8730.000000,10113.000000,50080.000000
23781.000000,8694.000000,10131.000000,50054.000000
23805.000000,8696.000000,10148.000000,50164.000000
23743.000000,8627.000000,10139.000000,50095.000000
23819.000000,8641.000000,10117.000000,50059.000000
23715.000000,8711.000000,10053.000000,50070.000000
23734.000000,8587.000000,10036.000000,50027.000000
23777.000000,8643.000000,10043.000000,50060.000000
23698.000000,8597.000000,10065.000000,50067.000000
23695.000000,8567.000000,10024.000000,50003.000000
23734.000000,8543.000000,10068.000000,50058.000000
23764.000000,8639.000000,10047.000000,50028.000000
23768.000000,8591.000000,10075.000000,49994.000000
23741.000000,8647.000000,9967.000000,50024.000000
23657.000000,8640.000000,10021.000000,50134.000000
23650.000000,8544.000000,10057.000000,50045.000000
23688.000000,8533.000000,10040.000000,50076.000000
23740.000000,8547.000000,9927.000000,50025.000000
23682.000000,8566.000000,9990.000000,49907.000000
23632.000000,8538.000000,9926.000000,49966.000000
23609.000000,8480.000000,9968.000000,49988.000000
23594.000000,8539.000000,9963.000000,49918.000000
23648.000000,8594.000000,9928.000000,49979.000000
23536.000000,8487.000000,9759.000000,49977.000000
23590.000000,8487.000000,9877.000000,49983.000000
23550.000000,8380.000000,9865.000000,49986.000000
23536.000000,8465.000000,9870.000000,49988.000000
23520.000000,8416.000000,9772.000000,49870.000000
23514.000000,8425.000000,9903.000000,49922.000000
23508.000000,8424.000000,9774.000000,49900.000000
23533.000000,8405.000000,9739.000000,50056.000000
23383.000000,8399.000000,9732.000000,49948.000000
23552.000000,8393.000000,9764.000000,49889.000000
23477.000000,8447.000000,9727.000000,49808.000000
23479.000000,8390.000000,9807.000000,49994.000000
23458.000000,8338.000000,9745.000000,49755.000000
23504.000000,8433.000000,9806.000000,49904.000000
23515.000000,8472.000000,9868.000000,49898.000000
23458.000000,8422.000000,9684.000000,49849.000000
23386.000000,8363.000000,9726.000000,49861.000000
23427.000000,8401.000000,9703.000000,49866.000000
23368.000000,8319.000000,9760.000000,49960.000000
23367.000000,8341.000000,9701.000000,49935.000000
23318.000000,8325.000000,9667.000000,49888.000000
23345.000000,8272.000000,9714.000000,49873.000000
23346.000000,8274.000000,9679.000000,49813.000000
23261.000000,8265.000000,9690.000000,49867.000000
23235.000000,8273.000000,9597.000000,49828.000000
23322.000000,8314.000000,9709.000000,49811.000000
23268.000000,8280.000000,9592.000000,49818.000000
23259.000000,8232.000000,9588.000000,49807.000000
23225.000000,8220.000000,9676.000000,49793.000000
23287.000000,8233.000000,9525.000000,49797.000000
23232.000000,8282.000000,9572.000000,49778.000000
23150.000000,8177.000000,9564.000000,49717.000000
23260.000000,8173.000000,9497.000000,49807.000000
23157.000000,8206.000000,9539.000000,49771.000000
23165.000000,8193.000000,9631.000000,49755.000000
23253.000000,8117.000000,9537.000000,49728.000000
23146.000000,8197.000000,9501.000000,49716.000000
23233.000000,8140.000000,9505.000000,49711.000000
23171.000000,8195.000000,9528.000000,49784.000000
23152.000000,8147.000000,9469.000000,49731.000000
23078.000000,8099.000000,9476.000000,49762.000000
23167.000000,8094.000000,9351.000000,49729.000000
23110.000000,8058.000000,9375.000000,49663.000000
23008.000000,8041.000000,9382.000000,49608.000000
22979.000000,8061.000000,9331.000000,49622.000000
23056.000000,8064.000000,9366.000000,49655.000000
23040.000000,8078.000000,9295.000000,49617.000000
22874.000000,7975.000000,9285.000000,49641.000000
22913.000000,7935.000000,9211.000000,49578.000000
22869.000000,8015.000000,9235.000000,49641.000000
22839.000000,7929.000000,9267.000000,49509.000000
22830.000000,7922.000000,9154.000000,49557.000000
22818.000000,7998.000000,9172.000000,49562.000000
22850.000000,7909.000000,9146.000000,49541.000000
22807.000000,7914.000000,9101.000000,49589.000000
22751.000000,7822.000000,9030.000000,49564.000000
22678.000000,7989.000000,9119.000000,49491.000000
22827.000000,7806.000000,9140.000000,49481.000000
22747.000000,7874.000000,9111.000000,49554.000000
22721.000000,7846.000000,9007.000000,49502.000000
22713.000000,7766.000000,8984.000000,49584.000000
22725.000000,7764.000000,9120.000000,49516.000000
22760.000000,7774.000000,9061.000000,49407.000000
22726.000000,7684.000000,8952.000000,49430.000000
22617.000000,7811.000000,8918.000000,49363.000000
22638.000000,7788.000000,8945.000000,49485.000000
22583.000000,7683.000000,8836.000000,49395.000000
22538.000000,7692.000000,8841.000000,49363.000000
22537.000000,7620.000000,8842.000000,49408.000000
22522.000000,7648.000000,8822.000000,49318.000000
22427.000000,7615.000000,8824.000000,49348.000000
22465.000000,7539.000000,8847.000000,49329.000000
22470.000000,7579.000000,8770.000000,49277.000000
22479.000000,7521.000000,8750.000000,49237.000000
22420.000000,7608.000000,8749.000000,49345.000000
22465.000000,7549.000000,8759.000000,49155.000000
22351.000000,7452.000000,8680.000000,49337.000000
22407.000000,7505.000000,8746.000000,49242.000000
22383.000000,7481.000000,8694.000000,49275.000000
22320.000000,7465.000000,8720.000000,49310.000000
22471.000000,7511.000000,8750.000000,49264.000000
22332.000000,7509.000000,8641.000000,49284.000000
22277.000000,7455.000000,8643.000000,49237.000000
22308.000000,7510.000000,8574.000000,49179.000000
22233.000000,7551.000000,8614.000000,49189.000000
22323.000000,7531.000000,8685.000000,49257.000000
22278.000000,7417.000000,8611.000000,49221.000000
22272.000000,7454.000000,8630.000000,49230.000000
22321.000000,7466.000000,8604.000000,49296.000000
22299.000000,7464.000000,8589.000000,49226.000000
22298.000000,7478.000000,8644.000000,49168.000000
22299.000000,7398.000000,8627.000000,49261.000000
22246.000000,7546.000000,8698.000000,49260.000000
22290.000000,7394.000000,8592.000000,49285.000000
22224.000000,7412.000000,8654.000000,49235.000000
22305.000000,7418.000000,8567.000000,49120.000000
22107.000000,7375.000000,8560.000000,49155.000000
22199.000000,7477.000000,8589.000000,49237.000000
22323.000000,7444.000000,8554.000000,49204.000000
22080.000000,7408.000000,8482.000000,49157.000000
22124.000000,7369.000000,8473.000000,49137.000000
21953.000000,7260.000000,8416.000000,49169.000000
22094.000000,7312.000000,8373.000000,49159.000000
21980.000000,7298.000000,8509.000000,49138.000000
22146.000000,7190.000000,8348.000000,49084.000000
21951.000000,7231.000000,8316.000000,49064.000000
21904.000000,7282.000000,8278.000000,49021.000000
21873.000000,7216.000000,8311.000000,49053.000000
21850.000000,7164.000000,8279.000000,49082.000000
21834.000000,7143.000000,8218.000000,49035.000000
21862.000000,7077.000000,8159.000000,48918.000000
21796.000000,7086.000000,8272.000000,48946.000000
21682.000000,7238.000000,8130.000000,48892.000000
21646.000000,7068.000000,8117.000000,48986.000000
21650.000000,6990.000000,8056.000000,48905.000000
21666.000000,7028.000000,8156.000000,48927.000000
21729.000000,6977.000000,8143.000000,48867.000000
21641.000000,7027.000000,8126.000000,48997.000000
21698.000000,7067.000000,8127.000000,48970.000000
21558.000000,7079.000000,8125.000000,48865.000000
21721.000000,7027.000000,8153.000000,48965.000000
21754.000000,7041.000000,8167.000000,48930.000000
21787.000000,7050.000000,8145.000000,48938.000000
21821.000000,6979.000000,8098.000000,48982.000000
21790.000000,7131.000000,8162.000000,48976.000000
21769.000000,7044.000000,8197.000000,48911.000000
21779.000000,7181.000000,8237.000000,48982.000000
21724.000000,7086.000000,8163.000000,49013.000000
21865.000000,7207.000000,8220.000000,49044.000000
21829.000000,7135.000000,8227.000000,49065.000000
21882.000000,7222.000000,8203.000000,48964.000000
21939.000000,7105.000000,8354.000000,49145.000000
22032.000000,7226.000000,8339.000000,49087.000000
21992.000000,7292.000000,8396.000000,49129.000000
21981.000000,7222.000000,8466.000000,49014.000000
22076.000000,7370.000000,8433.000000,49044.000000
22152.000000,7371.000000,8562.000000,49136.000000
22106.000000,7351.000000,8562.000000,49249.000000
22142.000000,7444.000000,8609.000000,49231.000000
22173.000000,7477.000000,8613.000000,49259.000000
22238.000000,7495.000000,8667.000000,49368.000000
22277.000000,7490.000000,8812.000000,49287.000000
22388.000000,7576.000000,8816.000000,49446.000000
22306.000000,7726.000000,8796.000000,49346.000000
22444.000000,7681.000000,8935.000000,49432.000000
22564.000000,7780.000000,9019.000000,49448.000000
22658.000000,7790.000000,9114.000000,49521.000000
22680.000000,7832.000000,9155.000000,49485.000000
22771.000000,8013.000000,9187.000000,49575.000000
22782.000000,7973.000000,9326.000000,49616.000000
22981.000000,8027.000000,9427.000000,49816.000000
22978.000000,8031.000000,9509.000000,49758.000000
23091.000000,8077.000000,9542.000000,49800.000000
23216.000000,8189.000000,9626.000000,49773.000000
23201.000000,8313.000000,9673.000000,49923.000000
23365.000000,8320.000000,9634.000000,49899.000000
23470.000000,8387.000000,9724.000000,49891.000000
23466.000000,8375.000000,9871.000000,49914.000000
23444.000000,8390.000000,9783.000000,49952.000000
23409.000000,8471.000000,10031.000000,49976.000000
23540.000000,8446.000000,9858.000000,49922.000000
23609.000000,8509.000000,10000.000000,50024.000000
23583.000000,8527.000000,10052.000000,50083.000000
23619.000000,8511.000000,10017.000000,50030.000000
23686.000000,8598.000000,10055.000000,50051.000000
23629.000000,8517.000000,9951.000000,50067.000000
23634.000000,8528.000000,10032.000000,50032.000000
23608.000000,8607.000000,9974.000000,50081.000000
23590.000000,8482.000000,10027.000000,50062.000000
23674.000000,8550.000000,9938.000000,49999.000000
23545.000000,8384.000000,9924.000000,50046.000000
23581.000000,8465.000000,9930.000000,50043.000000
23595.000000,8524.000000,10008.000000,50067.000000
23520.000000,8516.000000,9980.000000,50014.000000
23516.000000,8520.000000,9829.000000,49976.000000
23579.000000,8398.000000,9951.000000,50010.000000
23463.000000,8376.000000,9746.000000,50005.000000
23462.000000,8354.000000,9971.000000,49938.000000
23456.000000,8396.000000,9798.000000,49879.000000
23274.000000,8376.000000,9790.000000,49869.000000
23386.000000,8297.000000,9798.000000,49888.000000
23422.000000,8390.000000,9743.000000,49892.000000
23309.000000,8249.000000,9771.000000,49864.000000
23353.000000,8369.000000,9699.000000,49910.000000
23304.000000,8294.000000,9696.000000,49863.000000
23228.000000,8313.000000,9664.000000,49904.000000
23265.000000,8309.000000,9672.000000,49976.000000
23293.000000,8239.000000,9639.000000,49836.000000
23336.000000,8225.000000,9664.000000,49799.000000
23293.000000,8218.000000,9610.000000,49862.000000
23224.000000,8243.000000,9634.000000,49893.000000
23309.000000,8308.000000,9585.000000,49789.000000
23187.000000,8217.000000,9651.000000,49874.000000
23147.000000,8178.000000,9580.000000,49800.000000
23196.000000,8194.000000,9535.000000,49775.000000
23206.000000,8164.000000,9558.000000,49783.000000
23212.000000,8234.000000,9526.000000,49797.000000
23124.000000,8148.000000,9536.000000,49765.000000
23187.000000,8052.000000,9618.000000,49788.000000
23158.000000,8088.000000,9449.000000,49706.000000
23135.000000,8222.000000,9529.000000,49782.000000
23135.000000,8063.000000,9443.000000,49749.000000
23146.000000,8173.000000,9493.000000,49682.000000
23053.000000,8133.000000,9582.000000,49772.000000
23049.000000,8126.000000,9551.000000,49743.000000
23057.000000,8146.000000,9469.000000,49786.000000
23108.000000,8213.000000,9507.000000,49730.000000
23191.000000,8084.000000,9502.000000,49820.000000
23044.000000,8137.000000,9519.000000,49750.000000
23091.000000,8025.000000,9372.000000,49615.000000
23099.000000,8208.000000,9514.000000,49755.000000
23055.000000,8105.000000,9455.000000,49709.000000
23060.000000,8146.000000,9446.000000,49706.000000
23009.000000,8037.000000,9441.000000,49607.000000
23020.000000,8023.000000,9456.000000,49619.000000
22979.000000,8059.000000,9394.000000,49698.000000
22955.000000,7988.000000,9392.000000,49694.000000
22966.000000,8026.000000,9358.000000,49603.000000
22951.000000,8144.000000,9305.000000,49540.000000
22904.000000,7965.000000,9307.000000,49679.000000
22946.000000,8093.000000,9323.000000,49652.000000
22806.000000,8007.000000,9255.000000,49604.000000
22937.000000,7875.000000,9245.000000,49678.000000
22900.000000,8002.000000,9338.000000,49621.000000
22791.000000,7931.000000,9217.000000,49545.000000
22821.000000,7947.000000,9199.000000,49572.000000
22861.000000,7922.000000,9247.000000,49601.000000
22826.000000,7899.000000,9260.000000,49585.000000
22785.000000,7898.000000,9241.000000,49613.000000
22687.000000,7917.000000,9083.000000,49578.000000
22677.000000,7859.000000,9152.000000,49529.000000
22782.000000,7933.000000,9142.000000,49607.000000
22766.000000,7777.000000,9135.000000,49577.000000
22707.000000,7821.000000,9069.000000,49534.000000
22695.000000,7842.000000,9039.000000,49567.000000
22669.000000,7818.000000,9102.000000,49528.000000
22642.000000,7727.000000,9089.000000,49507.000000
22644.000000,7658.000000,9015.000000,49435.000000
22583.000000,7694.000000,8994.000000,49465.000000
22595.000000,7833.000000,8976.000000,49420.000000
22610.000000,7685.000000,8991.000000,49461.000000
22633.000000,7694.000000,8883.000000,49357.000000
22541.000000,7750.000000,8985.000000,49395.000000
22499.000000,7690.000000,8892.000000,49426.000000
22533.000000,7711.000000,8876.000000,49399.000000
22521.000000,7672.000000,8874.000000,49380.000000
22501.000000,7660.000000,8750.000000,49408.000000
22439.000000,7539.000000,8818.000000,49348.000000
22292.000000,7570.000000,8779.000000,49306.000000
22323.000000,7656.000000,8718.000000,49387.000000
22274.000000,7470.000000,8683.000000,49345.000000
22366.000000,7510.000000,8789.000000,49412.000000
22150.000000,7501.000000,8763.000000,49202.000000
22266.000000,7541.000000,8691.000000,49338.000000
22301.000000,7436.000000,8701.000000,49379.000000
22275.000000,7452.000000,8703.000000,49313.000000
22099.000000,7451.000000,8700.000000,49295.000000
22262.000000,7512.000000,8591.000000,49277.000000
22248.000000,7493.000000,8626.000000,49283.000000
22280.000000,7450.000000,8733.000000,49215.000000
22178.000000,7443.000000,8639.000000,49252.000000
22198.000000,7495.000000,8530.000000,49251.000000
22286.000000,7457.000000,8642.000000,49231.000000
22262.000000,7485.000000,8673.000000,49251.000000
22122.000000,7401.000000,8630.000000,49227.000000
22143.000000,7451.000000,8628.000000,49190.000000
22161.000000,7378.000000,8564.000000,49217.000000
22171.000000,7423.000000,8606.000000,49163.000000
22085.000000,7282.000000,8521.000000,49231.000000
22106.000000,7410.000000,8598.000000,49227.000000
22079.000000,7420.000000,8518.000000,49249.000000
22089.000000,7352.000000,8584.000000,49221.000000
22115.000000,7356.000000,8511.000000,49208.000000
22100.000000,7335.000000,8464.000000,49210.000000
22070.000000,7328.000000,8529.000000,49142.000000
21980.000000,7355.000000,8458.000000,49198.000000
22090.000000,7345.000000,8428.000000,49236.000000
22109.000000,7305.000000,8495.000000,49220.000000
21996.000000,7304.000000,8549.000000,49190.000000
22093.000000,7194.000000,8483.000000,49131.000000
21975.000000,7300.000000,8440.000000,49133.000000
22077.000000,7281.000000,8441.000000,49184.000000
21994.000000,7256.000000,8448.000000,49154.000000
21940.000000,7065.000000,8344.000000,49228.000000
21897.000000,7212.000000,8335.000000,49095.000000
21807.000000,7228.000000,8322.000000,49128.000000
21850.000000,7108.000000,8294.000000,49023.000000
21759.000000,7061.000000,8271.000000,49046.000000
21762.000000,7112.000000,8211.000000,49015.000000
21668.000000,7051.000000,8194.000000,49052.000000
21639.000000,7020.000000,8119.000000,48983.000000
21497.000000,6932.000000,8138.000000,48914.000000
21549.000000,6960.000000,8057.000000,48904.000000
21611.000000,6912.000000,7972.000000,48871.000000
21565.000000,6986.000000,7982.000000,48848.000000
21397.000000,6810.000000,8044.000000,48842.000000
21415.000000,6893.000000,7876.000000,48845.000000
21432.000000,6776.000000,7935.000000,48867.000000
21363.000000,6839.000000,7943.000000,48904.000000
21289.000000,6863.000000,7851.000000,48850.000000
21485.000000,6805.000000,7919.000000,48842.000000
21403.000000,6855.000000,7950.000000,48815.000000
21418.000000,6844.000000,7890.000000,48848.000000
21379.000000,6776.000000,7884.000000,48860.000000
21391.000000,6898.000000,7929.000000,48930.000000
21481.000000,6852.000000,7861.000000,48876.000000
21407.000000,6873.000000,7965.000000,48891.000000
21460.000000,6903.000000,7862.000000,48876.000000
21403.000000,6852.000000,7965.000000,48884.000000
21586.000000,6893.000000,7899.000000,48888.000000
21463.000000,6847.000000,7987.000000,48888.000000
21547.000000,6903.000000,7998.000000,48891.000000
21609.000000,6908.000000,7997.000000,48887.000000
21547.000000,6927.000000,8011.000000,48992.000000
21518.000000,6949.000000,8005.000000,49048.000000
21680.000000,6956.000000,8096.000000,48902.000000
21774.000000,6991.000000,8087.000000,48958.000000
21676.000000,7057.000000,8137.000000,49113.000000
21685.000000,7047.000000,8162.000000,49070.000000
21728.000000,7056.000000,8179.000000,48974.000000
21793.000000,7119.000000,8245.000000,49021.000000
21840.000000,7236.000000,8258.000000,49045.000000
21864.000000,7207.000000,8341.000000,49083.000000
21974.000000,7233.000000,8414.000000,49170.000000
21977.000000,7235.000000,8489.000000,49264.000000
22061.000000,7366.000000,8573.000000,49235.000000
22122.000000,7392.000000,8587.000000,49278.000000
22215.000000,7478.000000,8722.000000,49316.000000
22287.000000,7543.000000,8741.000000,49351.000000
22433.000000,7657.000000,8844.000000,49361.000000
22515.000000,7658.000000,8894.000000,49450.000000
22562.000000,7741.000000,9052.000000,49503.000000
22664.000000,7738.000000,9112.000000,49523.000000
22708.000000,7876.000000,9160.000000,49586.000000
22776.000000,7881.000000,9348.000000,49671.000000
22854.000000,7973.000000,9345.000000,49636.000000
22924.000000,8077.000000,9388.000000,49733.000000
23077.000000,8054.000000,9509.000000,49837.000000
22955.000000,8123.000000,9474.000000,49820.000000
23199.000000,8160.000000,9648.000000,49816.000000
23212.000000,8219.000000,9706.000000,49891.000000
23292.000000,8332.000000,9723.000000,49807.000000
23201.000000,8315.000000,9774.000000,49917.000000
23423.000000,8425.000000,9688.000000,49895.000000
23477.000000,8408.000000,9875.000000,50100.000000
23514.000000,8339.000000,9764.000000,49964.000000
23331.000000,8373.000000,9829.000000,49933.000000
23485.000000,8379.000000,9843.000000,50027.000000
23476.000000,8434.000000,9856.000000,50023.000000
23484.000000,8342.000000,9779.000000,50002.000000
23357.000000,8384.000000,9811.000000,49985.000000
23422.000000,8394.000000,9782.000000,49900.000000
23419.000000,8364.000000,9756.000000,50057.000000
23400.000000,8291.000000,9785.000000,49933.000000
23360.000000,8346.000000,9765.000000,49927.000000
23284.000000,8335.000000,9788.000000,49828.000000
23307.000000,8292.000000,9750.000000,49910.000000
23305.000000,8299.000000,9768.000000,49929.000000
23325.000000,8283.000000,9815.000000,49902.000000
23302.000000,8253.000000,9686.000000,49921.000000
23351.000000,8355.000000,9640.000000,49908.000000
23177.000000,8306.000000,9618.000000,49901.000000
23240.000000,8247.000000,9643.000000,49819.000000
23248.000000,8240.000000,9735.000000,49875.000000
23174.000000,8274.000000,9645.000000,49931.000000
23127.000000,8154.000000,9722.000000,49768.000000
23183.000000,8189.000000,9589.000000,49866.000000
23161.000000,8236.000000,9488.000000,49856.000000
23087.000000,8202.000000,9582.000000,49856.000000
23103.000000,8095.000000,9514.000000,49795.000000
23110.000000,8113.000000,9559.000000,49849.000000
23155.000000,8134.000000,9555.000000,49780.000000
23154.000000,8092.000000,9461.000000,49851.000000
22994.000000,8117.000000,9529.000000,49795.000000
23149.000000,8135.000000,9455.000000,49777.000000
23122.000000,8058.000000,9477.000000,49807.000000
23063.000000,8083.000000,9454.000000,49787.000000
23000.000000,7956.000000,9428.000000,49818.000000
23047.000000,8028.000000,9395.000000,49762.000000
23051.000000,8067.000000,9405.000000,49788.000000
23037.000000,8080.000000,9482.000000,49725.000000
22980.000000,8012.000000,9440.000000,49680.000000
23004.000000,8043.000000,9456.000000,49685.000000
22993.000000,7992.000000,9362.000000,49731.000000
22948.000000,8045.000000,9428.000000,49737.000000
22825.000000,7875.000000,9369.000000,49763.000000
22894.000000,7969.000000,9328.000000,49654.000000
22845.000000,8037.000000,9349.000000,49678.000000
22928.000000,7952.000000,9286.000000,49669.000000
22805.000000,8005.000000,9325.000000,49673.000000
22779.000000,8004.000000,9294.000000,49664.000000
22886.000000,8076.000000,9337.000000,49723.000000
22895.000000,7956.000000,9256.000000,49600.000000
22825.000000,7836.000000,9240.000000,49599.000000
22819.000000,7994.000000,9243.000000,49716.000000
22772.000000,7906.000000,9263.000000,49638.000000
22799.000000,7897.000000,9257.000000,49655.000000
22632.000000,7814.000000,9208.000000,49665.000000
22751.000000,7878.000000,9134.000000,49594.000000
22743.000000,7961.000000,9178.000000,49692.000000
22698.000000,7879.000000,9128.000000,49609.000000
22850.000000,7809.000000,9060.000000,49540.000000
22696.000000,7790.000000,9121.000000,49615.000000
22733.000000,7918.000000,9116.000000,49590.000000
22681.000000,7767.000000,9100.000000,49551.000000
22699.000000,7777.000000,9027.000000,49439.000000
22690.000000,7736.000000,9101.000000,49656.000000
22626.000000,7820.000000,9045.000000,49533.000000
22605.000000,7737.000000,9022.000000,49645.000000
22644.000000,7779.000000,9105.000000,49543.000000
22654.000000,7768.000000,9086.000000,49717.000000
22613.000000,7757.000000,9009.000000,49521.000000
22575.000000,7760.000000,9005.000000,49503.000000
22547.000000,7732.000000,9052.000000,49487.000000
22615.000000,7731.000000,8983.000000,49509.000000
22552.000000,7696.000000,9040.000000,49590.000000
22534.000000,7692.000000,8913.000000,49480.000000
22539.000000,7705.000000,8915.000000,49473.000000
22567.000000,7638.000000,8869.000000,49413.000000
22531.000000,7675.000000,8918.000000,49549.000000
22377.000000,7684.000000,8996.000000,49450.000000
22489.000000,7559.000000,8818.000000,49417.000000
22470.000000,7586.000000,8863.000000,49460.000000
22437.000000,7648.000000,8738.000000,49381.000000
22328.000000,7662.000000,8849.000000,49388.000000
22352.000000,7606.000000,8745.000000,49411.000000
22373.000000,7503.000000,8838.000000,49318.000000
22417.000000,7507.000000,8844.000000,49396.000000
22266.000000,7546.000000,8814.000000,49449.000000
22343.000000,7509.000000,8744.000000,49357.000000
22252.000000,7458.000000,8746.000000,49322.000000
22345.000000,7531.000000,8703.000000,49426.000000
22262.000000,7497.000000,8661.000000,49352.000000
22242.000000,7495.000000,8774.000000,49204.000000
22257.000000,7517.000000,8693.000000,49308.000000
22153.000000,7468.000000,8655.000000,49401.000000
22277.000000,7434.000000,8570.000000,49271.000000
22211.000000,7495.000000,8673.000000,49306.000000
22146.000000,7385.000000,8611.000000,49238.000000
22090.000000,7360.000000,8720.000000,49281.000000
22143.000000,7346.000000,8557.000000,49267.000000
22092.000000,7333.000000,8522.000000,49167.000000
22057.000000,7362.000000,8527.000000,49250.000000
21939.000000,7333.000000,8498.000000,49220.000000
21964.000000,7263.000000,8483.000000,49240.000000
21954.000000,7284.000000,8443.000000,49230.000000
22010.000000,7283.000000,8511.000000,49212.000000
21962.000000,7191.000000,8459.000000,49189.000000
21931.000000,7250.000000,8413.000000,49180.000000
21832.000000,7157.000000,8386.000000,49226.000000
21942.000000,7172.000000,8370.000000,49125.000000
21812.000000,7221.000000,8289.000000,49138.000000
22009.000000,7178.000000,8258.000000,49126.000000
21760.000000,7146.000000,8304.000000,49108.000000
21993.000000,7249.000000,8319.000000,49121.000000
21732.000000,7104.000000,8297.000000,49130.000000
21842.000000,7192.000000,8360.000000,49234.000000
21823.000000,7165.000000,8343.000000,49073.000000
21674.000000,7101.000000,8275.000000,49040.000000
21719.000000,7020.000000,8188.000000,49162.000000
21833.000000,7121.000000,8240.000000,49050.000000
21741.000000,7136.000000,8227.000000,49023.000000
21668.000000,7063.000000,8197.000000,49104.000000
21743.000000,7073.000000,8176.000000,48962.000000
21669.000000,7003.000000,8251.000000,49061.000000
21605.000000,7117.000000,8193.000000,49007.000000
21641.000000,7101.000000,8173.000000,49035.000000
21568.000000,7137.000000,8193.000000,49045.000000
21628.000000,7046.000000,8157.000000,49053.000000
21639.000000,7014.000000,8171.000000,49012.000000
21643.000000,7022.000000,8175.000000,49098.000000
21579.000000,6980.000000,8109.000000,48960.000000
21601.000000,6989.000000,8104.000000,49011.000000
21606.000000,7010.000000,8077.000000,48944.000000
21620.000000,7014.000000,8078.000000,49003.000000
21480.000000,6965.000000,8165.000000,48996.000000
21573.000000,7016.000000,8054.000000,48882.000000
21547.000000,6878.000000,8068.000000,48983.000000
21499.000000,6914.000000,8014.000000,48922.000000
21395.000000,6815.000000,7962.000000,48892.000000
21470.000000,6935.000000,8051.000000,48924.000000
21435.000000,6834.000000,7913.000000,48931.000000
21392.000000,6736.000000,7816.000000,48885.000000
21278.000000,6719.000000,7749.000000,48886.000000
21357.000000,6738.000000,7887.000000,48801.000000
21261.000000,6731.000000,7726.000000,48766.000000
21190.000000,6737.000000,7692.000000,48878.000000
21155.000000,6704.000000,7853.000000,48747.000000
20973.000000,6647.000000,7752.000000,48735.000000
21139.000000,6717.000000,7744.000000,48761.000000
21075.000000,6674.000000,7738.000000,48720.000000
21076.000000,6644.000000,7683.000000,48759.000000
21059.000000,6623.000000,7696.000000,48731.000000
21056.000000,6643.000000,7627.000000,48707.000000
21073.000000,6595.000000,7668.000000,48790.000000
21130.000000,6600.000000,7607.000000,48771.000000
21083.000000,6652.000000,7758.000000,48760.000000
21161.000000,6639.000000,7760.000000,48781.000000
21228.000000,6575.000000,7781.000000,48737.000000
21232.000000,6701.000000,7719.000000,48737.000000
21137.000000,6662.000000,7757.000000,48850.000000
21098.000000,6661.000000,7793.000000,48798.000000
21182.000000,6701.000000,7795.000000,48858.000000
21227.000000,6634.000000,7752.000000,48823.000000
21225.000000,6737.000000,7850.000000,48785.000000
21304.000000,6814.000000,7874.000000,48838.000000
21325.000000,6731.000000,7812.000000,48885.000000
21313.000000,6847.000000,7901.000000,48822.000000
21384.000000,6783.000000,7923.000000,48977.000000
21365.000000,6752.000000,7970.000000,48992.000000
21468.000000,6754.000000,7956.000000,48906.000000
21478.000000,6977.000000,8035.000000,48950.000000
21520.000000,6981.000000,8080.000000,48970.000000
21591.000000,7027.000000,8127.000000,48973.000000
21468.000000,6963.000000,8195.000000,49069.000000
21597.000000,7010.000000,8230.000000,49017.000000
21660.000000,7051.000000,8223.000000,49002.000000
21710.000000,7118.000000,8353.000000,49181.000000
21880.000000,7164.000000,8418.000000,49138.000000
21910.000000,7231.000000,8503.000000,49218.000000
21998.000000,7412.000000,8592.000000,49262.000000
22031.000000,7306.000000,8627.000000,49361.000000
21999.000000,7396.000000,8681.000000,49245.000000
22204.000000,7427.000000,8816.000000,49478.000000
22271.000000,7524.000000,8890.000000,49455.000000
22321.000000,7618.000000,8911.000000,49424.000000
22426.000000,7675.000000,8985.000000,49583.000000
22415.000000,7736.000000,9152.000000,49539.000000
22613.000000,7788.000000,9142.000000,49631.000000
22596.000000,7876.000000,9259.000000,49594.000000
22735.000000,7908.000000,9396.000000,49676.000000
22890.000000,7979.000000,9366.000000,49818.000000
22981.000000,8051.000000,9534.000000,49871.000000
22841.000000,8050.000000,9550.000000,49877.000000
23078.000000,8115.000000,9663.000000,49975.000000
23038.000000,8220.000000,9685.000000,49896.000000
23203.000000,8253.000000,9723.000000,49947.000000
23235.000000,8365.000000,9851.000000,49937.000000
23206.000000,8251.000000,9859.000000,49973.000000
23236.000000,8349.000000,9865.000000,50049.000000
23291.000000,8302.000000,9794.000000,50025.000000
23271.000000,8318.000000,9805.000000,50035.000000
23279.000000,8356.000000,9846.000000,50002.000000
23315.000000,8245.000000,9915.000000,50051.000000
23230.000000,8336.000000,9954.000000,49982.000000
23290.000000,8343.000000,9918.000000,50022.000000
23275.000000,8313.000000,9797.000000,49976.000000
23344.000000,8325.000000,9833.000000,49996.000000
23281.000000,8243.000000,9814.000000,49993.000000
23213.000000,8273.000000,9828.000000,49990.000000
23216.000000,8300.000000,9896.000000,50020.000000
23305.000000,8225.000000,9784.000000,49914.000000
23222.000000,8263.000000,9744.000000,49973.000000
23127.000000,8316.000000,9775.000000,49969.000000
23249.000000,8254.000000,9847.000000,49955.000000
23203.000000,8291.000000,9789.000000,49953.000000
23059.000000,8247.000000,9701.000000,49994.000000
23107.000000,8213.000000,9691.000000,49893.000000
23132.000000,8141.000000,9641.000000,49954.000000
23141.000000,8214.000000,9741.000000,49927.000000
23076.000000,8239.000000,9731.000000,49868.000000
23021.000000,8225.000000,9640.000000,49835.000000
23090.000000,8160.000000,9636.000000,49931.000000
23031.000000,8152.000000,9661.000000,49903.000000
23047.000000,8143.000000,9636.000000,49839.000000
22846.000000,8036.000000,9589.000000,49920.000000
22982.000000,8099.000000,9596.000000,49870.000000
22999.000000,8140.000000,9537.000000,49848.000000
22991.000000,8036.000000,9545.000000,49913.000000
22915.000000,8088.000000,9460.000000,49859.000000
22897.000000,8036.000000,9562.000000,49863.000000
22830.000000,8034.000000,9466.000000,49860.000000
22906.000000,8090.000000,9488.000000,49780.000000
22791.000000,8105.000000,9487.000000,49719.000000
22798.000000,7951.000000,9347.000000,49922.000000
22860.000000,7999.000000,9413.000000,49759.000000
22772.000000,7964.000000,9523.000000,49776.000000
22834.000000,8033.000000,9451.000000,49775.000000
22807.000000,7990.000000,9426.000000,49777.000000
22822.000000,8020.000000,9379.000000,49653.000000
22783.000000,7908.000000,9410.000000,49820.000000
22729.000000,7900.000000,9396.000000,49728.000000
22795.000000,7976.000000,9317.000000,49798.000000
22716.000000,7899.000000,9298.000000,49766.000000
22752.000000,7966.000000,9296.000000,49639.000000
22768.000000,7832.000000,9380.000000,49701.000000
22632.000000,7949.000000,9338.000000,49660.000000
22792.000000,7850.000000,9306.000000,49647.000000
22641.000000,7831.000000,9309.000000,49643.000000
22649.000000,7913.000000,9224.000000,49672.000000
22610.000000,7745.000000,9249.000000,49615.000000
22601.000000,7856.000000,9251.000000,49678.000000
22623.000000,7814.000000,9186.000000,49705.000000
22619.000000,7867.000000,9237.000000,49715.000000
22618.000000,7750.000000,9222.000000,49550.000000
22668.000000,7784.000000,9242.000000,49631.000000
22500.000000,7810.000000,9117.000000,49559.000000
22600.000000,7791.000000,9216.000000,49602.000000
22544.000000,7770.000000,9131.000000,49575.000000
22418.000000,7735.000000,9130.000000,49603.000000
22488.000000,7711.000000,9040.000000,49634.000000
22497.000000,7747.000000,9133.000000,49634.000000
22569.000000,7754.000000,9117.000000,49653.000000
22447.000000,7627.000000,9087.000000,49527.000000
22407.000000,7613.000000,9060.000000,49479.000000
22492.000000,7635.000000,8977.000000,49526.000000
22475.000000,7700.000000,8982.000000,49570.000000
22293.000000,7723.000000,9068.000000,49552.000000
22399.000000,7619.000000,8971.000000,49562.000000
22497.000000,7657.000000,9033.000000,49568.000000
22401.000000,7635.000000,9029.000000,49490.000000
22136.000000,7624.000000,8949.000000,49505.000000
22405.000000,7577.000000,8952.000000,49535.000000
22334.000000,7519.000000,8932.000000,49537.000000
22271.000000,7632.000000,8925.000000,49475.000000
22406.000000,7636.000000,8963.000000,49491.000000
22247.000000,7565.000000,8915.000000,49452.000000
22361.000000,7546.000000,8802.000000,49434.000000
22323.000000,7498.000000,8800.000000,49390.000000
22137.000000,7438.000000,8758.000000,49425.000000
22188.000000,7572.000000,8808.000000,49478.000000
22150.000000,7462.000000,8798.000000,49311.000000
22126.000000,7464.000000,8851.000000,49416.000000
22125.000000,7477.000000,8754.000000,49357.000000
22166.000000,7452.000000,8771.000000,49310.000000
22131.000000,7434.000000,8732.000000,49384.000000
22071.000000,7437.000000,8754.000000,49378.000000
22004.000000,7415.000000,8696.000000,49333.000000
22035.000000,7294.000000,8664.000000,49414.000000
22008.000000,7351.000000,8652.000000,49328.000000
21982.000000,7356.000000,8516.000000,49237.000000
21895.000000,7255.000000,8550.000000,49275.000000
21820.000000,7411.000000,8566.000000,49209.000000
21831.000000,7333.000000,8613.000000,49209.000000
21926.000000,7218.000000,8467.000000,49336.000000
21813.000000,7205.000000,8507.000000,49230.000000
21889.000000,7228.000000,8476.000000,49249.000000
21797.000000,7216.000000,8507.000000,49281.000000
21747.000000,7163.000000,8440.000000,49196.000000
21769.000000,7259.000000,8536.000000,49237.000000
21818.000000,7201.000000,8410.000000,49164.000000
21682.000000,7206.000000,8378.000000,49110.000000
21709.000000,7025.000000,8426.000000,49094.000000
21709.000000,7134.000000,8384.000000,49156.000000
21685.000000,7075.000000,8446.000000,49148.000000
21600.000000,7029.000000,8336.000000,49148.000000
21609.000000,7083.000000,8280.000000,49116.000000
21643.000000,7128.000000,8254.000000,49032.000000
21568.000000,6949.000000,8272.000000,49112.000000
21621.000000,7059.000000,8230.000000,49121.000000
21666.000000,7065.000000,8239.000000,49156.000000
21607.000000,7110.000000,8272.000000,49166.000000
21577.000000,7011.000000,8183.000000,49056.000000
21641.000000,7065.000000,8247.000000,49125.000000
21643.000000,6977.000000,8308.000000,49097.000000
21538.000000,7047.000000,8219.000000,49121.000000
21535.000000,6996.000000,8249.000000,49001.000000
21537.000000,7013.000000,8188.000000,49073.000000
21581.000000,6995.000000,8215.000000,49039.000000
21514.000000,6965.000000,8162.000000,49029.000000
21575.000000,6919.000000,8180.000000,49115.000000
21516.000000,6938.000000,8109.000000,49024.000000
21385.000000,6907.000000,8259.000000,49098.000000
21500.000000,6941.000000,8095.000000,49089.000000
21446.000000,6882.000000,8044.000000,48976.000000
21371.000000,6866.000000,8124.000000,49037.000000
21314.000000,6796.000000,8013.000000,48962.000000
21307.000000,6780.000000,7937.000000,48962.000000
21230.000000,6696.000000,7950.000000,48923.000000
21263.000000,6722.000000,7937.000000,48952.000000
21231.000000,6749.000000,7954.000000,48936.000000
21273.000000,6691.000000,7846.000000,48848.000000
21154.000000,6756.000000,7887.000000,48903.000000
21227.000000,6647.000000,7871.000000,48872.000000
21134.000000,6638.000000,7821.000000,48759.000000
21104.000000,6610.000000,7860.000000,48952.000000
21111.000000,6629.000000,7857.000000,48817.000000
21140.000000,6611.000000,7841.000000,48910.000000
20968.000000,6680.000000,7794.000000,48812.000000
21171.000000,6562.000000,7769.000000,48875.000000
21035.000000,6585.000000,7761.000000,48781.000000
21030.000000,6635.000000,7822.000000,48847.000000
21108.000000,6762.000000,7745.000000,48819.000000
21099.000000,6683.000000,7772.000000,48882.000000
21116.000000,6678.000000,7821.000000,48808.000000
21103.000000,6654.000000,7880.000000,48932.000000
21074.000000,6704.000000,7846.000000,48883.000000
21080.000000,6645.000000,7849.000000,48816.000000
20988.000000,6587.000000,7905.000000,48867.000000
21110.000000,6763.000000,7882.000000,48907.000000
21271.000000,6759.000000,7932.000000,48899.000000
21167.000000,6697.000000,7969.000000,48886.000000
21227.000000,6747.000000,8014.000000,48938.000000
21252.000000,6826.000000,7977.000000,48932.000000
21327.000000,6848.000000,8057.000000,48994.000000
21343.000000,6932.000000,8075.000000,49005.000000
21455.000000,6913.000000,8147.000000,49068.000000
21412.000000,6978.000000,8155.000000,49106.000000
21468.000000,6968.000000,8194.000000,49091.000000
21595.000000,6988.000000,8238.000000,49100.000000
21617.000000,7051.000000,8349.000000,49137.000000
21583.000000,7014.000000,8425.000000,49189.000000
21608.000000,7149.000000,8412.000000,49221.000000
21638.000000,7157.000000,8435.000000,49206.000000
21638.000000,7191.000000,8502.000000,49276.000000
21873.000000,7290.000000,8479.000000,49216.000000
21957.000000,7264.000000,8604.000000,49279.000000
21874.000000,7538.000000,8674.000000,49307.000000
22017.000000,7411.000000,8826.000000,49452.000000
22069.000000,7530.000000,8816.000000,49501.000000
22176.000000,7572.000000,8918.000000,49499.000000
22243.000000,7631.000000,9049.000000,49689.000000
22320.000000,7720.000000,9149.000000,49528.000000
22464.000000,7699.000000,9179.000000,49713.000000
22573.000000,7689.000000,9254.000000,49666.000000
22443.000000,7746.000000,9335.000000,49754.000000
22646.000000,7912.000000,9468.000000,49813.000000
22735.000000,7954.000000,9516.000000,49782.000000
22859.000000,7992.000000,9599.000000,49892.000000
22862.000000,8119.000000,9706.000000,49893.000000
23026.000000,8166.000000,9742.000000,49978.000000
23007.000000,8231.000000,9755.000000,49995.000000
23091.000000,8193.000000,9884.000000,50038.000000
23166.000000,8276.000000,9925.000000,50013.000000
23183.000000,8271.000000,9905.000000,50106.000000
23265.000000,8355.000000,9969.000000,50083.000000
23294.000000,8398.000000,10073.000000,50152.000000
23277.000000,8417.000000,10097.000000,50255.000000
23242.000000,8427.000000,10133.000000,50072.000000
23327.000000,8447.000000,10117.000000,50153.000000
23313.000000,8303.000000,9953.000000,50142.000000
23278.000000,8443.000000,10056.000000,50169.000000
23329.000000,8396.000000,10097.000000,50201.000000
23256.000000,8415.000000,10008.000000,50095.000000
23251.000000,8414.000000,10026.000000,50001.000000
23218.000000,8473.000000,10067.000000,50131.000000
23295.000000,8340.000000,10053.000000,50111.000000
23176.000000,8369.000000,9989.000000,50095.000000
23188.000000,8312.000000,9963.000000,50097.000000
23161.000000,8349.000000,9965.000000,50080.000000
23125.000000,8451.000000,10017.000000,50185.000000
23137.000000,8354.000000,10005.000000,50079.000000
23202.000000,8363.000000,9965.000000,50103.000000
23143.000000,8292.000000,9958.000000,50172.000000
23248.000000,8290.000000,9932.000000,50111.000000
23164.000000,8244.000000,9912.000000,50124.000000
23120.000000,8320.000000,9891.000000,50099.000000
23178.000000,8248.000000,9870.000000,50099.000000
23170.000000,8265.000000,9872.000000,49963.000000
23115.000000,8293.000000,9869.000000,50021.000000
23000.000000,8222.000000,9779.000000,50223.000000
23073.000000,8254.000000,9872.000000,49998.000000
23027.000000,8350.000000,9739.000000,49982.000000
23084.000000,8275.000000,9891.000000,50046.000000
23042.000000,8201.000000,9866.000000,49959.000000
23052.000000,8218.000000,9739.000000,50001.000000
22990.000000,8261.000000,9819.000000,49950.000000
23047.000000,8210.000000,9786.000000,50074.000000
22944.000000,8195.000000,9763.000000,49949.000000
22981.000000,8152.000000,9775.000000,49942.000000
22975.000000,8251.000000,9772.000000,49954.000000
23121.000000,8103.000000,9721.000000,50011.000000
22976.000000,8226.000000,9752.000000,49975.000000
22919.000000,8202.000000,9709.000000,49992.000000
22953.000000,8185.000000,9791.000000,49972.000000
22976.000000,8193.000000,9700.000000,49949.000000
22892.000000,8085.000000,9677.000000,49862.000000
23048.000000,8082.000000,9669.000000,49955.000000
22963.000000,8154.000000,9740.000000,49932.000000
22900.000000,8103.000000,9708.000000,49930.000000
22848.000000,8074.000000,9676.000000,49921.000000
22964.000000,8099.000000,9713.000000,49861.000000
22836.000000,8072.000000,9586.000000,49930.000000
22873.000000,8072.000000,9567.000000,49979.000000
22877.000000,8049.000000,9570.000000,49944.000000
22851.000000,7988.000000,9630.000000,49915.000000
22768.000000,8061.000000,9568.000000,49899.000000
22771.000000,8011.000000,9551.000000,49749.000000
22716.000000,7994.000000,9555.000000,49824.000000
22710.000000,8050.000000,9551.000000,49835.000000
22760.000000,8002.000000,9483.000000,49831.000000
22658.000000,7919.000000,9572.000000,49914.000000
22715.000000,7931.000000,9489.000000,49856.000000
22614.000000,7945.000000,9471.000000,49832.000000
22635.000000,7898.000000,9461.000000,49773.000000
22632.000000,7940.000000,9487.000000,49761.000000
22635.000000,7947.000000,9511.000000,49776.000000
22708.000000,7899.000000,9336.000000,49794.000000
22639.000000,7855.000000,9402.000000,49763.000000
22685.000000,7817.000000,9399.000000,49764.000000
22600.000000,7809.000000,9361.000000,49750.000000
22685.000000,7913.000000,9372.000000,49762.000000
22504.000000,7825.000000,9343.000000,49708.000000
22477.000000,7847.000000,9301.000000,49671.000000
22583.000000,7812.000000,9232.000000,49680.000000
22473.000000,7812.000000,9304.000000,49710.000000
22457.000000,7770.000000,9237.000000,49715.000000
22364.000000,7785.000000,9257.000000,49582.000000
22426.000000,7675.000000,9169.000000,49674.000000
22471.000000,7704.000000,9194.000000,49603.000000
22380.000000,7649.000000,9199.000000,49660.000000
22306.000000,7747.000000,9175.000000,49622.000000
22307.000000,7884.000000,9144.000000,49671.000000
22401.000000,7685.000000,9209.000000,49651.000000
22350.000000,7672.000000,9150.000000,49574.000000
22359.000000,7523.000000,9052.000000,49574.000000
22243.000000,7690.000000,8945.000000,49537.000000
22279.000000,7608.000000,9051.000000,49654.000000
22229.000000,7623.000000,9046.000000,49557.000000
22251.000000,7590.000000,9072.000000,49601.000000
22125.000000,7590.000000,8918.000000,49545.000000
22230.000000,7447.000000,8920.000000,49621.000000
22241.000000,7576.000000,8973.000000,49489.000000
22081.000000,7521.000000,8850.000000,49485.000000
22070.000000,7504.000000,8920.000000,49567.000000
22120.000000,7505.000000,8868.000000,49471.000000
22122.000000,7512.000000,8749.000000,49507.000000
22048.000000,7422.000000,8870.000000,49549.000000
22108.000000,7416.000000,8783.000000,49416.000000
22093.000000,7411.000000,8826.000000,49422.000000
21971.000000,7484.000000,8780.000000,49397.000000
22011.000000,7492.000000,8820.000000,49394.000000
22013.000000,7331.000000,8813.000000,49394.000000
21999.000000,7422.000000,8694.000000,49424.000000
21901.000000,7352.000000,8755.000000,49401.000000
21905.000000,7330.000000,8792.000000,49365.000000
21919.000000,7349.000000,8756.000000,49373.000000
21854.000000,7387.000000,8648.000000,49355.000000
21922.000000,7417.000000,8661.000000,49294.000000
21809.000000,7322.000000,8664.000000,49334.000000
21867.000000,7361.000000,8766.000000,49356.000000
21911.000000,7376.000000,8729.000000,49388.000000
21782.000000,7229.000000,8683.000000,49324.000000
21795.000000,7307.000000,8658.000000,49278.000000
21860.000000,7243.000000,8600.000000,49317.000000
21761.000000,7273.000000,8678.000000,49325.000000
21809.000000,7234.000000,8692.000000,49309.000000
21807.000000,7326.000000,8681.000000,49308.000000
21791.000000,7204.000000,8537.000000,49325.000000
21724.000000,7214.000000,8630.000000,49261.000000
21684.000000,7256.000000,8471.000000,49334.000000
21675.000000,7176.000000,8605.000000,49331.000000
21713.000000,7254.000000,8481.000000,49271.000000
21588.000000,7258.000000,8522.000000,49261.000000
21585.000000,7159.000000,8523.000000,49198.000000
21663.000000,7120.000000,8475.000000,49246.000000
21564.000000,7276.000000,8352.000000,49263.000000
21608.000000,7135.000000,8386.000000,49174.000000
21524.000000,7031.000000,8402.000000,49198.000000
21551.000000,7159.000000,8350.000000,49187.000000
21543.000000,7075.000000,8333.000000,49256.000000
21384.000000,6976.000000,8290.000000,49070.000000
21451.000000,7052.000000,8264.000000,49132.000000
21439.000000,6991.000000,8272.000000,49116.000000
21361.000000,6929.000000,8166.000000,49103.000000
21408.000000,6927.000000,8240.000000,48959.000000
21350.000000,6921.000000,8196.000000,49011.000000
21287.000000,6737.000000,8177.000000,49106.000000
21284.000000,6821.000000,8129.000000,49035.000000
21206.000000,6759.000000,8198.000000,49043.000000
21261.000000,6796.000000,8103.000000,48969.000000
21224.000000,6872.000000,8083.000000,49075.000000
21343.000000,6861.000000,8068.000000,49025.000000
21113.000000,6810.000000,8023.000000,49053.000000
21313.000000,6821.000000,8125.000000,49047.000000
21198.000000,6845.000000,8094.000000,49034.000000
21248.000000,6822.000000,8124.000000,49013.000000
21206.000000,6827.000000,8148.000000,48992.000000
21321.000000,6915.000000,7981.000000,49071.000000
21248.000000,6758.000000,8152.000000,49067.000000
21376.000000,6886.000000,8145.000000,49075.000000
21246.000000,6850.000000,8127.000000,49042.000000
21320.000000,6958.000000,8086.000000,49011.000000
21420.000000,6896.000000,8235.000000,48999.000000
21354.000000,6939.000000,8193.000000,49048.000000
21314.000000,6855.000000,8249.000000,49201.000000
21451.000000,6965.000000,8281.000000,49086.000000
21397.000000,7013.000000,8348.000000,49062.000000
21467.000000,7019.000000,8336.000000,49174.000000
21466.000000,7015.000000,8280.000000,49155.000000
21587.000000,7176.000000,8468.000000,49155.000000
21641.000000,7073.000000,8377.000000,49204.000000
21545.000000,7173.000000,8452.000000,49277.000000
21521.000000,7120.000000,8533.000000,49284.000000
21700.000000,7204.000000,8529.000000,49200.000000
21758.000000,7240.000000,8567.000000,49326.000000
21858.000000,7265.000000,8669.000000,49405.000000
21891.000000,7394.000000,8603.000000,49385.000000
21911.000000,7353.000000,8853.000000,49375.000000
22001.000000,7450.000000,8860.000000,49503.000000
22040.000000,7507.000000,8826.000000,49531.000000
22070.000000,7462.000000,8960.000000,49564.000000
22154.000000,7532.000000,9000.000000,49546.000000
22220.000000,7656.000000,9171.000000,49617.000000
22192.000000,7644.000000,9206.000000,49582.000000
22322.000000,7653.000000,9227.000000,49706.000000
22369.000000,7780.000000,9279.000000,49695.000000
22521.000000,7801.000000,9296.000000,49713.000000
22601.000000,7945.000000,9405.000000,49829.000000
22658.000000,7925.000000,9527.000000,49881.000000
22744.000000,8006.000000,9576.000000,49944.000000
22892.000000,8030.000000,9655.000000,49913.000000
22859.000000,8068.000000,9727.000000,49956.000000
22970.000000,8093.000000,9749.000000,50003.000000
22983.000000,8262.000000,9881.000000,50052.000000
23086.000000,8332.000000,9919.000000,50062.000000
23102.000000,8243.000000,9919.000000,50190.000000
23088.000000,8261.000000,9967.000000,50136.000000
23082.000000,8309.000000,10124.000000,50153.000000
23102.000000,8357.000000,10099.000000,50121.000000
23111.000000,8345.000000,9972.000000,50195.000000
23224.000000,8386.000000,10009.000000,50144.000000
23174.000000,8328.000000,9957.000000,50184.000000
23202.000000,8376.000000,10010.000000,50136.000000
23161.000000,8282.000000,10040.000000,50036.000000
23155.000000,8271.000000,9977.000000,50092.000000
23180.000000,8223.000000,9947.000000,50089.000000
23088.000000,8350.000000,9939.000000,50150.000000
23014.000000,8275.000000,9892.000000,50086.000000
23203.000000,8340.000000,9909.000000,50175.000000
23080.000000,8354.000000,10011.000000,50069.000000
23086.000000,8264.000000,9899.000000,50101.000000
23037.000000,8258.000000,9857.000000,50127.000000
23077.000000,8206.000000,9848.000000,50094.000000
22959.000000,8159.000000,9832.000000,50065.000000
22955.000000,8211.000000,9836.000000,50048.000000
23021.000000,8174.000000,9882.000000,49970.000000
22978.000000,8112.000000,9893.000000,49962.000000
22929.000000,8166.000000,9734.000000,50079.000000
22995.000000,8317.000000,9809.000000,49957.000000
22818.000000,8083.000000,9808.000000,50104.000000
22948.000000,8127.000000,9747.000000,49988.000000
22980.000000,8126.000000,9756.000000,49977.000000
22863.000000,8108.000000,9699.000000,49992.000000
22884.000000,8122.000000,9647.000000,49919.000000
22886.000000,8147.000000,9690.000000,49911.000000
22820.000000,8080.000000,9676.000000,50032.000000
22895.000000,8049.000000,9709.000000,49965.000000
22837.000000,8011.000000,9733.000000,49934.000000
22839.000000,8061.000000,9613.000000,49921.000000
22752.000000,8064.000000,9638.000000,49939.000000
22751.000000,8077.000000,9558.000000,49905.000000
22789.000000,8004.000000,9580.000000,49861.000000
22793.000000,7980.000000,9529.000000,49841.000000
22846.000000,8052.000000,9590.000000,49908.000000
22727.000000,7965.000000,9456.000000,49873.000000
22760.000000,7978.000000,9581.000000,49822.000000
22763.000000,7973.000000,9535.000000,49867.000000
22722.000000,7956.000000,9544.000000,49901.000000
22672.000000,8005.000000,9575.000000,49787.000000
22691.000000,7965.000000,9499.000000,49882.000000
22699.000000,7938.000000,9445.000000,49902.000000
22709.000000,7880.000000,9508.000000,49847.000000
22644.000000,7972.000000,9469.000000,49813.000000
22660.000000,7935.000000,9543.000000,49839.000000
22594.000000,7908.000000,9548.000000,49878.000000
22668.000000,7966.000000,9458.000000,49835.000000
22534.000000,7935.000000,9431.000000,49829.000000
22620.000000,7902.000000,9398.000000,49791.000000
22649.000000,7911.000000,9373.000000,49850.000000
22626.000000,7901.000000,9355.000000,49760.000000
22546.000000,7868.000000,9460.000000,49793.000000
22637.000000,7849.000000,9345.000000,49853.000000
22596.000000,7872.000000,9419.000000,49778.000000
22616.000000,7839.000000,9383.000000,49847.000000
22517.000000,7836.000000,9377.000000,49764.000000
22549.000000,7825.000000,9302.000000,49732.000000
22614.000000,7778.000000,9283.000000,49693.000000
22489.000000,7792.000000,9300.000000,49786.000000
22494.000000,7800.000000,9262.000000,49716.000000
22466.000000,7808.000000,9270.000000,49682.000000
22382.000000,7821.000000,9268.000000,49705.000000
22378.000000,7761.000000,9229.000000,49708.000000
22415.000000,7761.000000,9351.000000,49689.000000
22412.000000,7720.000000,9276.000000,49720.000000
22489.000000,7759.000000,9227.000000,49673.000000
22337.000000,7749.000000,9224.000000,49633.000000
22491.000000,7760.000000,9238.000000,49684.000000
22428.000000,7662.000000,9266.000000,49685.000000
22418.000000,7717.000000,9307.000000,49697.000000
22405.000000,7613.000000,9190.000000,49597.000000
22386.000000,7707.000000,9171.000000,49573.000000
22391.000000,7650.000000,9197.000000,49734.000000
22351.000000,7614.000000,9180.000000,49673.000000
22283.000000,7607.000000,9092.000000,49668.000000
22252.000000,7625.000000,9088.000000,49662.000000
22231.000000,7599.000000,9039.000000,49688.000000
22264.000000,7659.000000,9073.000000,49623.000000
22221.000000,7569.000000,9094.000000,49583.000000
22225.000000,7540.000000,9021.000000,49635.000000
22163.000000,7582.000000,9086.000000,49631.000000
22164.000000,7525.000000,8960.000000,49523.000000
22131.000000,7494.000000,8964.000000,49563.000000
22172.000000,7553.000000,8978.000000,49531.000000
22114.000000,7529.000000,8978.000000,49516.000000
22115.000000,7456.000000,8940.000000,49515.000000
21991.000000,7516.000000,8871.000000,49533.000000
22045.000000,7452.000000,8850.000000,49417.000000
22045.000000,7438.000000,8849.000000,49510.000000
22010.000000,7361.000000,8817.000000,49506.000000
21955.000000,7390.000000,8814.000000,49456.000000
21957.000000,7401.000000,8790.000000,49504.000000
21902.000000,7414.000000,8835.000000,49511.000000
22023.000000,7340.000000,8783.000000,49397.000000
21899.000000,7291.000000,8770.000000,49504.000000
21882.000000,7327.000000,8746.000000,49480.000000
21801.000000,7346.000000,8731.000000,49418.000000
21970.000000,7363.000000,8749.000000,49436.000000
21793.000000,7366.000000,8691.000000,49400.000000
21757.000000,7372.000000,8728.000000,49440.000000
21802.000000,7388.000000,8658.000000,49425.000000
21851.000000,7241.000000,8674.000000,49295.000000
21793.000000,7323.000000,8655.000000,49409.000000
21788.000000,7273.000000,8651.000000,49433.000000
21866.000000,7269.000000,8710.000000,49351.000000
21782.000000,7213.000000,8587.000000,49316.000000
21661.000000,7241.000000,8646.000000,49383.000000
21641.000000,7238.000000,8610.000000,49355.000000
21786.000000,7237.000000,8559.000000,49332.000000
21663.000000,7148.000000,8646.000000,49365.000000
21650.000000,7144.000000,8676.000000,49385.000000
21760.000000,7293.000000,8501.000000,49399.000000
21700.000000,7178.000000,8536.000000,49290.000000
21604.000000,7110.000000,8578.000000,49361.000000
21609.000000,7127.000000,8525.000000,49275.000000
21521.000000,7103.000000,8556.000000,49225.000000
21611.000000,7123.000000,8497.000000,49281.000000
21589.000000,7092.000000,8446.000000,49299.000000
21565.000000,7126.000000,8438.000000,49206.000000
21557.000000,7095.000000,8320.000000,49185.000000
21587.000000,7042.000000,8316.000000,49158.000000
21465.000000,6975.000000,8287.000000,49189.000000
21377.000000,7036.000000,8256.000000,49290.000000
21382.000000,7023.000000,8299.000000,49072.000000
21402.000000,6984.000000,8246.000000,49163.000000
21250.000000,6909.000000,8253.000000,49127.000000
21303.000000,6967.000000,8223.000000,49101.000000
21202.000000,6848.000000,8196.000000,49122.000000
21301.000000,6922.000000,8066.000000,49041.000000
21171.000000,6860.000000,8145.000000,49025.000000
21201.000000,6840.000000,8041.000000,49027.000000
21191.000000,6764.000000,8015.000000,49105.000000
21184.000000,6802.000000,8008.000000,49045.000000
21171.000000,6674.000000,8072.000000,49065.000000
21191.000000,6792.000000,8097.000000,49082.000000
21213.000000,6750.000000,8069.000000,49038.000000
21215.000000,6799.000000,8119.000000,48996.000000
21166.000000,6748.000000,8132.000000,49059.000000
21182.000000,6770.000000,8138.000000,49040.000000
21236.000000,6851.000000,8198.000000,49146.000000
21263.000000,6837.000000,8145.000000,49087.000000
21315.000000,6811.000000,8100.000000,49069.000000
21245.000000,6860.000000,8112.000000,49071.000000
21326.000000,6885.000000,8227.000000,49132.000000
21333.000000,6895.000000,8233.000000,49165.000000
21271.000000,6874.000000,8320.000000,49144.000000
21363.000000,6917.000000,8273.000000,49169.000000
21466.000000,6895.000000,8316.000000,49271.000000
21404.000000,6965.000000,8347.000000,49174.000000
21451.000000,6975.000000,8368.000000,49225.000000
21550.000000,7091.000000,8402.000000,49176.000000
21559.000000,7092.000000,8504.000000,49244.000000
21574.000000,7107.000000,8502.000000,49251.000000
21641.000000,7149.000000,8522.000000,49284.000000
21761.000000,7083.000000,8606.000000,49390.000000
21780.000000,7244.000000,8630.000000,49403.000000
21702.000000,7257.000000,8700.000000,49348.000000
21795.000000,7268.000000,8736.000000,49430.000000
21826.000000,7356.000000,8804.000000,49459.000000
22071.000000,7445.000000,8824.000000,49504.000000
22069.000000,7426.000000,8959.000000,49601.000000
22160.000000,7568.000000,8922.000000,49670.000000
22228.000000,7561.000000,9094.000000,49690.000000
22320.000000,7655.000000,9172.000000,49670.000000
22265.000000,7584.000000,9204.000000,49663.000000
22457.000000,7681.000000,9193.000000,49706.000000
22426.000000,7738.000000,9326.000000,49750.000000
22580.000000,7866.000000,9367.000000,49834.000000
22683.000000,7847.000000,9549.000000,49775.000000
22748.000000,7888.000000,9652.000000,49905.000000
22839.000000,7930.000000,9644.000000,50015.000000
22814.000000,8058.000000,9699.000000,50042.000000
22863.000000,8098.000000,9784.000000,49999.000000
23019.000000,8148.000000,9798.000000,50050.000000
23127.000000,8209.000000,9888.000000,50113.000000
23048.000000,8214.000000,9882.000000,50051.000000
23173.000000,8235.000000,9953.000000,50177.000000
23223.000000,8348.000000,9972.000000,50083.000000
23116.000000,8270.000000,9930.000000,50206.000000
23364.000000,8395.000000,10019.000000,50129.000000
23193.000000,8387.000000,10013.000000,50136.000000
23265.000000,8295.000000,9933.000000,50197.000000
23247.000000,8315.000000,10001.000000,50178.000000
23248.000000,8342.000000,10066.000000,50204.000000
23133.000000,8147.000000,10097.000000,50201.000000
23203.000000,8431.000000,10003.000000,50215.000000
23223.000000,8316.000000,9917.000000,50105.000000
23242.000000,8294.000000,10067.000000,50166.000000
23185.000000,8261.000000,9989.000000,50078.000000
23228.000000,8267.000000,9975.000000,50181.000000
23140.000000,8260.000000,9978.000000,49971.000000
23104.000000,8237.000000,9886.000000,50133.000000
23046.000000,8290.000000,9938.000000,50158.000000
23172.000000,8224.000000,9887.000000,50140.000000
23098.000000,8241.000000,9874.000000,50103.000000
23033.000000,8258.000000,9892.000000,50199.000000
23043.000000,8228.000000,9890.000000,50097.000000
23070.000000,8238.000000,9834.000000,50041.000000
23032.000000,8218.000000,9843.000000,50062.000000
23013.000000,8112.000000,9814.000000,50075.000000
22981.000000,8080.000000,9761.000000,50058.000000
22968.000000,8123.000000,9822.000000,50185.000000
23034.000000,8149.000000,9831.000000,50056.000000
22810.000000,8113.000000,9780.000000,50007.000000
23050.000000,8141.000000,9745.000000,50023.000000
22995.000000,8132.000000,9644.000000,49986.000000
23002.000000,8147.000000,9637.000000,49932.000000
22854.000000,8057.000000,9613.000000,50027.000000
22803.000000,8093.000000,9639.000000,49918.000000
22853.000000,8076.000000,9674.000000,50016.000000
22845.000000,8033.000000,9660.000000,49999.000000
22826.000000,8053.000000,9638.000000,50001.000000
22884.000000,8101.000000,9597.000000,49991.000000
22842.000000,8044.000000,9693.000000,49941.000000
22894.000000,8081.000000,9668.000000,49945.000000
22829.000000,8031.000000,9669.000000,49972.000000
22893.000000,8040.000000,9633.000000,49974.000000
22845.000000,8018.000000,9645.000000,50003.000000
22927.000000,8087.000000,9667.000000,49949.000000
22800.000000,7968.000000,9615.000000,49995.000000
22821.000000,8068.000000,9525.000000,49900.000000
22788.000000,8035.000000,9600.000000,49959.000000
22804.000000,7993.000000,9582.000000,49938.000000
22711.000000,7946.000000,9621.000000,49947.000000
22799.000000,7918.000000,9592.000000,49900.000000
22838.000000,7979.000000,9590.000000,50005.000000
22764.000000,8018.000000,9530.000000,49978.000000
22683.000000,7913.000000,9489.000000,49881.000000
22749.000000,8004.000000,9574.000000,49913.000000
22711.000000,7976.000000,9543.000000,49917.000000
22712.000000,8063.000000,9572.000000,49975.000000
22772.000000,7952.000000,9478.000000,49906.000000
22650.000000,7918.000000,9487.000000,49912.000000
22721.000000,7954.000000,9493.000000,49891.000000
22615.000000,7909.000000,9494.000000,49899.000000
22749.000000,7950.000000,9495.000000,49817.000000
22741.000000,7905.000000,9464.000000,49855.000000
22642.000000,7951.000000,9468.000000,49896.000000
22579.000000,7903.000000,9398.000000,49783.000000
22608.000000,7848.000000,9459.000000,49821.000000
22591.000000,7884.000000,9355.000000,49905.000000
22613.000000,7879.000000,9366.000000,49773.000000
22505.000000,7793.000000,9377.000000,49861.000000
22566.000000,7689.000000,9380.000000,49754.000000
22619.000000,7873.000000,9328.000000,49836.000000
22591.000000,7785.000000,9322.000000,49789.000000
22469.000000,7711.000000,9318.000000,49857.000000
22509.000000,7766.000000,9289.000000,49819.000000
22495.000000,7747.000000,9282.000000,49744.000000
22445.000000,7826.000000,9363.000000,49787.000000
22490.000000,7560.000000,9215.000000,49674.000000
22369.000000,7747.000000,9243.000000,49766.000000
22450.000000,7733.000000,9294.000000,49659.000000
22333.000000,7669.000000,9212.000000,49735.000000
22341.000000,7558.000000,9162.000000,49745.000000
22348.000000,7575.000000,9230.000000,49809.000000
22239.000000,7618.000000,9125.000000,49619.000000
22274.000000,7639.000000,9029.000000,49605.000000
22193.000000,7540.000000,9048.000000,49579.000000
22237.000000,7575.000000,9070.000000,49637.000000
22203.000000,7533.000000,9138.000000,49659.000000
22231.000000,7532.000000,9027.000000,49631.000000
22216.000000,7551.000000,9069.000000,49668.000000
22072.000000,7432.000000,9005.000000,49591.000000
22179.000000,7524.000000,8996.000000,49628.000000
22170.000000,7447.000000,8956.000000,49555.000000
22086.000000,7447.000000,8983.000000,49603.000000
22175.000000,7521.000000,8966.000000,49577.000000
22084.000000,7486.000000,8931.000000,49595.000000
22046.000000,7464.000000,8861.000000,49631.000000
22057.000000,7428.000000,8897.000000,49546.000000
22034.000000,7464.000000,8890.000000,49529.000000
22003.000000,7472.000000,8918.000000,49571.000000
22024.000000,7392.000000,8870.000000,49479.000000
22004.000000,7436.000000,8836.000000,49509.000000
22063.000000,7436.000000,8821.000000,49497.000000
21990.000000,7375.000000,8815.000000,49541.000000
22029.000000,7305.000000,8802.000000,49451.000000
21965.000000,7354.000000,8763.000000,49551.000000
21897.000000,7433.000000,8751.000000,49425.000000
21945.000000,7298.000000,8763.000000,49545.000000
21831.000000,7367.000000,8737.000000,49512.000000
21903.000000,7316.000000,8752.000000,49448.000000
21940.000000,7353.000000,8712.000000,49459.000000
21948.000000,7293.000000,8735.000000,49433.000000
21767.000000,7200.000000,8683.000000,49421.000000
21835.000000,7271.000000,8617.000000,49405.000000
21847.000000,7273.000000,8647.000000,49478.000000
21838.000000,7162.000000,8691.000000,49423.000000
21866.000000,7281.000000,8712.000000,49382.000000
21846.000000,7389.000000,8681.000000,49392.000000
21796.000000,7259.000000,8591.000000,49438.000000
21807.000000,7243.000000,8692.000000,49444.000000
21760.000000,7189.000000,8609.000000,49453.000000
21865.000000,7090.000000,8642.000000,49468.000000
21786.000000,7249.000000,8729.000000,49371.000000
21801.000000,7179.000000,8578.000000,49370.000000
21745.000000,7099.000000,8623.000000,49383.000000
21768.000000,7188.000000,8611.000000,49376.000000
21634.000000,7194.000000,8663.000000,49378.000000
21723.000000,7126.000000,8535.000000,49271.000000
21709.000000,7151.000000,8568.000000,49276.000000
21783.000000,7053.000000,8445.000000,49238.000000
21651.000000,7135.000000,8415.000000,49282.000000
21588.000000,7066.000000,8455.000000,49244.000000
21503.000000,7046.000000,8497.000000,49288.000000
21520.000000,7041.000000,8398.000000,49288.000000
21483.000000,6991.000000,8397.000000,49201.000000
21497.000000,6988.000000,8332.000000,49280.000000
21391.000000,6971.000000,8295.000000,49166.000000
21354.000000,6869.000000,8172.000000,49141.000000
21352.000000,6869.000000,8163.000000,49152.000000
21245.000000,6883.000000,8213.000000,49218.000000
21281.000000,6774.000000,8221.000000,49081.000000
21289.000000,6855.000000,8235.000000,49132.000000
21267.000000,6762.000000,8144.000000,49160.000000
21232.000000,6787.000000,8127.000000,49099.000000
21217.000000,6697.000000,8152.000000,49047.000000
21233.000000,6804.000000,8087.000000,49075.000000
21244.000000,6773.000000,8086.000000,49093.000000
21222.000000,6724.000000,8137.000000,49105.000000
21241.000000,6813.000000,8052.000000,49130.000000
21294.000000,6846.000000,8080.000000,49137.000000
21254.000000,6742.000000,8144.000000,49091.000000
21208.000000,6760.000000,8197.000000,49132.000000
21283.000000,6861.000000,8162.000000,49095.000000
21232.000000,6834.000000,8117.000000,49000.000000
21218.000000,6901.000000,8210.000000,49130.000000
21151.000000,6792.000000,8144.000000,49022.000000
21223.000000,6911.000000,8213.000000,49076.000000
21381.000000,6910.000000,8174.000000,49138.000000
21330.000000,6875.000000,8271.000000,49193.000000
21291.000000,6814.000000,8299.000000,49178.000000
21353.000000,6912.000000,8302.000000,49111.000000
21412.000000,7017.000000,8267.000000,49195.000000
21460.000000,7018.000000,8412.000000,49195.000000
21422.000000,7055.000000,8490.000000,49254.000000
21505.000000,7026.000000,8403.000000,49249.000000
21603.000000,7054.000000,8513.000000,49404.000000
21636.000000,7089.000000,8490.000000,49372.000000
21693.000000,7106.000000,8538.000000,49427.000000
21727.000000,7214.000000,8668.000000,49435.000000
21774.000000,7175.000000,8669.000000,49439.000000
21879.000000,7290.000000,8802.000000,49491.000000
21828.000000,7330.000000,8831.000000,49523.000000
21956.000000,7400.000000,8854.000000,49574.000000
22057.000000,7424.000000,8886.000000,49560.000000
22085.000000,7452.000000,8952.000000,49584.000000
22137.000000,7519.000000,9055.000000,49652.000000
22283.000000,7633.000000,9150.000000,49602.000000
22323.000000,7656.000000,9205.000000,49724.000000
22362.000000,7769.000000,9271.000000,49659.000000
22508.000000,7760.000000,9317.000000,49821.000000
22599.000000,7899.000000,9416.000000,49943.000000
22606.000000,7939.000000,9620.000000,49912.000000
22654.000000,7960.000000,9614.000000,49926.000000
22771.000000,8063.000000,9698.000000,50009.000000
22939.000000,8062.000000,9752.000000,50056.000000
22965.000000,8175.000000,9776.000000,50172.000000
22963.000000,8175.000000,9912.000000,50126.000000
23088.000000,8220.000000,10003.000000,50128.000000
23215.000000,8286.000000,10002.000000,50204.000000
23152.000000,8293.000000,10035.000000,50241.000000
23293.000000,8344.000000,10048.000000,50180.000000
23306.000000,8396.000000,10166.000000,50193.000000
23209.000000,8461.000000,10055.000000,50352.000000
23362.000000,8420.000000,10169.000000,50308.000000
23308.000000,8409.000000,10274.000000,50257.000000
23369.000000,8513.000000,10168.000000,50233.000000
23332.000000,8433.000000,10139.000000,50252.000000
23418.000000,8468.000000,10190.000000,50323.000000
23211.000000,8378.000000,10146.000000,50313.000000
23344.000000,8297.000000,10042.000000,50183.000000
23318.000000,8360.000000,10166.000000,50220.000000
23269.000000,8422.000000,10111.000000,50344.000000
23248.000000,8362.000000,9983.000000,50286.000000
23284.000000,8370.000000,10012.000000,50207.000000
23161.000000,8396.000000,9982.000000,50214.000000
23286.000000,8416.000000,9967.000000,50277.000000
23181.000000,8400.000000,10095.000000,50231.000000
23151.000000,8343.000000,10009.000000,50143.000000
23252.000000,8217.000000,10007.000000,50208.000000
23139.000000,8382.000000,9960.000000,50108.000000
23106.000000,8266.000000,9948.000000,50181.000000
23153.000000,8288.000000,9896.000000,50187.000000
23188.000000,8234.000000,9921.000000,50116.000000
23126.000000,8186.000000,9916.000000,50161.000000
23110.000000,8190.000000,9961.000000,50139.000000
23054.000000,8215.000000,9951.000000,50175.000000
23063.000000,8254.000000,9873.000000,50105.000000
23051.000000,8288.000000,9808.000000,50072.000000
23045.000000,8122.000000,9840.000000,50117.000000
23048.000000,8178.000000,9815.000000,50202.000000
23037.000000,8143.000000,9796.000000,50140.000000
22982.000000,8176.000000,9870.000000,50061.000000
22939.000000,8247.000000,9779.000000,50036.000000
23015.000000,8254.000000,9808.000000,50118.000000
23056.000000,8109.000000,9830.000000,50027.000000
22897.000000,8162.000000,9795.000000,50142.000000
22932.000000,8073.000000,9738.000000,50072.000000
23001.000000,8100.000000,9819.000000,50057.000000
22964.000000,8142.000000,9683.000000,50068.000000
22931.000000,8109.000000,9658.000000,50056.000000
22868.000000,8040.000000,9721.000000,50024.000000
22847.000000,8081.000000,9679.000000,50024.000000
22914.000000,8070.000000,9743.000000,49972.000000
22800.000000,8065.000000,9661.000000,49973.000000
22880.000000,8073.000000,9668.000000,49971.000000
22852.000000,7995.000000,9662.000000,50024.000000
22860.000000,7946.000000,9614.000000,50002.000000
22790.000000,8023.000000,9641.000000,50008.000000
22759.000000,8046.000000,9673.000000,49978.000000
22835.000000,7972.000000,9615.000000,49949.000000
22761.000000,8012.000000,9609.000000,49908.000000
22744.000000,7924.000000,9614.000000,50007.000000
22780.000000,7903.000000,9637.000000,50047.000000
22803.000000,7845.000000,9538.000000,49977.000000
22733.000000,7950.000000,9606.000000,49847.000000
22753.000000,7900.000000,9445.000000,49928.000000
22772.000000,7982.000000,9530.000000,49779.000000
22706.000000,7934.000000,9463.000000,49921.000000
22670.000000,7956.000000,9498.000000,49965.000000
22663.000000,7884.000000,9438.000000,49860.000000
22604.000000,7893.000000,9504.000000,49917.000000
22675.000000,7919.000000,9454.000000,49870.000000
22540.000000,7799.000000,9487.000000,49885.000000
22508.000000,7796.000000,9421.000000,49791.000000
22633.000000,7836.000000,9461.000000,49844.000000
22623.000000,7791.000000,9348.000000,49879.000000
22623.000000,7817.000000,9275.000000,49877.000000
22542.000000,7864.000000,9365.000000,49802.000000
22584.000000,7865.000000,9432.000000,49825.000000
22517.000000,7716.000000,9347.000000,49836.000000
22494.000000,7781.000000,9404.000000,49808.000000
22559.000000,7728.000000,9322.000000,49746.000000
22543.000000,7735.000000,9289.000000,49813.000000
22462.000000,7691.000000,9304.000000,49780.000000
22405.000000,7670.000000,9225.000000,49802.000000
22365.000000,7626.000000,9234.000000,49730.000000
22373.000000,7693.000000,9221.000000,49679.000000
22428.000000,7716.000000,9225.000000,49722.000000
22332.000000,7687.000000,9184.000000,49687.000000
22350.000000,7646.000000,9070.000000,49642.000000
22299.000000,7579.000000,9046.000000,49679.000000
22254.000000,7550.000000,9080.000000,49718.000000
22205.000000,7553.000000,9099.000000,49728.000000
22181.000000,7571.000000,9084.000000,49671.000000
22279.000000,7577.000000,8992.000000,49622.000000
22293.000000,7575.000000,8970.000000,49595.000000
22102.000000,7536.000000,8950.000000,49710.000000
22194.000000,7488.000000,8935.000000,49654.000000
22175.000000,7490.000000,8936.000000,49588.000000
22159.000000,7515.000000,8916.000000,49614.000000
22145.000000,7470.000000,8929.000000,49539.000000
22130.000000,7427.000000,8922.000000,49525.000000
22126.000000,7506.000000,8794.000000,49568.000000
22053.000000,7380.000000,8868.000000,49584.000000
21999.000000,7401.000000,8852.000000,49515.000000
22051.000000,7371.000000,8891.000000,49681.000000
22047.000000,7452.000000,8758.000000,49619.000000
21998.000000,7323.000000,8754.000000,49506.000000
21960.000000,7343.000000,8743.000000,49510.000000
22006.000000,7319.000000,8814.000000,49481.000000
21919.000000,7352.000000,8766.000000,49446.000000
21866.000000,7293.000000,8741.000000,49571.000000
21868.000000,7343.000000,8777.000000,49449.000000
21857.000000,7348.000000,8671.000000,49456.000000
21892.000000,7191.000000,8690.000000,49537.000000
21838.000000,7306.000000,8663.000000,49463.000000
21780.000000,7228.000000,8712.000000,49400.000000
21851.000000,7203.000000,8669.000000,49453.000000
21836.000000,7242.000000,8689.000000,49347.000000
21759.000000,7257.000000,8564.000000,49394.000000
21791.000000,7140.000000,8524.000000,49383.000000
21799.000000,7193.000000,8643.000000,49344.000000
21752.000000,7180.000000,8566.000000,49364.000000
21735.000000,7234.000000,8497.000000,49399.000000
21762.000000,7230.000000,8548.000000,49332.000000
21793.000000,7220.000000,8499.000000,49370.000000
21767.000000,7167.000000,8626.000000,49369.000000
21683.000000,7075.000000,8559.000000,49365.000000
21572.000000,7083.000000,8495.000000,49375.000000
21757.000000,7074.000000,8488.000000,49340.000000
21687.000000,7141.000000,8471.000000,49322.000000
21673.000000,7056.000000,8495.000000,49293.000000
21633.000000,7108.000000,8440.000000,49382.000000
21627.000000,7055.000000,8446.000000,49416.000000
21678.000000,7133.000000,8462.000000,49315.000000
21608.000000,7114.000000,8465.000000,49249.000000
21532.000000,7012.000000,8404.000000,49269.000000
21587.000000,7029.000000,8407.000000,49224.000000
21584.000000,7025.000000,8394.000000,49293.000000
21419.000000,6846.000000,8250.000000,49191.000000
21525.000000,6943.000000,8288.000000,49248.000000
21408.000000,6890.000000,8271.000000,49295.000000
21370.000000,6816.000000,8230.000000,49171.000000
21313.000000,6810.000000,8177.000000,49117.000000
21349.000000,6831.000000,8123.000000,49172.000000
21254.000000,6879.000000,8142.000000,49159.000000
21273.000000,6767.000000,8081.000000,49022.000000
21160.000000,6756.000000,8062.000000,49095.000000
21244.000000,6788.000000,8094.000000,49048.000000
21208.000000,6780.000000,8107.000000,49022.000000
21286.000000,6751.000000,8095.000000,49124.000000
21277.000000,6781.000000,8063.000000,49045.000000
21266.000000,6843.000000,8018.000000,49144.000000
21275.000000,6791.000000,8147.000000,49145.000000
21352.000000,6768.000000,8071.000000,49167.000000
21324.000000,6839.000000,8214.000000,49142.000000
21327.000000,6858.000000,8182.000000,49169.000000
21340.000000,6895.000000,8169.000000,49160.000000
21426.000000,6883.000000,8241.000000,49134.000000
21396.000000,6851.000000,8209.000000,49178.000000
21366.000000,6881.000000,8316.000000,49317.000000
21456.000000,6996.000000,8300.000000,49145.000000
21430.000000,7011.000000,8349.000000,49266.000000
21513.000000,6990.000000,8404.000000,49212.000000
21603.000000,6997.000000,8479.000000,49224.000000
21673.000000,7001.000000,8434.000000,49268.000000
21561.000000,7079.000000,8478.000000,49328.000000
21643.000000,7171.000000,8609.000000,49432.000000
21760.000000,7239.000000,8533.000000,49314.000000
21718.000000,7159.000000,8572.000000,49386.000000
21772.000000,7272.000000,8661.000000,49380.000000
21843.000000,7273.000000,8714.000000,49484.000000
21917.000000,7264.000000,8787.000000,49461.000000
21907.000000,7350.000000,8830.000000,49460.000000
21960.000000,7338.000000,8998.000000,49564.000000
22090.000000,7426.000000,8880.000000,49583.000000
22143.000000,7457.000000,8954.000000,49576.000000
22206.000000,7553.000000,9055.000000,49570.000000
22245.000000,7571.000000,9077.000000,49708.000000
22312.000000,7695.000000,9136.000000,49727.000000
22340.000000,7728.000000,9323.000000,49756.000000
22426.000000,7672.000000,9268.000000,49861.000000
22554.000000,7718.000000,9400.000000,49839.000000
22507.000000,7863.000000,9431.000000,49862.000000
22722.000000,7945.000000,9460.000000,49929.000000
22818.000000,8007.000000,9653.000000,50039.000000
22803.000000,8036.000000,9650.000000,50006.000000
22907.000000,7984.000000,9784.000000,50142.000000
23034.000000,8183.000000,9854.000000,50084.000000
23154.000000,8250.000000,9902.000000,50119.000000
23113.000000,8341.000000,9949.000000,50178.000000
23177.000000,8362.000000,9983.000000,50162.000000
23329.000000,8366.000000,10066.000000,50254.000000
23369.000000,8390.000000,10115.000000,50286.000000
23279.000000,8375.000000,10218.000000,50318.000000
23353.000000,8456.000000,10209.000000,50326.000000
23370.000000,8470.000000,10212.000000,50373.000000
23474.000000,8613.000000,10194.000000,50342.000000
23468.000000,8452.000000,10159.000000,50304.000000
23554.000000,8573.000000,10256.000000,50335.000000
23408.000000,8471.000000,10365.000000,50323.000000
23446.000000,8448.000000,10230.000000,50319.000000
23392.000000,8495.000000,10229.000000,50399.000000
23366.000000,8485.000000,10234.000000,50267.000000
23488.000000,8414.000000,10185.000000,50302.000000
23386.000000,8452.000000,10230.000000,50300.000000
23344.000000,8406.000000,10211.000000,50330.000000
23340.000000,8376.000000,10110.000000,50265.000000
23266.000000,8424.000000,10141.000000,50275.000000
23355.000000,8332.000000,10061.000000,50253.000000
23313.000000,8375.000000,10117.000000,50238.000000
23383.000000,8425.000000,10113.000000,50245.000000
23300.000000,8317.000000,10103.000000,50299.000000
23241.000000,8389.000000,10078.000000,50226.000000
23237.000000,8360.000000,10120.000000,50318.000000
23276.000000,8270.000000,10071.000000,50220.000000
23239.000000,8314.000000,10036.000000,50299.000000
23194.000000,8204.000000,9970.000000,50270.000000
23179.000000,8267.000000,9957.000000,50239.000000
23414.000000,8386.000000,10085.000000,50143.000000
23216.000000,8295.000000,9990.000000,50154.000000
23264.000000,8355.000000,10048.000000,50182.000000
23200.000000,8212.000000,9966.000000,50205.000000
23144.000000,8240.000000,9903.000000,50191.000000
23172.000000,8240.000000,9957.000000,50154.000000
23156.000000,8227.000000,9966.000000,50130.000000
23159.000000,8184.000000,9890.000000,50197.000000
23109.000000,8247.000000,9923.000000,50272.000000
23182.000000,8233.000000,9910.000000,50156.000000
23125.000000,8236.000000,9739.000000,50110.000000
23173.000000,8224.000000,9776.000000,50175.000000
23090.000000,8227.000000,9845.000000,50085.000000
23063.000000,8261.000000,9740.000000,50170.000000
23048.000000,8078.000000,9881.000000,50225.000000
23092.000000,8155.000000,9789.000000,50023.000000
23183.000000,8138.000000,9840.000000,50094.000000
23071.000000,8201.000000,9819.000000,50031.000000
23023.000000,8165.000000,9901.000000,50042.000000
23045.000000,8149.000000,9775.000000,50036.000000
23032.000000,8181.000000,9846.000000,50135.000000
23037.000000,8145.000000,9732.000000,50155.000000
23010.000000,8127.000000,9842.000000,50177.000000
23049.000000,8182.000000,9720.000000,50028.000000
22980.000000,8060.000000,9741.000000,50044.000000
22853.000000,8138.000000,9703.000000,50105.000000
22948.000000,8045.000000,9693.000000,50035.000000
22930.000000,8012.000000,9729.000000,50068.000000
22965.000000,8084.000000,9717.000000,49982.000000
22934.000000,8024.000000,9704.000000,50071.000000
22856.000000,7965.000000,9652.000000,50020.000000
22884.000000,8021.000000,9627.000000,50026.000000
22890.000000,8023.000000,9652.000000,49963.000000
22866.000000,7943.000000,9656.000000,50041.000000
22777.000000,7984.000000,9648.000000,49983.000000
22797.000000,8022.000000,9609.000000,49992.000000
22780.000000,8035.000000,9678.000000,50083.000000
22785.000000,7916.000000,9552.000000,49922.000000
22717.000000,7953.000000,9554.000000,49888.000000
22556.000000,8010.000000,9547.000000,49975.000000
22723.000000,7985.000000,9442.000000,49918.000000
22628.000000,7874.000000,9471.000000,49909.000000
22708.000000,7809.000000,9417.000000,49926.000000
22692.000000,7845.000000,9511.000000,49980.000000
22640.000000,7870.000000,9428.000000,49930.000000
22603.000000,7848.000000,9422.000000,49793.000000
22621.000000,7884.000000,9352.000000,49823.000000
22581.000000,7761.000000,9319.000000,49898.000000
22548.000000,7829.000000,9327.000000,49842.000000
22410.000000,7726.000000,9336.000000,49765.000000
22436.000000,7670.000000,9305.000000,49856.000000
22587.000000,7738.000000,9212.000000,49768.000000
22481.000000,7770.000000,9271.000000,49777.000000
22424.000000,7681.000000,9219.000000,49758.000000
22491.000000,7629.000000,9139.000000,49729.000000
22524.000000,7636.000000,9173.000000,49737.000000
22362.000000,7599.000000,9145.000000,49655.000000
22333.000000,7665.000000,9094.000000,49663.000000
22345.000000,7563.000000,9144.000000,49729.000000
22306.000000,7589.000000,9080.000000,49642.000000
22345.000000,7580.000000,9033.000000,49703.000000
22279.000000,7490.000000,8980.000000,49680.000000
22293.000000,7476.000000,9000.000000,49659.000000
22186.000000,7614.000000,8847.000000,49684.000000
22222.000000,7575.000000,8992.000000,49649.000000
22169.000000,7480.000000,9045.000000,49645.000000
22154.000000,7511.000000,8980.000000,49552.000000
22100.000000,7434.000000,8962.000000,49579.000000
22206.000000,7420.000000,9029.000000,49544.000000
22133.000000,7544.000000,8929.000000,49599.000000
22143.000000,7432.000000,8890.000000,49706.000000
22091.000000,7418.000000,8891.000000,49561.000000
22041.000000,7399.000000,8860.000000,49517.000000
22025.000000,7283.000000,8816.000000,49536.000000
22073.000000,7421.000000,8871.000000,49541.000000
22029.000000,7354.000000,8804.000000,49567.000000
21949.000000,7379.000000,8787.000000,49562.000000
22025.000000,7301.000000,8771.000000,49568.000000
21972.000000,7342.000000,8823.000000,49409.000000
21937.000000,7367.000000,8749.000000,49543.000000
21920.000000,7375.000000,8693.000000,49489.000000
21987.000000,7277.000000,8741.000000,49468.000000
21958.000000,7337.000000,8695.000000,49524.000000
21971.000000,7315.000000,8716.000000,49474.000000
21924.000000,7258.000000,8717.000000,49457.000000
21868.000000,7308.000000,8671.000000,49485.000000
21913.000000,7179.000000,8684.000000,49468.000000
21945.000000,7282.000000,8617.000000,49444.000000
21775.000000,7217.000000,8693.000000,49493.000000
21784.000000,7132.000000,8625.000000,49505.000000
21873.000000,7200.000000,8537.000000,49344.000000
21849.000000,7290.000000,8681.000000,49330.000000
21826.000000,7198.000000,8530.000000,49336.000000
21808.000000,7112.000000,8576.000000,49438.000000
21688.000000,7101.000000,8462.000000,49376.000000
21684.000000,7127.000000,8552.000000,49379.000000
21654.000000,7070.000000,8447.000000,49258.000000
21658.000000,7084.000000,8448.000000,49310.000000
21617.000000,7098.000000,8388.000000,49395.000000
21541.000000,6984.000000,8400.000000,49200.000000
21553.000000,7028.000000,8342.000000,49339.000000
21531.000000,6908.000000,8263.000000,49310.000000
21477.000000,6878.000000,8308.000000,49299.000000
21482.000000,6936.000000,8256.000000,49272.000000
21437.000000,6950.000000,8228.000000,49211.000000
21355.000000,6894.000000,8197.000000,49213.000000
21455.000000,6923.000000,8196.000000,49156.000000
21462.000000,6864.000000,8204.000000,49198.000000
21414.000000,6881.000000,8182.000000,49181.000000
21392.000000,6899.000000,8198.000000,49133.000000
21382.000000,6863.000000,8208.000000,49088.000000
21375.000000,6861.000000,8160.000000,49231.000000
21401.000000,6864.000000,8262.000000,49242.000000
21414.000000,6928.000000,8217.000000,49219.000000
21490.000000,6927.000000,8212.000000,49250.000000
21378.000000,6920.000000,8255.000000,49270.000000
21484.000000,6932.000000,8330.000000,49170.000000
21554.000000,6880.000000,8280.000000,49319.000000
21528.000000,6962.000000,8335.000000,49237.000000
21555.000000,7023.000000,8268.000000,49310.000000
21503.000000,6960.000000,8327.000000,49277.000000
21622.000000,7023.000000,8354.000000,49250.000000
21612.000000,7019.000000,8429.000000,49299.000000
21680.000000,7105.000000,8443.000000,49223.000000
21661.000000,7086.000000,8400.000000,49299.000000
21660.000000,7007.000000,8434.000000,49306.000000
21711.000000,7166.000000,8516.000000,49400.000000
21625.000000,7182.000000,8556.000000,49371.000000
21802.000000,7178.000000,8601.000000,49385.000000
21908.000000,7167.000000,8546.000000,49412.000000
21966.000000,7276.000000,8724.000000,49437.000000
21926.000000,7228.000000,8604.000000,49506.000000
21918.000000,7305.000000,8797.000000,49500.000000
22050.000000,7339.000000,8861.000000,49513.000000
22118.000000,7428.000000,8894.000000,49768.000000
22141.000000,7468.000000,8963.000000,49607.000000
22204.000000,7581.000000,9084.000000,49646.000000
22330.000000,7666.000000,9076.000000,49793.000000
22420.000000,7563.000000,9164.000000,49708.000000
22369.000000,7593.000000,9230.000000,49740.000000
22435.000000,7689.000000,9157.000000,49774.000000
22534.000000,7714.000000,9332.000000,49827.000000
