660nm,730nm,850nm,940nm
37823.000000,36484.000000,53904.000000,32528.000000
37823.000000,36480.000000,53907.000000,32527.000000
37823.000000,36478.000000,53909.000000,32527.000000
37824.000000,36476.000000,53906.000000,32523.000000
37821.000000,36474.000000,53896.000000,32510.000000
37817.000000,36471.000000,53882.000000,32498.000000
37811.000000,36469.000000,53867.000000,32489.000000
37802.000000,36462.000000,53847.000000,32474.000000
37788.000000,36449.000000,53820.000000,32451.000000
37771.000000,36435.000000,53786.000000,32428.000000
37753.000000,36422.000000,53749.000000,32409.000000
37734.000000,36404.000000,53710.000000,32392.000000
37711.000000,36382.000000,53670.000000,32371.000000
37688.000000,36358.000000,53627.000000,32346.000000
37665.000000,36332.000000,53581.000000,32320.000000
37641.000000,36302.000000,53531.000000,32284.000000
37611.000000,36266.000000,53477.000000,32238.000000
37576.000000,36228.000000,53424.000000,32190.000000
37542.000000,36194.000000,53372.000000,32146.000000
37509.000000,36160.000000,53317.000000,32104.000000
37474.000000,36122.000000,53257.000000,32064.000000
37441.000000,36087.000000,53196.000000,32025.000000
37412.000000,36057.000000,53136.000000,31991.000000
37383.000000,36029.000000,53079.000000,31961.000000
37355.000000,35999.000000,53027.000000,31930.000000
37331.000000,35971.000000,52982.000000,31896.000000
37312.000000,35950.000000,52941.000000,31862.000000
37293.000000,35931.000000,52902.000000,31826.000000
37275.000000,35912.000000,52865.000000,31797.000000
37261.000000,35895.000000,52830.000000,31779.000000
37246.000000,35879.000000,52798.000000,31759.000000
37226.000000,35861.000000,52765.000000,31731.000000
37206.000000,35844.000000,52734.000000,31705.000000
37188.000000,35830.000000,52706.000000,31689.000000
37170.000000,35818.000000,52680.000000,31680.000000
37150.000000,35803.000000,52651.000000,31665.000000
37131.000000,35786.000000,52623.000000,31643.000000
37116.000000,35772.000000,52600.000000,31616.000000
37103.000000,35757.000000,52577.000000,31586.000000
37088.000000,35738.000000,52553.000000,31553.000000
37070.000000,35718.000000,52528.000000,31518.000000
37055.000000,35699.000000,52503.000000,31489.000000
37044.000000,35682.000000,52476.000000,31466.000000
37033.000000,35667.000000,52448.000000,31447.000000
37022.000000,35656.000000,52420.000000,31431.000000
37013.000000,35649.000000,52396.000000,31418.000000
37005.000000,35643.000000,52377.000000,31402.000000
36994.000000,35634.000000,52357.000000,31383.000000
36978.000000,35622.000000,52339.000000,31363.000000
36962.000000,35610.000000,52322.000000,31347.000000
36949.000000,35598.000000,52302.000000,31333.000000
36937.000000,35583.000000,52276.000000,31320.000000
36925.000000,35569.000000,52250.000000,31311.000000
36914.000000,35556.000000,52227.000000,31306.000000
36901.000000,35543.000000,52203.000000,31303.000000
36888.000000,35528.000000,52178.000000,31297.000000
36872.000000,35512.000000,52154.000000,31287.000000
36854.000000,35498.000000,52135.000000,31272.000000
36834.000000,35483.000000,52117.000000,31253.000000
36812.000000,35466.000000,52095.000000,31225.000000
36791.000000,35448.000000,52069.000000,31192.000000
36774.000000,35432.000000,52044.000000,31164.000000
36761.000000,35418.000000,52023.000000,31143.000000
36752.000000,35404.000000,52006.000000,31121.000000
36749.000000,35393.000000,51991.000000,31101.000000
36750.000000,35385.000000,51978.000000,31094.000000
36750.000000,35379.000000,51965.000000,31100.000000
36747.000000,35372.000000,51949.000000,31103.000000
36742.000000,35366.000000,51930.000000,31103.000000
36737.000000,35361.000000,51910.000000,31104.000000
36730.000000,35355.000000,51891.000000,31100.000000
36719.000000,35342.000000,51870.000000,31085.000000
36705.000000,35330.000000,51848.000000,31064.000000
36690.000000,35320.000000,51825.000000,31041.000000
36673.000000,35309.000000,51798.000000,31015.000000
36652.000000,35293.000000,51766.000000,30984.000000
36629.000000,35273.000000,51733.000000,30951.000000
36607.000000,35253.000000,51700.000000,30925.000000
36587.000000,35234.000000,51669.000000,30915.000000
36567.000000,35215.000000,51635.000000,30915.000000
36551.000000,35196.000000,51597.000000,30910.000000
36543.000000,35179.000000,51557.000000,30896.000000
36540.000000,35163.000000,51518.000000,30880.000000
36538.000000,35143.000000,51481.000000,30866.000000
36534.000000,35124.000000,51452.000000,30854.000000
36529.000000,35110.000000,51438.000000,30843.000000
36524.000000,35103.000000,51434.000000,30835.000000
36520.000000,35105.000000,51440.000000,30835.000000
36524.000000,35122.000000,51462.000000,30844.000000
36543.000000,35154.000000,51510.000000,30867.000000
36579.000000,35202.000000,51583.000000,30907.000000
36635.000000,35270.000000,51686.000000,30968.000000
36712.000000,35363.000000,51828.000000,31056.000000
36811.000000,35480.000000,52010.000000,31174.000000
36929.000000,35614.000000,52225.000000,31318.000000
37066.000000,35766.000000,52472.000000,31490.000000
37220.000000,35933.000000,52751.000000,31692.000000
37385.000000,36109.000000,53055.000000,31913.000000
37555.000000,36288.000000,53376.000000,32147.000000
37727.000000,36470.000000,53706.000000,32391.000000
37903.000000,36655.000000,54039.000000,32641.000000
38076.000000,36836.000000,54363.000000,32886.000000
38241.000000,37008.000000,54669.000000,33120.000000
38396.000000,37170.000000,54952.000000,33340.000000
38538.000000,37318.000000,55210.000000,33539.000000
38662.000000,37447.000000,55435.000000,33709.000000
38766.000000,37551.000000,55622.000000,33848.000000
38852.000000,37633.000000,55771.000000,33960.000000
38920.000000,37697.000000,55889.000000,34047.000000
38965.000000,37743.000000,55976.000000,34107.000000
38992.000000,37770.000000,56032.000000,34143.000000
39007.000000,37783.000000,56061.000000,34161.000000
39009.000000,37787.000000,56068.000000,34162.000000
38998.000000,37779.000000,56056.000000,34143.000000
38976.000000,37761.000000,56025.000000,34112.000000
38951.000000,37738.000000,55982.000000,34081.000000
38926.000000,37713.000000,55936.000000,34053.000000
38899.000000,37683.000000,55883.000000,34022.000000
38868.000000,37647.000000,55822.000000,33986.000000
38835.000000,37609.000000,55761.000000,33947.000000
38802.000000,37570.000000,55706.000000,33904.000000
38771.000000,37531.000000,55657.000000,33859.000000
38743.000000,37496.000000,55612.000000,33817.000000
38718.000000,37472.000000,55576.000000,33784.000000
38697.000000,37457.000000,55546.000000,33757.000000
38681.000000,37443.000000,55518.000000,33729.000000
38670.000000,37429.000000,55495.000000,33704.000000
38661.000000,37417.000000,55477.000000,33689.000000
38652.000000,37406.000000,55461.000000,33682.000000
38639.000000,37396.000000,55445.000000,33678.000000
38628.000000,37388.000000,55427.000000,33674.000000
38618.000000,37381.000000,55411.000000,33673.000000
38608.000000,37373.000000,55399.000000,33673.000000
38598.000000,37364.000000,55385.000000,33672.000000
38590.000000,37355.000000,55369.000000,33669.000000
38583.000000,37348.000000,55354.000000,33664.000000
38576.000000,37338.000000,55336.000000,33654.000000
38564.000000,37322.000000,55311.000000,33633.000000
38547.000000,37304.000000,55280.000000,33605.000000
38527.000000,37284.000000,55243.000000,33577.000000
38503.000000,37260.000000,55199.000000,33542.000000
38475.000000,37232.000000,55146.000000,33493.000000
38446.000000,37201.000000,55088.000000,33432.000000
38415.000000,37169.000000,55022.000000,33371.000000
38382.000000,37134.000000,54944.000000,33312.000000
38342.000000,37095.000000,54858.000000,33247.000000
38302.000000,37055.000000,54771.000000,33179.000000
38266.000000,37016.000000,54693.000000,33118.000000
38227.000000,36979.000000,54622.000000,33064.000000
38186.000000,36944.000000,54558.000000,33014.000000
38149.000000,36913.000000,54503.000000,32970.000000
38119.000000,36886.000000,54460.000000,32937.000000
38098.000000,36862.000000,54425.000000,32912.000000
38080.000000,36841.000000,54393.000000,32893.000000
38065.000000,36825.000000,54367.000000,32878.000000
38056.000000,36814.000000,54350.000000,32869.000000
38049.000000,36805.000000,54335.000000,32862.000000
38041.000000,36795.000000,54319.000000,32852.000000
38032.000000,36786.000000,54306.000000,32845.000000
38026.000000,36779.000000,54296.000000,32842.000000
38021.000000,36773.000000,54286.000000,32838.000000
38014.000000,36762.000000,54275.000000,32828.000000
38008.000000,36753.000000,54267.000000,32817.000000
38005.000000,36749.000000,54262.000000,32810.000000
38003.000000,36745.000000,54256.000000,32806.000000
37999.000000,36738.000000,54248.000000,32802.000000
37994.000000,36733.000000,54240.000000,32798.000000
37989.000000,36733.000000,54232.000000,32797.000000
37986.000000,36731.000000,54224.000000,32796.000000
37987.000000,36727.000000,54212.000000,32796.000000
37989.000000,36723.000000,54195.000000,32794.000000
37988.000000,36714.000000,54175.000000,32790.000000
37980.000000,36701.000000,54150.000000,32782.000000
37967.000000,36685.000000,54120.000000,32766.000000
37950.000000,36671.000000,54088.000000,32745.000000
37928.000000,36655.000000,54054.000000,32717.000000
37900.000000,36636.000000,54018.000000,32685.000000
37872.000000,36613.000000,53978.000000,32650.000000
37843.000000,36587.000000,53938.000000,32612.000000
37811.000000,36557.000000,53896.000000,32569.000000
37774.000000,36524.000000,53845.000000,32522.000000
37737.000000,36488.000000,53788.000000,32477.000000
37702.000000,36453.000000,53728.000000,32436.000000
37669.000000,36422.000000,53668.000000,32394.000000
37635.000000,36392.000000,53607.000000,32354.000000
37601.000000,36364.000000,53551.000000,32320.000000
37571.000000,36337.000000,53498.000000,32288.000000
37547.000000,36307.000000,53447.000000,32254.000000
37528.000000,36275.000000,53395.000000,32219.000000
37511.000000,36245.000000,53346.000000,32187.000000
37494.000000,36217.000000,53301.000000,32159.000000
37473.000000,36189.000000,53257.000000,32129.000000
37447.000000,36159.000000,53213.000000,32098.000000
37422.000000,36133.000000,53170.000000,32065.000000
37399.000000,36112.000000,53129.000000,32032.000000
37377.000000,36092.000000,53091.000000,31996.000000
37354.000000,36072.000000,53053.000000,31957.000000
37331.000000,36052.000000,53015.000000,31924.000000
37310.000000,36034.000000,52980.000000,31894.000000
37289.000000,36015.000000,52944.000000,31860.000000
37267.000000,35993.000000,52908.000000,31827.000000
37245.000000,35972.000000,52876.000000,31808.000000
37226.000000,35951.000000,52846.000000,31798.000000
37208.000000,35932.000000,52815.000000,31786.000000
37191.000000,35914.000000,52785.000000,31772.000000
37177.000000,35897.000000,52759.000000,31761.000000
37163.000000,35884.000000,52736.000000,31749.000000
37148.000000,35870.000000,52713.000000,31733.000000
37133.000000,35857.000000,52691.000000,31717.000000
37122.000000,35847.000000,52671.000000,31707.000000
37112.000000,35839.000000,52650.000000,31698.000000
37103.000000,35832.000000,52628.000000,31683.000000
37097.000000,35827.000000,52607.000000,31672.000000
37094.000000,35821.000000,52589.000000,31668.000000
37088.000000,35811.000000,52570.000000,31662.000000
37075.000000,35798.000000,52550.000000,31646.000000
37059.000000,35783.000000,52528.000000,31623.000000
37044.000000,35769.000000,52506.000000,31603.000000
37026.000000,35752.000000,52480.000000,31583.000000
37006.000000,35729.000000,52451.000000,31558.000000
36990.000000,35706.000000,52423.000000,31533.000000
36977.000000,35687.000000,52399.000000,31512.000000
36967.000000,35670.000000,52375.000000,31493.000000
36954.000000,35651.000000,52350.000000,31473.000000
36939.000000,35633.000000,52327.000000,31450.000000
36926.000000,35621.000000,52308.000000,31431.000000
36914.000000,35610.000000,52290.000000,31415.000000
36900.000000,35597.000000,52271.000000,31397.000000
36884.000000,35585.000000,52254.000000,31381.000000
36870.000000,35573.000000,52238.000000,31369.000000
36858.000000,35560.000000,52220.000000,31357.000000
36844.000000,35544.000000,52200.000000,31341.000000
36829.000000,35530.000000,52177.000000,31324.000000
36813.000000,35519.000000,52155.000000,31310.000000
36795.000000,35508.000000,52131.000000,31298.000000
36776.000000,35494.000000,52104.000000,31281.000000
36761.000000,35478.000000,52078.000000,31256.000000
36749.000000,35461.000000,52051.000000,31234.000000
36736.000000,35441.000000,52018.000000,31214.000000
36723.000000,35416.000000,51978.000000,31190.000000
36711.000000,35392.000000,51941.000000,31162.000000
36697.000000,35373.000000,51909.000000,31137.000000
36682.000000,35356.000000,51879.000000,31113.000000
36664.000000,35339.000000,51847.000000,31086.000000
36646.000000,35324.000000,51816.000000,31061.000000
36627.000000,35309.000000,51788.000000,31039.000000
36607.000000,35291.000000,51758.000000,31017.000000
36588.000000,35269.000000,51725.000000,30992.000000
36572.000000,35245.000000,51693.000000,30967.000000
36559.000000,35222.000000,51666.000000,30946.000000
36547.000000,35201.000000,51646.000000,30930.000000
36541.000000,35191.000000,51639.000000,30930.000000
36545.000000,35197.000000,51650.000000,30952.000000
36561.000000,35224.000000,51686.000000,30991.000000
36592.000000,35270.000000,51754.000000,31047.000000
36646.000000,35336.000000,51857.000000,31127.000000
36725.000000,35427.000000,51997.000000,31234.000000
36823.000000,35540.000000,52175.000000,31365.000000
36938.000000,35667.000000,52384.000000,31518.000000
37068.000000,35810.000000,52624.000000,31696.000000
37213.000000,35968.000000,52896.000000,31893.000000
37368.000000,36136.000000,53191.000000,32104.000000
37532.000000,36314.000000,53499.000000,32323.000000
37705.000000,36499.000000,53821.000000,32554.000000
37882.000000,36690.000000,54148.000000,32794.000000
38056.000000,36879.000000,54469.000000,33031.000000
38223.000000,37058.000000,54772.000000,33251.000000
38381.000000,37224.000000,55051.000000,33454.000000
38525.000000,37374.000000,55301.000000,33640.000000
38651.000000,37506.000000,55517.000000,33803.000000
38753.000000,37612.000000,55694.000000,33933.000000
38830.000000,37691.000000,55832.000000,34031.000000
38886.000000,37747.000000,55936.000000,34106.000000
38920.000000,37782.000000,56008.000000,34161.000000
38940.000000,37799.000000,56052.000000,34193.000000
38951.000000,37803.000000,56071.000000,34203.000000
38957.000000,37799.000000,56070.000000,34200.000000
38952.000000,37786.000000,56050.000000,34193.000000
38935.000000,37761.000000,56013.000000,34181.000000
38910.000000,37730.000000,55966.000000,34158.000000
38879.000000,37699.000000,55918.000000,34123.000000
38847.000000,37666.000000,55869.000000,34081.000000
38816.000000,37631.000000,55821.000000,34032.000000
38786.000000,37597.000000,55772.000000,33982.000000
38756.000000,37568.000000,55724.000000,33938.000000
38723.000000,37542.000000,55677.000000,33898.000000
38687.000000,37515.000000,55628.000000,33861.000000
38657.000000,37488.000000,55583.000000,33825.000000
38634.000000,37466.000000,55544.000000,33792.000000
38617.000000,37449.000000,55511.000000,33767.000000
38603.000000,37438.000000,55484.000000,33754.000000
38594.000000,37433.000000,55465.000000,33751.000000
38588.000000,37434.000000,55453.000000,33757.000000
38581.000000,37433.000000,55446.000000,33760.000000
38573.000000,37426.000000,55441.000000,33759.000000
38567.000000,37416.000000,55437.000000,33756.000000
38558.000000,37405.000000,55430.000000,33747.000000
38549.000000,37394.000000,55419.000000,33733.000000
38539.000000,37380.000000,55405.000000,33716.000000
38531.000000,37366.000000,55389.000000,33696.000000
38520.000000,37349.000000,55366.000000,33665.000000
38505.000000,37328.000000,55333.000000,33624.000000
38484.000000,37302.000000,55290.000000,33582.000000
38458.000000,37271.000000,55237.000000,33542.000000
38425.000000,37236.000000,55175.000000,33498.000000
38386.000000,37199.000000,55102.000000,33451.000000
38347.000000,37165.000000,55027.000000,33406.000000
38310.000000,37134.000000,54955.000000,33363.000000
38273.000000,37102.000000,54882.000000,33320.000000
38235.000000,37066.000000,54807.000000,33276.000000
38202.000000,37029.000000,54734.000000,33228.000000
38172.000000,36992.000000,54669.000000,33181.000000
38141.000000,36956.000000,54608.000000,33138.000000
38110.000000,36918.000000,54548.000000,33101.000000
38085.000000,36883.000000,54493.000000,33069.000000
38063.000000,36853.000000,54444.000000,33042.000000
38042.000000,36828.000000,54402.000000,33015.000000
38025.000000,36807.000000,54371.000000,32990.000000
38013.000000,36794.000000,54349.000000,32971.000000
38004.000000,36787.000000,54335.000000,32955.000000
37992.000000,36780.000000,54324.000000,32938.000000
37980.000000,36771.000000,54313.000000,32920.000000
37974.000000,36767.000000,54307.000000,32910.000000
37971.000000,36768.000000,54305.000000,32904.000000
37969.000000,36769.000000,54301.000000,32893.000000
37968.000000,36771.000000,54296.000000,32881.000000
37971.000000,36771.000000,54293.000000,32873.000000
37974.000000,36770.000000,54292.000000,32865.000000
37973.000000,36767.000000,54289.000000,32859.000000
37971.000000,36764.000000,54282.000000,32856.000000
37970.000000,36762.000000,54273.000000,32858.000000
37966.000000,36757.000000,54263.000000,32859.000000
37958.000000,36749.000000,54250.000000,32854.000000
37947.000000,36743.000000,54232.000000,32850.000000
37934.000000,36736.000000,54213.000000,32849.000000
37918.000000,36726.000000,54193.000000,32846.000000
37898.000000,36709.000000,54168.000000,32830.000000
37877.000000,36687.000000,54139.000000,32804.000000
37854.000000,36663.000000,54106.000000,32774.000000
37828.000000,36635.000000,54067.000000,32740.000000
37798.000000,36602.000000,54020.000000,32698.000000
37766.000000,36569.000000,53969.000000,32651.000000
37734.000000,36534.000000,53915.000000,32605.000000
37700.000000,36495.000000,53855.000000,32558.000000
37662.000000,36449.000000,53788.000000,32509.000000
37625.000000,36403.000000,53720.000000,32461.000000
37594.000000,36364.000000,53654.000000,32418.000000
37565.000000,36329.000000,53591.000000,32378.000000
37535.000000,36294.000000,53530.000000,32337.000000
37507.000000,36263.000000,53473.000000,32298.000000
37485.000000,36237.000000,53421.000000,32269.000000
37466.000000,36216.000000,53371.000000,32244.000000
37444.000000,36193.000000,53325.000000,32215.000000
37420.000000,36170.000000,53281.000000,32186.000000
37396.000000,36148.000000,53243.000000,32156.000000
37371.000000,36126.000000,53207.000000,32121.000000
37343.000000,36103.000000,53170.000000,32078.000000
37315.000000,36079.000000,53132.000000,32030.000000
37289.000000,36052.000000,53090.000000,31987.000000
37263.000000,36021.000000,53046.000000,31949.000000
37235.000000,35988.000000,53000.000000,31911.000000
37208.000000,35960.000000,52959.000000,31875.000000
37185.000000,35938.000000,52923.000000,31850.000000
37163.000000,35917.000000,52887.000000,31836.000000
37140.000000,35893.000000,52851.000000,31821.000000
37119.000000,35869.000000,52819.000000,31803.000000
37105.000000,35852.000000,52793.000000,31788.000000
37094.000000,35839.000000,52771.000000,31769.000000
37082.000000,35827.000000,52748.000000,31739.000000
37068.000000,35817.000000,52727.000000,31711.000000
37054.000000,35807.000000,52709.000000,31690.000000
37041.000000,35794.000000,52690.000000,31668.000000
37028.000000,35779.000000,52666.000000,31643.000000
37016.000000,35766.000000,52642.000000,31617.000000
37004.000000,35754.000000,52617.000000,31594.000000
36989.000000,35741.000000,52589.000000,31577.000000
36974.000000,35724.000000,52555.000000,31561.000000
36959.000000,35706.000000,52521.000000,31546.000000
36941.000000,35685.000000,52487.000000,31533.000000
36918.000000,35661.000000,52454.000000,31518.000000
36893.000000,35636.000000,52422.000000,31502.000000
36869.000000,35612.000000,52394.000000,31486.000000
36846.000000,35589.000000,52369.000000,31466.000000
36826.000000,35565.000000,52343.000000,31446.000000
36809.000000,35544.000000,52318.000000,31427.000000
36796.000000,35525.000000,52294.000000,31410.000000
36782.000000,35511.000000,52271.000000,31393.000000
36769.000000,35500.000000,52246.000000,31376.000000
36758.000000,35489.000000,52221.000000,31361.000000
36750.000000,35480.000000,52198.000000,31350.000000
36741.000000,35473.000000,52175.000000,31335.000000
36730.000000,35461.000000,52149.000000,31315.000000
36717.000000,35445.000000,52124.000000,31290.000000
36706.000000,35427.000000,52104.000000,31265.000000
36693.000000,35411.000000,52086.000000,31242.000000
36679.000000,35395.000000,52067.000000,31220.000000
36667.000000,35381.000000,52047.000000,31204.000000
36657.000000,35365.000000,52028.000000,31193.000000
36646.000000,35345.000000,52009.000000,31183.000000
36634.000000,35325.000000,51988.000000,31174.000000
36623.000000,35307.000000,51965.000000,31168.000000
36613.000000,35294.000000,51943.000000,31161.000000
36599.000000,35281.000000,51917.000000,31149.000000
36581.000000,35270.000000,51888.000000,31135.000000
36564.000000,35260.000000,51861.000000,31122.000000
36548.000000,35250.000000,51841.000000,31105.000000
36532.000000,35237.000000,51823.000000,31084.000000
36518.000000,35224.000000,51801.000000,31063.000000
36507.000000,35213.000000,51775.000000,31046.000000
36493.000000,35201.000000,51747.000000,31025.000000
36473.000000,35182.000000,51715.000000,30999.000000
36452.000000,35158.000000,51679.000000,30972.000000
36432.000000,35135.000000,51639.000000,30945.000000
36412.000000,35112.000000,51594.000000,30913.000000
36390.000000,35089.000000,51548.000000,30877.000000
36367.000000,35068.000000,51506.000000,30848.000000
36345.000000,35050.000000,51472.000000,30828.000000
36326.000000,35035.000000,51446.000000,30812.000000
36310.000000,35022.000000,51426.000000,30799.000000
36301.000000,35016.000000,51421.000000,30799.000000
36306.000000,35024.000000,51435.000000,30816.000000
36325.000000,35048.000000,51473.000000,30848.000000
36363.000000,35089.000000,51541.000000,30902.000000
36425.000000,35156.000000,51650.000000,30985.000000
36512.000000,35252.000000,51803.000000,31100.000000
36621.000000,35371.000000,52001.000000,31238.000000
36749.000000,35510.000000,52238.000000,31395.000000
36897.000000,35669.000000,52506.000000,31576.000000
37060.000000,35846.000000,52801.000000,31783.000000
37230.000000,36033.000000,53117.000000,32006.000000
37403.000000,36222.000000,53442.000000,32240.000000
37579.000000,36415.000000,53771.000000,32484.000000
37758.000000,36606.000000,54095.000000,32728.000000
37930.000000,36786.000000,54409.000000,32958.000000
38089.000000,36953.000000,54705.000000,33170.000000
38236.000000,37108.000000,54980.000000,33367.000000
38368.000000,37251.000000,55228.000000,33551.000000
38480.000000,37375.000000,55442.000000,33715.000000
38570.000000,37479.000000,55615.000000,33851.000000
38643.000000,37564.000000,55753.000000,33959.000000
38699.000000,37630.000000,55858.000000,34041.000000
38738.000000,37676.000000,55930.000000,34096.000000
38759.000000,37703.000000,55970.000000,34125.000000
38767.000000,37713.000000,55987.000000,34140.000000
38764.000000,37709.000000,55983.000000,34147.000000
38753.000000,37692.000000,55959.000000,34144.000000
38734.000000,37665.000000,55919.000000,34126.000000
38710.000000,37632.000000,55873.000000,34094.000000
38683.000000,37597.000000,55821.000000,34055.000000
38653.000000,37560.000000,55763.000000,34009.000000
38620.000000,37523.000000,55703.000000,33961.000000
38588.000000,37487.000000,55644.000000,33915.000000
38559.000000,37453.000000,55589.000000,33872.000000
38534.000000,37420.000000,55535.000000,33834.000000
38510.000000,37389.000000,55489.000000,33801.000000
38488.000000,37365.000000,55451.000000,33775.000000
38468.000000,37347.000000,55422.000000,33755.000000
38448.000000,37330.000000,55400.000000,33734.000000
38430.000000,37312.000000,55382.000000,33710.000000
38417.000000,37298.000000,55366.000000,33692.000000
38408.000000,37288.000000,55349.000000,33678.000000
38396.000000,37276.000000,55326.000000,33666.000000
38382.000000,37259.000000,55303.000000,33655.000000
38364.000000,37243.000000,55282.000000,33646.000000
38340.000000,37225.000000,55256.000000,33635.000000
38311.000000,37199.000000,55219.000000,33618.000000
38282.000000,37167.000000,55174.000000,33596.000000
38253.000000,37136.000000,55128.000000,33576.000000
38222.000000,37102.000000,55077.000000,33551.000000
38188.000000,37064.000000,55019.000000,33515.000000
38150.000000,37025.000000,54954.000000,33472.000000
38107.000000,36985.000000,54887.000000,33423.000000
38058.000000,36944.000000,54815.000000,33362.000000
38007.000000,36902.000000,54736.000000,33296.000000
37957.000000,36861.000000,54655.000000,33232.000000
37907.000000,36817.000000,54577.000000,33169.000000
37852.000000,36769.000000,54498.000000,33101.000000
37794.000000,36716.000000,54412.000000,33034.000000
37741.000000,36662.000000,54323.000000,32976.000000
37694.000000,36611.000000,54242.000000,32927.000000
37650.000000,36566.000000,54171.000000,32883.000000
37609.000000,36529.000000,54109.000000,32847.000000
37577.000000,36501.000000,54062.000000,32828.000000
37555.000000,36480.000000,54028.000000,32823.000000
37537.000000,36464.000000,54003.000000,32820.000000
37522.000000,36454.000000,53984.000000,32811.000000
37512.000000,36450.000000,53971.000000,32804.000000
37508.000000,36446.000000,53964.000000,32800.000000
37509.000000,36439.000000,53958.000000,32793.000000
37511.000000,36429.000000,53952.000000,32784.000000
37513.000000,36424.000000,53948.000000,32776.000000
37513.000000,36422.000000,53948.000000,32767.000000
37507.000000,36420.000000,53944.000000,32752.000000
37496.000000,36416.000000,53936.000000,32739.000000
37483.000000,36411.000000,53927.000000,32732.000000
37472.000000,36402.000000,53916.000000,32729.000000
37462.000000,36391.000000,53898.000000,32726.000000
37455.000000,36383.000000,53877.000000,32724.000000
37449.000000,36379.000000,53860.000000,32728.000000
37443.000000,36377.000000,53847.000000,32735.000000
37437.000000,36373.000000,53837.000000,32736.000000
37431.000000,36367.000000,53827.000000,32734.000000
37422.000000,36361.000000,53815.000000,32727.000000
37409.000000,36350.000000,53800.000000,32716.000000
37392.000000,36335.000000,53779.000000,32698.000000
37373.000000,36318.000000,53755.000000,32673.000000
37354.000000,36298.000000,53729.000000,32648.000000
37334.000000,36276.000000,53699.000000,32622.000000
37312.000000,36252.000000,53662.000000,32592.000000
37286.000000,36225.000000,53622.000000,32560.000000
37259.000000,36197.000000,53582.000000,32530.000000
37231.000000,36169.000000,53543.000000,32503.000000
37205.000000,36141.000000,53503.000000,32475.000000
37182.000000,36116.000000,53464.000000,32448.000000
37161.000000,36095.000000,53422.000000,32424.000000
37140.000000,36076.000000,53374.000000,32402.000000
37115.000000,36058.000000,53320.000000,32374.000000
37090.000000,36041.000000,53271.000000,32340.000000
37066.000000,36026.000000,53227.000000,32309.000000
37042.000000,36008.000000,53187.000000,32284.000000
37017.000000,35982.000000,53147.000000,32256.000000
36990.000000,35955.000000,53107.000000,32225.000000
36963.000000,35931.000000,53070.000000,32195.000000
36935.000000,35909.000000,53036.000000,32165.000000
36907.000000,35885.000000,53003.000000,32135.000000
36884.000000,35862.000000,52968.000000,32104.000000
36866.000000,35843.000000,52934.000000,32082.000000
36850.000000,35826.000000,52902.000000,32069.000000
36833.000000,35803.000000,52869.000000,32058.000000
36812.000000,35779.000000,52839.000000,32045.000000
36792.000000,35758.000000,52813.000000,32031.000000
36775.000000,35737.000000,52787.000000,32021.000000
36764.000000,35718.000000,52761.000000,32018.000000
36756.000000,35703.000000,52735.000000,32017.000000
36746.000000,35690.000000,52711.000000,32009.000000
36733.000000,35677.000000,52688.000000,31993.000000
36717.000000,35664.000000,52665.000000,31975.000000
36701.000000,35652.000000,52639.000000,31957.000000
36681.000000,35640.000000,52609.000000,31928.000000
36658.000000,35621.000000,52573.000000,31891.000000
36635.000000,35599.000000,52532.000000,31858.000000
36615.000000,35579.000000,52495.000000,31835.000000
36598.000000,35560.000000,52465.000000,31813.000000
36581.000000,35537.000000,52437.000000,31790.000000
36565.000000,35514.000000,52411.000000,31771.000000
36549.000000,35493.000000,52389.000000,31754.000000
36533.000000,35476.000000,52370.000000,31738.000000
36517.000000,35460.000000,52351.000000,31723.000000
36503.000000,35450.000000,52334.000000,31712.000000
36493.000000,35445.000000,52320.000000,31705.000000
36488.000000,35442.000000,52306.000000,31697.000000
36483.000000,35438.000000,52287.000000,31681.000000
36478.000000,35431.000000,52269.000000,31662.000000
36469.000000,35423.000000,52256.000000,31647.000000
36456.000000,35412.000000,52246.000000,31631.000000
36439.000000,35400.000000,52232.000000,31617.000000
36423.000000,35393.000000,52219.000000,31611.000000
36409.000000,35387.000000,52208.000000,31609.000000
36394.000000,35378.000000,52191.000000,31604.000000
36377.000000,35365.000000,52168.000000,31598.000000
36361.000000,35353.000000,52145.000000,31591.000000
36348.000000,35342.000000,52122.000000,31584.000000
36337.000000,35330.000000,52096.000000,31570.000000
36326.000000,35315.000000,52068.000000,31556.000000
36319.000000,35303.000000,52043.000000,31549.000000
36313.000000,35293.000000,52022.000000,31545.000000
36306.000000,35286.000000,52003.000000,31533.000000
36297.000000,35280.000000,51983.000000,31514.000000
36289.000000,35276.000000,51964.000000,31496.000000
36282.000000,35274.000000,51946.000000,31481.000000
36272.000000,35268.000000,51927.000000,31469.000000
36260.000000,35257.000000,51907.000000,31455.000000
36247.000000,35245.000000,51889.000000,31441.000000
36232.000000,35233.000000,51870.000000,31421.000000
36217.000000,35217.000000,51844.000000,31399.000000
36204.000000,35198.000000,51814.000000,31377.000000
36193.000000,35180.000000,51786.000000,31357.000000
36178.000000,35158.000000,51758.000000,31341.000000
36157.000000,35135.000000,51731.000000,31323.000000
36138.000000,35115.000000,51706.000000,31304.000000
36123.000000,35103.000000,51688.000000,31290.000000
36112.000000,35099.000000,51678.000000,31286.000000
36109.000000,35103.000000,51676.000000,31293.000000
36118.000000,35119.000000,51694.000000,31311.000000
36140.000000,35151.000000,51743.000000,31353.000000
36176.000000,35203.000000,51827.000000,31428.000000
36234.000000,35273.000000,51950.000000,31529.000000
36317.000000,35368.000000,52111.000000,31654.000000
36424.000000,35488.000000,52314.000000,31805.000000
36555.000000,35628.000000,52554.000000,31976.000000
36704.000000,35783.000000,52822.000000,32161.000000
36863.000000,35950.000000,53107.000000,32360.000000
37026.000000,36126.000000,53404.000000,32573.000000
37189.000000,36301.000000,53702.000000,32795.000000
37351.000000,36471.000000,53997.000000,33011.000000
37511.000000,36638.000000,54284.000000,33216.000000
37664.000000,36802.000000,54565.000000,33412.000000
37803.000000,36955.000000,54831.000000,33600.000000
37928.000000,37091.000000,55073.000000,33775.000000
38037.000000,37212.000000,55289.000000,33929.000000
38133.000000,37316.000000,55477.000000,34067.000000
38211.000000,37400.000000,55633.000000,34189.000000
38273.000000,37464.000000,55757.000000,34287.000000
38321.000000,37510.000000,55847.000000,34354.000000
38357.000000,37542.000000,55908.000000,34398.000000
38379.000000,37556.000000,55943.000000,34422.000000
38385.000000,37556.000000,55953.000000,34425.000000
38378.000000,37547.000000,55943.000000,34413.000000
38363.000000,37532.000000,55915.000000,34395.000000
38342.000000,37510.000000,55870.000000,34370.000000
38313.000000,37480.000000,55811.000000,34335.000000
38280.000000,37445.000000,55746.000000,34297.000000
38245.000000,37409.000000,55680.000000,34255.000000
38207.000000,37371.000000,55610.000000,34213.000000
38168.000000,37331.000000,55539.000000,34171.000000
38128.000000,37293.000000,55476.000000,34128.000000
38090.000000,37254.000000,55420.000000,34085.000000
38052.000000,37215.000000,55368.000000,34048.000000
38018.000000,37176.000000,55316.000000,34016.000000
37988.000000,37138.000000,55266.000000,33986.000000
37961.000000,37102.000000,55219.000000,33951.000000
37939.000000,37073.000000,55177.000000,33914.000000
37919.000000,37051.000000,55142.000000,33882.000000
37902.000000,37036.000000,55113.000000,33858.000000
37887.000000,37024.000000,55089.000000,33839.000000
37873.000000,37015.000000,55067.000000,33823.000000
37860.000000,37006.000000,55046.000000,33806.000000
37846.000000,36997.000000,55027.000000,33788.000000
37829.000000,36982.000000,55007.000000,33765.000000
37811.000000,36960.000000,54979.000000,33734.000000
37791.000000,36931.000000,54942.000000,33701.000000
37766.000000,36897.000000,54894.000000,33662.000000
37735.000000,36859.000000,54833.000000,33612.000000
37698.000000,36820.000000,54759.000000,33558.000000
37659.000000,36784.000000,54682.000000,33507.000000
37618.000000,36750.000000,54605.000000,33459.000000
37574.000000,36712.000000,54527.000000,33407.000000
37526.000000,36671.000000,54446.000000,33352.000000
37479.000000,36629.000000,54367.000000,33299.000000
37436.000000,36590.000000,54293.000000,33248.000000
37395.000000,36551.000000,54223.000000,33194.000000
37355.000000,36513.000000,54157.000000,33141.000000
37320.000000,36479.000000,54098.000000,33095.000000
37291.000000,36447.000000,54043.000000,33056.000000
37264.000000,36413.000000,53989.000000,33016.000000
37239.000000,36379.000000,53942.000000,32975.000000
37219.000000,36352.000000,53904.000000,32941.000000
37204.000000,36330.000000,53873.000000,32919.000000
37192.000000,36309.000000,53845.000000,32901.000000
37181.000000,36288.000000,53821.000000,32882.000000
37174.000000,36273.000000,53805.000000,32869.000000
37170.000000,36265.000000,53794.000000,32860.000000
37171.000000,36261.000000,53784.000000,32852.000000
37176.000000,36261.000000,53777.000000,32846.000000
37183.000000,36261.000000,53776.000000,32846.000000
37188.000000,36261.000000,53779.000000,32844.000000
37186.000000,36262.000000,53782.000000,32840.000000
37178.000000,36267.000000,53787.000000,32840.000000
37168.000000,36274.000000,53793.000000,32845.000000
37158.000000,36279.000000,53798.000000,32850.000000
37146.000000,36280.000000,53797.000000,32851.000000
37138.000000,36277.000000,53790.000000,32847.000000
37131.000000,36270.000000,53780.000000,32844.000000
37121.000000,36260.000000,53763.000000,32840.000000
37106.000000,36246.000000,53736.000000,32829.000000
37088.000000,36227.000000,53702.000000,32810.000000
37068.000000,36206.000000,53667.000000,32784.000000
37044.000000,36183.000000,53632.000000,32751.000000
37017.000000,36156.000000,53594.000000,32717.000000
36992.000000,36129.000000,53559.000000,32684.000000
36968.000000,36105.000000,53525.000000,32656.000000
36942.000000,36080.000000,53488.000000,32624.000000
36918.000000,36049.000000,53443.000000,32593.000000
36898.000000,36018.000000,53388.000000,32563.000000
36881.000000,35989.000000,53332.000000,32534.000000
36862.000000,35960.000000,53278.000000,32503.000000
36837.000000,35929.000000,53227.000000,32468.000000
36811.000000,35898.000000,53178.000000,32437.000000
36785.000000,35869.000000,53134.000000,32406.000000
36757.000000,35837.000000,53092.000000,32366.000000
36726.000000,35800.000000,53047.000000,32321.000000
36694.000000,35767.000000,53003.000000,32280.000000
36663.000000,35736.000000,52962.000000,32246.000000
36634.000000,35705.000000,52919.000000,32213.000000
36609.000000,35676.000000,52876.000000,32175.000000
36589.000000,35654.000000,52838.000000,32139.000000
36572.000000,35635.000000,52805.000000,32114.000000
36554.000000,35615.000000,52768.000000,32097.000000
36534.000000,35593.000000,52730.000000,32076.000000
36514.000000,35571.000000,52693.000000,32051.000000
36491.000000,35550.000000,52658.000000,32027.000000
36469.000000,35528.000000,52622.000000,32000.000000
36449.000000,35507.000000,52583.000000,31970.000000
36434.000000,35488.000000,52547.000000,31937.000000
36421.000000,35468.000000,52516.000000,31906.000000
36410.000000,35445.000000,52484.000000,31877.000000
36400.000000,35423.000000,52452.000000,31854.000000
36392.000000,35406.000000,52426.000000,31838.000000
36383.000000,35396.000000,52407.000000,31827.000000
36371.000000,35384.000000,52390.000000,31820.000000
36358.000000,35369.000000,52372.000000,31814.000000
36346.000000,35355.000000,52356.000000,31809.000000
36331.000000,35341.000000,52341.000000,31804.000000
36315.000000,35327.000000,52325.000000,31798.000000
36303.000000,35314.000000,52309.000000,31795.000000
36293.000000,35302.000000,52292.000000,31792.000000
36283.000000,35288.000000,52269.000000,31781.000000
36270.000000,35271.000000,52239.000000,31765.000000
36258.000000,35257.000000,52211.000000,31747.000000
36248.000000,35246.000000,52189.000000,31733.000000
36238.000000,35236.000000,52170.000000,31717.000000
36230.000000,35226.000000,52153.000000,31700.000000
36225.000000,35220.000000,52139.000000,31683.000000
36223.000000,35220.000000,52128.000000,31666.000000
36222.000000,35219.000000,52115.000000,31647.000000
36213.000000,35213.000000,52102.000000,31622.000000
36200.000000,35204.000000,52091.000000,31595.000000
36187.000000,35194.000000,52081.000000,31574.000000
36172.000000,35180.000000,52063.000000,31555.000000
36154.000000,35165.000000,52037.000000,31535.000000
36137.000000,35150.000000,52008.000000,31519.000000
36125.000000,35139.000000,51981.000000,31511.000000
36112.000000,35128.000000,51954.000000,31505.000000
36098.000000,35118.000000,51928.000000,31492.000000
36085.000000,35108.000000,51904.000000,31480.000000
36075.000000,35100.000000,51882.000000,31477.000000
36063.000000,35091.000000,51860.000000,31474.000000
36046.000000,35079.000000,51829.000000,31461.000000
36028.000000,35064.000000,51796.000000,31443.000000
36013.000000,35051.000000,51769.000000,31429.000000
36000.000000,35037.000000,51744.000000,31420.000000
35991.000000,35022.000000,51714.000000,31409.000000
35984.000000,35008.000000,51686.000000,31395.000000
35979.000000,35003.000000,51666.000000,31381.000000
35974.000000,35002.000000,51652.000000,31369.000000
35970.000000,35004.000000,51643.000000,31361.000000
35969.000000,35009.000000,51640.000000,31359.000000
35971.000000,35016.000000,51642.000000,31361.000000
35975.000000,35026.000000,51651.000000,31361.000000
35983.000000,35043.000000,51674.000000,31373.000000
36003.000000,35071.000000,51719.000000,31403.000000
36040.000000,35114.000000,51792.000000,31451.000000
36097.000000,35173.000000,51898.000000,31515.000000
36173.000000,35255.000000,52038.000000,31606.000000
36271.000000,35362.000000,52213.000000,31727.000000
36389.000000,35492.000000,52421.000000,31875.000000
36522.000000,35639.000000,52655.000000,32047.000000
36668.000000,35802.000000,52914.000000,32244.000000
36826.000000,35978.000000,53197.000000,32460.000000
36987.000000,36155.000000,53493.000000,32682.000000
37146.000000,36325.000000,53789.000000,32901.000000
37300.000000,36490.000000,54080.000000,33111.000000
37447.000000,36650.000000,54363.000000,33311.000000
37581.000000,36798.000000,54625.000000,33496.000000
37700.000000,36927.000000,54863.000000,33665.000000
37807.000000,37041.000000,55076.000000,33820.000000
37906.000000,37141.000000,55262.000000,33960.000000
37992.000000,37227.000000,55416.000000,34076.000000
38063.000000,37295.000000,55537.000000,34162.000000
38117.000000,37345.000000,55630.000000,34225.000000
38157.000000,37381.000000,55700.000000,34271.000000
38183.000000,37406.000000,55743.000000,34297.000000
38196.000000,37416.000000,55758.000000,34304.000000
38200.000000,37416.000000,55753.000000,34301.000000
38198.000000,37410.000000,55733.000000,34295.000000
38188.000000,37395.000000,55701.000000,34280.000000
38170.000000,37372.000000,55658.000000,34252.000000
38147.000000,37346.000000,55609.000000,34213.000000
38119.000000,37318.000000,55557.000000,34173.000000
38086.000000,37286.000000,55501.000000,34137.000000
38049.000000,37250.000000,55440.000000,34100.000000
38011.000000,37216.000000,55378.000000,34060.000000
37973.000000,37183.000000,55321.000000,34014.000000
37938.000000,37152.000000,55266.000000,33966.000000
37908.000000,37123.000000,55211.000000,33919.000000
37882.000000,37098.000000,55160.000000,33880.000000
37859.000000,37074.000000,55113.000000,33848.000000
37837.000000,37050.000000,55068.000000,33821.000000
37816.000000,37030.000000,55025.000000,33799.000000
37797.000000,37013.000000,54983.000000,33779.000000
37777.000000,36996.000000,54941.000000,33755.000000
37753.000000,36975.000000,54898.000000,33721.000000
37728.000000,36950.000000,54852.000000,33681.000000
37702.000000,36921.000000,54806.000000,33639.000000
37671.000000,36885.000000,54756.000000,33593.000000
37634.000000,36842.000000,54698.000000,33542.000000
37596.000000,36798.000000,54632.000000,33490.000000
37559.000000,36757.000000,54565.000000,33439.000000
37522.000000,36716.000000,54497.000000,33388.000000
37482.000000,36673.000000,54427.000000,33335.000000
37442.000000,36631.000000,54359.000000,33284.000000
37405.000000,36592.000000,54293.000000,33232.000000
37370.000000,36550.000000,54224.000000,33177.000000
37336.000000,36508.000000,54156.000000,33122.000000
37306.000000,36471.000000,54096.000000,33078.000000
37280.000000,36441.000000,54048.000000,33043.000000
37256.000000,36416.000000,54005.000000,33007.000000
37231.000000,36393.000000,53967.000000,32972.000000
37208.000000,36376.000000,53934.000000,32947.000000
37189.000000,36364.000000,53908.000000,32938.000000
37177.000000,36358.000000,53890.000000,32941.000000
37171.000000,36357.000000,53882.000000,32949.000000
37170.000000,36362.000000,53883.000000,32963.000000
37173.000000,36373.000000,53891.000000,32983.000000
37177.000000,36382.000000,53899.000000,33004.000000
37181.000000,36389.000000,53908.000000,33020.000000
37188.000000,36398.000000,53925.000000,33034.000000
37199.000000,36412.000000,53946.000000,33048.000000
37212.000000,36425.000000,53963.000000,33061.000000
37222.000000,36431.000000,53974.000000,33068.000000
37230.000000,36435.000000,53983.000000,33071.000000
37237.000000,36437.000000,53992.000000,33074.000000
37246.000000,36438.000000,54000.000000,33077.000000
37256.000000,36440.000000,54005.000000,33083.000000
37264.000000,36445.000000,54008.000000,33088.000000
37268.000000,36451.000000,54009.000000,33087.000000
37268.000000,36455.000000,54004.000000,33077.000000
37264.000000,36455.000000,53990.000000,33058.000000
37256.000000,36455.000000,53971.000000,33033.000000
37243.000000,36450.000000,53948.000000,33005.000000
37224.000000,36436.000000,53919.000000,32978.000000
37201.000000,36414.000000,53886.000000,32951.000000
37178.000000,36388.000000,53851.000000,32924.000000
37155.000000,36357.000000,53811.000000,32890.000000
37128.000000,36323.000000,53763.000000,32854.000000
37103.000000,36289.000000,53712.000000,32825.000000
37083.000000,36263.000000,53664.000000,32801.000000
37064.000000,36239.000000,53619.000000,32774.000000
37045.000000,36213.000000,53575.000000,32745.000000
37024.000000,36188.000000,53535.000000,32719.000000
37000.000000,36165.000000,53498.000000,32698.000000
36974.000000,36137.000000,53461.000000,32675.000000
36947.000000,36104.000000,53418.000000,32646.000000
36920.000000,36069.000000,53373.000000,32616.000000
36893.000000,36037.000000,53331.000000,32582.000000
36861.000000,36006.000000,53291.000000,32543.000000
36826.000000,35976.000000,53252.000000,32505.000000
36789.000000,35948.000000,53210.000000,32474.000000
36753.000000,35923.000000,53167.000000,32453.000000
36720.000000,35899.000000,53121.000000,32434.000000
36690.000000,35874.000000,53077.000000,32413.000000
36670.000000,35854.000000,53039.000000,32390.000000
36656.000000,35837.000000,53007.000000,32372.000000
36643.000000,35822.000000,52974.000000,32359.000000
36627.000000,35808.000000,52942.000000,32346.000000
36613.000000,35795.000000,52914.000000,32334.000000
36603.000000,35784.000000,52894.000000,32323.000000
36594.000000,35772.000000,52873.000000,32312.000000
36584.000000,35759.000000,52850.000000,32295.000000
36574.000000,35749.000000,52830.000000,32271.000000
36565.000000,35738.000000,52816.000000,32251.000000
36557.000000,35725.000000,52804.000000,32235.000000
36549.000000,35710.000000,52791.000000,32219.000000
36542.000000,35699.000000,52774.000000,32204.000000
36537.000000,35694.000000,52756.000000,32196.000000
36530.000000,35691.000000,52739.000000,32192.000000
36523.000000,35690.000000,52723.000000,32187.000000
36521.000000,35690.000000,52711.000000,32183.000000
36523.000000,35692.000000,52704.000000,32182.000000
36525.000000,35693.000000,52699.000000,32180.000000
36523.000000,35691.000000,52694.000000,32176.000000
36516.000000,35687.000000,52685.000000,32170.000000
36503.000000,35677.000000,52669.000000,32159.000000
36487.000000,35663.000000,52644.000000,32139.000000
36472.000000,35648.000000,52617.000000,32117.000000
36459.000000,35636.000000,52591.000000,32094.000000
36445.000000,35624.000000,52564.000000,32070.000000
36432.000000,35611.000000,52536.000000,32051.000000
36422.000000,35602.000000,52512.000000,32040.000000
36413.000000,35598.000000,52493.000000,32033.000000
36402.000000,35591.000000,52477.000000,32017.000000
36388.000000,35578.000000,52460.000000,31990.000000
36376.000000,35563.000000,52441.000000,31958.000000
36363.000000,35547.000000,52422.000000,31932.000000
36347.000000,35527.000000,52397.000000,31909.000000
36328.000000,35504.000000,52364.000000,31887.000000
36311.000000,35482.000000,52330.000000,31869.000000
36296.000000,35465.000000,52298.000000,31860.000000
36285.000000,35452.000000,52269.000000,31863.000000
36277.000000,35444.000000,52246.000000,31868.000000
36273.000000,35444.000000,52234.000000,31875.000000
36276.000000,35453.000000,52238.000000,31888.000000
36286.000000,35470.000000,52258.000000,31908.000000
36305.000000,35498.000000,52297.000000,31933.000000
36339.000000,35540.000000,52364.000000,31966.000000
36391.000000,35602.000000,52463.000000,32026.000000
36463.000000,35686.000000,52597.000000,32120.000000
36556.000000,35790.000000,52765.000000,32241.000000
36673.000000,35917.000000,52971.000000,32392.000000
36811.000000,36068.000000,53211.000000,32574.000000
36964.000000,36236.000000,53479.000000,32778.000000
37124.000000,36413.000000,53766.000000,32994.000000
37288.000000,36595.000000,54067.000000,33212.000000
37453.000000,36777.000000,54375.000000,33430.000000
37616.000000,36956.000000,54683.000000,33650.000000
37772.000000,37129.000000,54983.000000,33868.000000
37921.000000,37296.000000,55273.000000,34075.000000
38061.000000,37456.000000,55546.000000,34264.000000
38187.000000,37602.000000,55794.000000,34432.000000
38300.000000,37729.000000,56011.000000,34579.000000
38400.000000,37833.000000,56195.000000,34704.000000
38485.000000,37913.000000,56344.000000,34811.000000
38552.000000,37970.000000,56457.000000,34898.000000
38600.000000,38011.000000,56536.000000,34965.000000
38630.000000,38038.000000,56588.000000,35015.000000
38644.000000,38052.000000,56616.000000,35048.000000
38647.000000,38053.000000,56623.000000,35064.000000
38642.000000,38043.000000,56613.000000,35065.000000
38631.000000,38027.000000,56586.000000,35054.000000
38613.000000,38004.000000,56548.000000,35032.000000
38586.000000,37973.000000,56501.000000,35002.000000
38557.000000,37942.000000,56449.000000,34972.000000
38529.000000,37915.000000,56399.000000,34943.000000
38501.000000,37887.000000,56350.000000,34909.000000
38468.000000,37856.000000,56301.000000,34868.000000
38434.000000,37827.000000,56256.000000,34830.000000
38403.000000,37801.000000,56217.000000,34793.000000
38376.000000,37774.000000,56180.000000,34756.000000
38349.000000,37744.000000,56144.000000,34723.000000
38326.000000,37716.000000,56110.000000,34699.000000
38306.000000,37692.000000,56078.000000,34678.000000
38286.000000,37668.000000,56048.000000,34653.000000
38265.000000,37643.000000,56019.000000,34623.000000
38248.000000,37622.000000,55993.000000,34594.000000
38236.000000,37608.000000,55967.000000,34570.000000
38225.000000,37598.000000,55942.000000,34550.000000
38213.000000,37587.000000,55917.000000,34532.000000
38203.000000,37578.000000,55893.000000,34520.000000
38192.000000,37571.000000,55869.000000,34511.000000
38179.000000,37559.000000,55842.000000,34498.000000
38161.000000,37541.000000,55808.000000,34479.000000
38139.000000,37519.000000,55765.000000,34455.000000
38113.000000,37491.000000,55713.000000,34423.000000
38085.000000,37458.000000,55652.000000,34382.000000
38056.000000,37421.000000,55585.000000,34335.000000
38022.000000,37382.000000,55511.000000,34283.000000
37980.000000,37337.000000,55435.000000,34225.000000
37932.000000,37287.000000,55358.000000,34161.000000
37885.000000,37237.000000,55281.000000,34097.000000
37841.000000,37192.000000,55202.000000,34037.000000
37799.000000,37147.000000,55123.000000,33977.000000
37760.000000,37101.000000,55046.000000,33918.000000
37727.000000,37059.000000,54976.000000,33865.000000
37701.000000,37022.000000,54915.000000,33827.000000
37674.000000,36987.000000,54862.000000,33800.000000
37648.000000,36956.000000,54820.000000,33774.000000
37628.000000,36933.000000,54792.000000,33751.000000
37614.000000,36918.000000,54775.000000,33734.000000
37605.000000,36910.000000,54762.000000,33724.000000
37601.000000,36905.000000,54750.000000,33714.000000
37602.000000,36907.000000,54742.000000,33706.000000
37604.000000,36912.000000,54740.000000,33705.000000
37605.000000,36915.000000,54744.000000,33711.000000
37600.000000,36912.000000,54745.000000,33711.000000
37594.000000,36909.000000,54743.000000,33703.000000
37591.000000,36909.000000,54742.000000,33699.000000
37590.000000,36909.000000,54742.000000,33698.000000
37588.000000,36907.000000,54740.000000,33696.000000
37587.000000,36904.000000,54737.000000,33693.000000
37587.000000,36903.000000,54733.000000,33695.000000
37586.000000,36901.000000,54730.000000,33698.000000
37583.000000,36897.000000,54723.000000,33692.000000
37576.000000,36893.000000,54710.000000,33679.000000
37568.000000,36890.000000,54698.000000,33668.000000
37560.000000,36884.000000,54684.000000,33662.000000
37550.000000,36873.000000,54662.000000,33653.000000
37536.000000,36861.000000,54633.000000,33641.000000
37520.000000,36852.000000,54602.000000,33626.000000
37503.000000,36844.000000,54572.000000,33608.000000
37485.000000,36832.000000,54538.000000,33587.000000
37464.000000,36813.000000,54501.000000,33560.000000
37439.000000,36790.000000,54463.000000,33526.000000
37413.000000,36763.000000,54426.000000,33488.000000
37388.000000,36739.000000,54391.000000,33453.000000
37366.000000,36718.000000,54356.000000,33425.000000
37346.000000,36696.000000,54321.000000,33399.000000
37326.000000,36671.000000,54283.000000,33374.000000
37307.000000,36646.000000,54246.000000,33352.000000
37290.000000,36623.000000,54210.000000,33330.000000
37270.000000,36599.000000,54175.000000,33305.000000
37247.000000,36571.000000,54137.000000,33272.000000
37220.000000,36542.000000,54098.000000,33238.000000
37193.000000,36516.000000,54060.000000,33207.000000
37168.000000,36493.000000,54018.000000,33175.000000
37146.000000,36472.000000,53971.000000,33139.000000
37128.000000,36453.000000,53925.000000,33104.000000
37113.000000,36439.000000,53883.000000,33076.000000
37098.000000,36428.000000,53844.000000,33054.000000
37082.000000,36415.000000,53807.000000,33033.000000
37066.000000,36403.000000,53773.000000,33013.000000
37050.000000,36390.000000,53746.000000,32998.000000
37034.000000,36375.000000,53723.000000,32985.000000
37018.000000,36357.000000,53700.000000,32973.000000
37003.000000,36341.000000,53677.000000,32958.000000
36994.000000,36328.000000,53657.000000,32945.000000
36989.000000,36319.000000,53641.000000,32932.000000
36986.000000,36309.000000,53625.000000,32918.000000
36984.000000,36299.000000,53609.000000,32905.000000
36981.000000,36293.000000,53594.000000,32895.000000
36975.000000,36288.000000,53580.000000,32883.000000
36965.000000,36283.000000,53564.000000,32869.000000
36955.000000,36276.000000,53548.000000,32859.000000
36944.000000,36269.000000,53531.000000,32853.000000
36929.000000,36259.000000,53511.000000,32842.000000
36912.000000,36246.000000,53489.000000,32832.000000
36900.000000,36233.000000,53471.000000,32828.000000
36889.000000,36222.000000,53456.000000,32824.000000
36879.000000,36212.000000,53438.000000,32813.000000
36869.000000,36203.000000,53418.000000,32800.000000
36861.000000,36196.000000,53401.000000,32789.000000
36857.000000,36189.000000,53388.000000,32779.000000
36854.000000,36180.000000,53374.000000,32761.000000
36849.000000,36170.000000,53357.000000,32740.000000
36843.000000,36162.000000,53338.000000,32726.000000
36836.000000,36155.000000,53319.000000,32719.000000
36826.000000,36144.000000,53298.000000,32708.000000
36815.000000,36132.000000,53274.000000,32692.000000
36804.000000,36122.000000,53248.000000,32678.000000
36794.000000,36113.000000,53222.000000,32667.000000
36782.000000,36101.000000,53196.000000,32654.000000
36767.000000,36086.000000,53171.000000,32636.000000
36751.000000,36070.000000,53149.000000,32618.000000
36734.000000,36052.000000,53125.000000,32601.000000
36712.000000,36031.000000,53096.000000,32578.000000
36688.000000,36009.000000,53062.000000,32549.000000
36662.000000,35987.000000,53028.000000,32520.000000
36637.000000,35966.000000,52993.000000,32492.000000
36617.000000,35943.000000,52959.000000,32468.000000
36607.000000,35923.000000,52931.000000,32453.000000
36608.000000,35914.000000,52915.000000,32449.000000
36620.000000,35920.000000,52917.000000,32457.000000
36643.000000,35938.000000,52940.000000,32478.000000
36681.000000,35973.000000,52992.000000,32519.000000
36737.000000,36031.000000,53081.000000,32582.000000
36812.000000,36110.000000,53204.000000,32666.000000
36905.000000,36208.000000,53363.000000,32773.000000
37016.000000,36330.000000,53559.000000,32908.000000
37146.000000,36472.000000,53788.000000,33068.000000
37289.000000,36628.000000,54045.000000,33247.000000
37439.000000,36793.000000,54323.000000,33443.000000
37591.000000,36968.000000,54618.000000,33652.000000
37745.000000,37145.000000,54921.000000,33871.000000
37902.000000,37320.000000,55221.000000,34094.000000
38057.000000,37488.000000,55514.000000,34315.000000
38207.000000,37653.000000,55798.000000,34530.000000
38351.000000,37814.000000,56069.000000,34737.000000
38485.000000,37961.000000,56315.000000,34927.000000
38606.000000,38087.000000,56529.000000,35089.000000
38714.000000,38196.000000,56712.000000,35225.000000
38804.000000,38286.000000,56861.000000,35341.000000
38877.000000,38357.000000,56973.000000,35437.000000
38932.000000,38410.000000,57055.000000,35504.000000
38972.000000,38448.000000,57114.000000,35542.000000
38995.000000,38473.000000,57157.000000,35556.000000
39002.000000,38485.000000,57179.000000,35555.000000
38998.000000,38483.000000,57184.000000,35540.000000
38987.000000,38470.000000,57175.000000,35521.000000
38975.000000,38447.000000,57152.000000,35504.000000
38958.000000,38413.000000,57119.000000,35481.000000
38935.000000,38372.000000,57080.000000,35450.000000
38908.000000,38331.000000,57033.000000,35421.000000
38879.000000,38295.000000,56982.000000,35393.000000
38851.000000,38262.000000,56933.000000,35368.000000
38824.000000,38232.000000,56889.000000,35346.000000
38799.000000,38207.000000,56850.000000,35325.000000
38777.000000,38187.000000,56819.000000,35306.000000
38759.000000,38172.000000,56794.000000,35287.000000
38746.000000,38161.000000,56772.000000,35271.000000
38736.000000,38153.000000,56750.000000,35259.000000
38725.000000,38144.000000,56727.000000,35247.000000
38710.000000,38132.000000,56703.000000,35231.000000
38698.000000,38123.000000,56685.000000,35215.000000
38690.000000,38117.000000,56676.000000,35205.000000
38683.000000,38111.000000,56672.000000,35201.000000
38679.000000,38104.000000,56668.000000,35196.000000
38679.000000,38097.000000,56664.000000,35188.000000
38678.000000,38094.000000,56660.000000,35182.000000
38673.000000,38089.000000,56652.000000,35174.000000
38663.000000,38079.000000,56636.000000,35161.000000
38651.000000,38063.000000,56612.000000,35149.000000
38637.000000,38042.000000,56580.000000,35137.000000
38614.000000,38015.000000,56537.000000,35114.000000
38581.000000,37980.000000,56479.000000,35073.000000
38540.000000,37939.000000,56407.000000,35018.000000
38496.000000,37900.000000,56329.000000,34959.000000
38448.000000,37860.000000,56246.000000,34903.000000
38398.000000,37816.000000,56156.000000,34842.000000
38351.000000,37771.000000,56062.000000,34772.000000
38310.000000,37727.000000,55970.000000,34699.000000
38274.000000,37683.000000,55882.000000,34626.000000
38240.000000,37637.000000,55798.000000,34552.000000
38208.000000,37592.000000,55722.000000,34482.000000
38177.000000,37553.000000,55654.000000,34425.000000
38144.000000,37520.000000,55597.000000,34383.000000
38112.000000,37490.000000,55552.000000,34353.000000
38083.000000,37468.000000,55517.000000,34331.000000
38061.000000,37452.000000,55490.000000,34316.000000
38045.000000,37439.000000,55468.000000,34302.000000
38034.000000,37429.000000,55453.000000,34294.000000
38029.000000,37425.000000,55449.000000,34292.000000
38030.000000,37427.000000,55456.000000,34293.000000
38034.000000,37431.000000,55466.000000,34292.000000
38041.000000,37439.000000,55474.000000,34294.000000
38052.000000,37451.000000,55480.000000,34300.000000
38058.000000,37462.000000,55483.000000,34304.000000
38061.000000,37468.000000,55482.000000,34301.000000
38060.000000,37466.000000,55479.000000,34293.000000
38058.000000,37462.000000,55474.000000,34288.000000
38056.000000,37456.000000,55466.000000,34284.000000
38051.000000,37450.000000,55451.000000,34279.000000
38044.000000,37443.000000,55438.000000,34271.000000
38037.000000,37434.000000,55428.000000,34260.000000
38026.000000,37420.000000,55417.000000,34249.000000
38011.000000,37400.000000,55401.000000,34234.000000
37993.000000,37376.000000,55380.000000,34217.000000
37973.000000,37351.000000,55357.000000,34199.000000
37950.000000,37324.000000,55329.000000,34181.000000
37928.000000,37296.000000,55292.000000,34158.000000
37909.000000,37270.000000,55249.000000,34129.000000
37889.000000,37244.000000,55206.000000,34100.000000
37866.000000,37217.000000,55159.000000,34070.000000
37840.000000,37187.000000,55105.000000,34037.000000
37815.000000,37160.000000,55046.000000,34002.000000
37794.000000,37139.000000,54989.000000,33967.000000
37775.000000,37125.000000,54936.000000,33931.000000
37757.000000,37112.000000,54889.000000,33893.000000
37740.000000,37097.000000,54846.000000,33855.000000
37721.000000,37083.000000,54809.000000,33817.000000
37697.000000,37069.000000,54773.000000,33779.000000
37669.000000,37052.000000,54732.000000,33739.000000
37638.000000,37033.000000,54690.000000,33699.000000
37607.000000,37013.000000,54646.000000,33662.000000
37576.000000,36991.000000,54604.000000,33628.000000
37550.000000,36968.000000,54566.000000,33599.000000
37530.000000,36946.000000,54532.000000,33577.000000
37514.000000,36926.000000,54501.000000,33556.000000
37498.000000,36906.000000,54468.000000,33532.000000
37484.000000,36885.000000,54434.000000,33508.000000
37474.000000,36866.000000,54400.000000,33487.000000
37467.000000,36852.000000,54366.000000,33467.000000
37461.000000,36842.000000,54334.000000,33450.000000
37455.000000,36836.000000,54309.000000,33436.000000
37449.000000,36835.000000,54288.000000,33426.000000
37440.000000,36833.000000,54266.000000,33413.000000
37429.000000,36825.000000,54242.000000,33394.000000
37417.000000,36814.000000,54217.000000,33373.000000
37405.000000,36805.000000,54194.000000,33354.000000
37393.000000,36794.000000,54170.000000,33338.000000
37378.000000,36779.000000,54145.000000,33321.000000
37359.000000,36761.000000,54116.000000,33303.000000
37338.000000,36741.000000,54087.000000,33284.000000
37318.000000,36720.000000,54058.000000,33267.000000
37301.000000,36699.000000,54026.000000,33247.000000
37285.000000,36679.000000,53991.000000,33222.000000
37270.000000,36660.000000,53957.000000,33195.000000
37256.000000,36641.000000,53924.000000,33172.000000
37240.000000,36622.000000,53892.000000,33153.000000
37225.000000,36604.000000,53864.000000,33133.000000
37210.000000,36590.000000,53841.000000,33116.000000
37194.000000,36574.000000,53818.000000,33099.000000
37177.000000,36555.000000,53794.000000,33079.000000
37160.000000,36538.000000,53772.000000,33062.000000
37147.000000,36527.000000,53754.000000,33050.000000
37135.000000,36517.000000,53738.000000,33038.000000
37125.000000,36506.000000,53723.000000,33024.000000
37119.000000,36499.000000,53709.000000,33014.000000
37116.000000,36493.000000,53697.000000,33008.000000
37109.000000,36484.000000,53686.000000,32995.000000
37097.000000,36471.000000,53670.000000,32973.000000
37083.000000,36457.000000,53647.000000,32950.000000
37069.000000,36444.000000,53620.000000,32928.000000
37052.000000,36428.000000,53588.000000,32904.000000
37035.000000,36411.000000,53552.000000,32880.000000
37021.000000,36397.000000,53518.000000,32862.000000
37009.000000,36387.000000,53490.000000,32848.000000
36997.000000,36374.000000,53464.000000,32830.000000
36984.000000,36357.000000,53439.000000,32811.000000
36973.000000,36338.000000,53413.000000,32793.000000
36961.000000,36318.000000,53386.000000,32775.000000
36948.000000,36295.000000,53355.000000,32752.000000
36936.000000,36272.000000,53323.000000,32727.000000
36920.000000,36253.000000,53289.000000,32702.000000
36899.000000,36235.000000,53257.000000,32679.000000
36876.000000,36217.000000,53227.000000,32657.000000
36854.000000,36201.000000,53199.000000,32638.000000
36832.000000,36187.000000,53172.000000,32624.000000
36810.000000,36171.000000,53147.000000,32615.000000
36792.000000,36154.000000,53125.000000,32613.000000
36786.000000,36144.000000,53113.000000,32620.000000
36795.000000,36147.000000,53120.000000,32637.000000
36818.000000,36163.000000,53146.000000,32662.000000
36853.000000,36196.000000,53199.000000,32700.000000
36902.000000,36249.000000,53287.000000,32757.000000
36971.000000,36328.000000,53416.000000,32842.000000
37060.000000,36431.000000,53584.000000,32954.000000
37169.000000,36551.000000,53786.000000,33085.000000
37296.000000,36688.000000,54020.000000,33237.000000
37439.000000,36843.000000,54282.000000,33414.000000
37594.000000,37014.000000,54565.000000,33612.000000
37758.000000,37195.000000,54862.000000,33827.000000
37927.000000,37382.000000,55165.000000,34055.000000
38101.000000,37573.000000,55472.000000,34295.000000
38273.000000,37763.000000,55777.000000,34531.000000
38437.000000,37944.000000,56071.000000,34753.000000
38593.000000,38112.000000,56348.000000,34960.000000
38736.000000,38266.000000,56604.000000,35149.000000
38859.000000,38403.000000,56833.000000,35314.000000
38963.000000,38515.000000,57028.000000,35452.000000
39046.000000,38604.000000,57188.000000,35569.000000
39112.000000,38674.000000,57315.000000,35664.000000
39160.000000,38726.000000,57406.000000,35732.000000
39196.000000,38760.000000,57464.000000,35775.000000
39223.000000,38780.000000,57496.000000,35801.000000
39236.000000,38788.000000,57509.000000,35813.000000
39233.000000,38783.000000,57505.000000,35809.000000
39223.000000,38771.000000,57488.000000,35794.000000
39212.000000,38759.000000,57465.000000,35780.000000
39198.000000,38745.000000,57440.000000,35766.000000
39180.000000,38727.000000,57411.000000,35741.000000
39160.000000,38707.000000,57377.000000,35709.000000
39142.000000,38687.000000,57344.000000,35679.000000
39125.000000,38669.000000,57312.000000,35653.000000
39110.000000,38650.000000,57276.000000,35624.000000
39097.000000,38632.000000,57237.000000,35598.000000
39086.000000,38619.000000,57203.000000,35581.000000
39080.000000,38609.000000,57176.000000,35569.000000
39073.000000,38597.000000,57152.000000,35561.000000
39064.000000,38584.000000,57133.000000,35553.000000
39055.000000,38574.000000,57123.000000,35548.000000
39049.000000,38569.000000,57118.000000,35545.000000
39041.000000,38565.000000,57113.000000,35543.000000
39033.000000,38558.000000,57105.000000,35542.000000
39025.000000,38551.000000,57097.000000,35541.000000
39018.000000,38543.000000,57090.000000,35537.000000
39009.000000,38532.000000,57080.000000,35531.000000
39000.000000,38520.000000,57067.000000,35524.000000
38994.000000,38512.000000,57051.000000,35518.000000
38988.000000,38507.000000,57029.000000,35508.000000
38977.000000,38494.000000,56997.000000,35484.000000
38962.000000,38473.000000,56957.000000,35448.000000
38941.000000,38449.000000,56912.000000,35405.000000
38911.000000,38418.000000,56856.000000,35351.000000
38876.000000,38378.000000,56789.000000,35289.000000
38838.000000,38336.000000,56717.000000,35225.000000
38797.000000,38294.000000,56643.000000,35162.000000
38753.000000,38251.000000,56568.000000,35100.000000
38710.000000,38206.000000,56493.000000,35043.000000
38671.000000,38164.000000,56417.000000,34992.000000
38634.000000,38126.000000,56345.000000,34943.000000
38595.000000,38088.000000,56273.000000,34893.000000
38557.000000,38049.000000,56202.000000,34843.000000
38520.000000,38010.000000,56134.000000,34794.000000
38486.000000,37976.000000,56074.000000,34750.000000
38455.000000,37947.000000,56024.000000,34714.000000
38430.000000,37922.000000,55981.000000,34682.000000
38411.000000,37903.000000,55949.000000,34657.000000
38397.000000,37892.000000,55929.000000,34641.000000
38388.000000,37885.000000,55916.000000,34636.000000
38381.000000,37878.000000,55905.000000,34639.000000
38376.000000,37873.000000,55899.000000,34644.000000
38373.000000,37868.000000,55897.000000,34646.000000
38371.000000,37863.000000,55896.000000,34649.000000
38369.000000,37858.000000,55896.000000,34652.000000
38368.000000,37854.000000,55895.000000,34655.000000
38366.000000,37847.000000,55892.000000,34655.000000
38362.000000,37840.000000,55886.000000,34651.000000
38359.000000,37838.000000,55879.000000,34648.000000
38356.000000,37844.000000,55868.000000,34647.000000
38348.000000,37853.000000,55852.000000,34647.000000
38341.000000,37860.000000,55834.000000,34640.000000
38338.000000,37862.000000,55818.000000,34630.000000
38333.000000,37859.000000,55804.000000,34617.000000
38323.000000,37849.000000,55785.000000,34595.000000
38311.000000,37833.000000,55758.000000,34561.000000
38301.000000,37815.000000,55727.000000,34522.000000
38291.000000,37796.000000,55696.000000,34488.000000
38278.000000,37772.000000,55661.000000,34459.000000
38260.000000,37743.000000,55617.000000,34426.000000
38238.000000,37714.000000,55569.000000,34390.000000
38217.000000,37687.000000,55522.000000,34355.000000
38194.000000,37660.000000,55475.000000,34321.000000
38166.000000,37631.000000,55425.000000,34277.000000
38134.000000,37601.000000,55373.000000,34224.000000
38101.000000,37571.000000,55324.000000,34175.000000
38067.000000,37538.000000,55274.000000,34133.000000
38030.000000,37500.000000,55219.000000,34090.000000
37993.000000,37459.000000,55163.000000,34044.000000
37960.000000,37421.000000,55109.000000,34005.000000
37931.000000,37385.000000,55058.000000,33974.000000
37904.000000,37351.000000,55010.000000,33945.000000
37879.000000,37319.000000,54964.000000,33919.000000
37854.000000,37291.000000,54919.000000,33891.000000
37829.000000,37264.000000,54872.000000,33860.000000
37801.000000,37236.000000,54824.000000,33829.000000
37774.000000,37207.000000,54777.000000,33798.000000
37746.000000,37178.000000,54735.000000,33765.000000
37716.000000,37150.000000,54692.000000,33725.000000
37685.000000,37123.000000,54648.000000,33685.000000
37658.000000,37096.000000,54605.000000,33653.000000
37631.000000,37073.000000,54566.000000,33622.000000
37605.000000,37051.000000,54526.000000,33589.000000
37583.000000,37031.000000,54486.000000,33557.000000
37568.000000,37015.000000,54451.000000,33535.000000
37558.000000,37003.000000,54424.000000,33524.000000
37551.000000,36994.000000,54400.000000,33517.000000
37548.000000,36990.000000,54380.000000,33510.000000
37551.000000,36988.000000,54363.000000,33504.000000
37553.000000,36982.000000,54345.000000,33498.000000
37550.000000,36970.000000,54326.000000,33485.000000
37543.000000,36956.000000,54308.000000,33464.000000
37533.000000,36940.000000,54291.000000,33440.000000
37520.000000,36923.000000,54269.000000,33418.000000
37504.000000,36906.000000,54244.000000,33392.000000
37484.000000,36887.000000,54220.000000,33363.000000
37463.000000,36873.000000,54199.000000,33342.000000
37443.000000,36861.000000,54179.000000,33327.000000
37426.000000,36846.000000,54156.000000,33311.000000
37410.000000,36831.000000,54131.000000,33297.000000
37394.000000,36816.000000,54104.000000,33287.000000
37375.000000,36798.000000,54075.000000,33274.000000
37355.000000,36775.000000,54045.000000,33253.000000
37333.000000,36751.000000,54014.000000,33232.000000
37312.000000,36732.000000,53986.000000,33215.000000
37290.000000,36716.000000,53958.000000,33197.000000
37266.000000,36699.000000,53926.000000,33173.000000
37245.000000,36682.000000,53895.000000,33145.000000
37227.000000,36664.000000,53865.000000,33120.000000
37207.000000,36644.000000,53835.000000,33100.000000
37184.000000,36620.000000,53801.000000,33080.000000
37163.000000,36595.000000,53767.000000,33063.000000
37147.000000,36572.000000,53738.000000,33044.000000
37135.000000,36550.000000,53711.000000,33022.000000
37124.000000,36528.000000,53686.000000,32998.000000
37112.000000,36509.000000,53661.000000,32973.000000
37100.000000,36495.000000,53638.000000,32950.000000
37087.000000,36484.000000,53618.000000,32933.000000
37073.000000,36471.000000,53600.000000,32922.000000
37059.000000,36459.000000,53581.000000,32910.000000
37047.000000,36449.000000,53559.000000,32896.000000
37030.000000,36436.000000,53533.000000,32877.000000
37009.000000,36419.000000,53504.000000,32856.000000
36989.000000,36403.000000,53473.000000,32833.000000
36969.000000,36385.000000,53439.000000,32804.000000
36945.000000,36363.000000,53400.000000,32768.000000
36921.000000,36337.000000,53359.000000,32733.000000
36902.000000,36312.000000,53320.000000,32710.000000
36886.000000,36288.000000,53283.000000,32692.000000
36871.000000,36264.000000,53245.000000,32672.000000
36855.000000,36241.000000,53208.000000,32653.000000
36840.000000,36219.000000,53173.000000,32638.000000
36826.000000,36197.000000,53136.000000,32618.000000
36807.000000,36173.000000,53097.000000,32585.000000
36783.000000,36150.000000,53057.000000,32547.000000
36758.000000,36128.000000,53018.000000,32513.000000
36733.000000,36104.000000,52980.000000,32480.000000
36707.000000,36078.000000,52945.000000,32449.000000
36689.000000,36057.000000,52922.000000,32423.000000
36682.000000,36050.000000,52918.000000,32416.000000
36688.000000,36057.000000,52936.000000,32436.000000
36712.000000,36083.000000,52983.000000,32481.000000
36761.000000,36132.000000,53070.000000,32552.000000
36838.000000,36212.000000,53199.000000,32654.000000
36939.000000,36322.000000,53371.000000,32786.000000
37061.000000,36457.000000,53582.000000,32941.000000
37199.000000,36610.000000,53829.000000,33115.000000
37353.000000,36779.000000,54106.000000,33310.000000
37517.000000,36959.000000,54404.000000,33524.000000
37687.000000,37144.000000,54711.000000,33744.000000
37857.000000,37330.000000,55022.000000,33964.000000
38024.000000,37514.000000,55331.000000,34185.000000
38185.000000,37690.000000,55631.000000,34404.000000
38338.000000,37852.000000,55914.000000,34612.000000
38483.000000,37999.000000,56176.000000,34804.000000
38619.000000,38133.000000,56420.000000,34982.000000
38739.000000,38253.000000,56637.000000,35148.000000
38838.000000,38352.000000,56820.000000,35291.000000
38913.000000,38429.000000,56968.000000,35405.000000
38968.000000,38489.000000,57080.000000,35492.000000
39008.000000,38532.000000,57158.000000,35555.000000
39037.000000,38560.000000,57208.000000,35596.000000
39055.000000,38573.000000,57237.000000,35619.000000
39059.000000,38574.000000,57243.000000,35625.000000
39051.000000,38563.000000,57230.000000,35615.000000
39036.000000,38543.000000,57201.000000,35596.000000
39015.000000,38516.000000,57161.000000,35573.000000
38989.000000,38483.000000,57114.000000,35542.000000
38960.000000,38448.000000,57063.000000,35501.000000
38931.000000,38414.000000,57010.000000,35464.000000
38906.000000,38385.000000,56960.000000,35437.000000
38884.000000,38360.000000,56914.000000,35411.000000
38865.000000,38335.000000,56872.000000,35379.000000
38848.000000,38313.000000,56834.000000,35347.000000
38834.000000,38298.000000,56799.000000,35319.000000
38817.000000,38281.000000,56762.000000,35291.000000
38796.000000,38263.000000,56721.000000,35260.000000
38772.000000,38245.000000,56685.000000,35228.000000
38751.000000,38228.000000,56657.000000,35204.000000
38733.000000,38210.000000,56632.000000,35186.000000
38717.000000,38194.000000,56609.000000,35170.000000
38702.000000,38180.000000,56590.000000,35155.000000
38689.000000,38169.000000,56574.000000,35141.000000
38677.000000,38156.000000,56558.000000,35127.000000
38666.000000,38137.000000,56537.000000,35110.000000
38654.000000,38116.000000,56512.000000,35089.000000
38639.000000,38092.000000,56478.000000,35061.000000
38617.000000,38061.000000,56434.000000,35025.000000
38587.000000,38023.000000,56380.000000,34978.000000
38551.000000,37982.000000,56320.000000,34925.000000
38510.000000,37939.000000,56257.000000,34873.000000
38463.000000,37891.000000,56190.000000,34821.000000
38412.000000,37838.000000,56116.000000,34764.000000
38361.000000,37788.000000,56041.000000,34700.000000
38315.000000,37745.000000,55966.000000,34640.000000
38273.000000,37704.000000,55892.000000,34587.000000
38231.000000,37663.000000,55816.000000,34536.000000
38192.000000,37623.000000,55741.000000,34484.000000
38155.000000,37586.000000,55671.000000,34433.000000
38121.000000,37552.000000,55603.000000,34387.000000
38089.000000,37516.000000,55539.000000,34340.000000
38059.000000,37482.000000,55476.000000,34291.000000
38031.000000,37450.000000,55419.000000,34243.000000
38007.000000,37420.000000,55371.000000,34202.000000
37986.000000,37393.000000,55330.000000,34170.000000
37968.000000,37369.000000,55295.000000,34145.000000
37951.000000,37348.000000,55268.000000,34126.000000
37936.000000,37328.000000,55246.000000,34110.000000
37921.000000,37311.000000,55231.000000,34094.000000
37908.000000,37297.000000,55220.000000,34082.000000
37897.000000,37286.000000,55210.000000,34069.000000
37888.000000,37278.000000,55200.000000,34055.000000
37881.000000,37272.000000,55190.000000,34050.000000
37874.000000,37267.000000,55181.000000,34055.000000
37868.000000,37260.000000,55172.000000,34058.000000
37865.000000,37253.000000,55164.000000,34055.000000
37864.000000,37248.000000,55157.000000,34053.000000
37865.000000,37245.000000,55150.000000,34054.000000
37866.000000,37243.000000,55140.000000,34053.000000
37861.000000,37237.000000,55127.000000,34044.000000
37855.000000,37228.000000,55113.000000,34031.000000
37847.000000,37218.000000,55096.000000,34011.000000
37835.000000,37203.000000,55071.000000,33985.000000
37819.000000,37181.000000,55037.000000,33952.000000
37802.000000,37155.000000,54998.000000,33918.000000
37785.000000,37130.000000,54960.000000,33888.000000
37764.000000,37104.000000,54918.000000,33854.000000
37736.000000,37073.000000,54871.000000,33816.000000
37704.000000,37042.000000,54827.000000,33782.000000
37672.000000,37014.000000,54784.000000,33750.000000
37641.000000,36985.000000,54737.000000,33707.000000
37610.000000,36954.000000,54683.000000,33658.000000
37579.000000,36924.000000,54626.000000,33615.000000
37549.000000,36894.000000,54569.000000,33578.000000
37517.000000,36863.000000,54514.000000,33536.000000
37482.000000,36830.000000,54459.000000,33490.000000
37448.000000,36801.000000,54405.000000,33447.000000
37417.000000,36772.000000,54351.000000,33409.000000
37387.000000,36737.000000,54294.000000,33373.000000
37358.000000,36696.000000,54237.000000,33336.000000
37332.000000,36657.000000,54183.000000,33300.000000
37307.000000,36622.000000,54132.000000,33267.000000
37281.000000,36588.000000,54081.000000,33235.000000
37255.000000,36556.000000,54030.000000,33201.000000
37229.000000,36527.000000,53982.000000,33173.000000
37204.000000,36499.000000,53936.000000,33149.000000
37179.000000,36470.000000,53893.000000,33122.000000
37159.000000,36445.000000,53856.000000,33097.000000
37143.000000,36427.000000,53828.000000,33079.000000
37131.000000,36413.000000,53808.000000,33063.000000
37118.000000,36399.000000,53791.000000,33045.000000
37105.000000,36389.000000,53773.000000,33022.000000
37091.000000,36384.000000,53755.000000,33000.000000
37075.000000,36376.000000,53734.000000,32978.000000
37053.000000,36363.000000,53707.000000,32955.000000
37031.000000,36348.000000,53678.000000,32934.000000
37011.000000,36333.000000,53652.000000,32916.000000
36993.000000,36316.000000,53626.000000,32897.000000
36975.000000,36296.000000,53599.000000,32873.000000
36960.000000,36274.000000,53571.000000,32849.000000
36946.000000,36256.000000,53547.000000,32830.000000
36931.000000,36244.000000,53525.000000,32814.000000
36917.000000,36234.000000,53505.000000,32796.000000
36904.000000,36226.000000,53488.000000,32777.000000
36892.000000,36218.000000,53470.000000,32764.000000
36881.000000,36209.000000,53451.000000,32756.000000
36867.000000,36196.000000,53428.000000,32745.000000
36851.000000,36180.000000,53403.000000,32730.000000
36835.000000,36166.000000,53379.000000,32717.000000
36817.000000,36152.000000,53358.000000,32709.000000
36799.000000,36135.000000,53333.000000,32702.000000
36782.000000,36119.000000,53306.000000,32690.000000
36771.000000,36104.000000,53280.000000,32677.000000
36760.000000,36090.000000,53252.000000,32666.000000
36749.000000,36076.000000,53223.000000,32654.000000
36739.000000,36063.000000,53196.000000,32643.000000
36729.000000,36051.000000,53173.000000,32631.000000
36720.000000,36036.000000,53148.000000,32612.000000
36712.000000,36017.000000,53120.000000,32587.000000
36704.000000,35999.000000,53094.000000,32563.000000
36696.000000,35986.000000,53075.000000,32543.000000
36684.000000,35975.000000,53061.000000,32523.000000
36673.000000,35965.000000,53047.000000,32503.000000
36664.000000,35957.000000,53033.000000,32483.000000
36650.000000,35945.000000,53017.000000,32461.000000
36633.000000,35931.000000,52996.000000,32439.000000
36615.000000,35917.000000,52972.000000,32421.000000
36601.000000,35906.000000,52948.000000,32409.000000
36588.000000,35893.000000,52922.000000,32396.000000
36571.000000,35876.000000,52891.000000,32383.000000
36551.000000,35858.000000,52860.000000,32375.000000
36530.000000,35839.000000,52832.000000,32371.000000
36509.000000,35822.000000,52803.000000,32365.000000
36491.000000,35805.000000,52774.000000,32349.000000
36476.000000,35791.000000,52749.000000,32331.000000
36462.000000,35778.000000,52729.000000,32317.000000
36448.000000,35764.000000,52709.000000,32304.000000
36430.000000,35746.000000,52684.000000,32287.000000
36411.000000,35727.000000,52660.000000,32274.000000
36393.000000,35709.000000,52636.000000,32264.000000
36372.000000,35689.000000,52608.000000,32244.000000
36351.000000,35666.000000,52576.000000,32217.000000
36333.000000,35644.000000,52546.000000,32188.000000
36321.000000,35627.000000,52523.000000,32162.000000
36312.000000,35615.000000,52504.000000,32144.000000
36302.000000,35605.000000,52485.000000,32128.000000
36296.000000,35598.000000,52468.000000,32116.000000
36296.000000,35597.000000,52461.000000,32115.000000
36304.000000,35603.000000,52471.000000,32126.000000
36325.000000,35621.000000,52502.000000,32148.000000
36363.000000,35659.000000,52562.000000,32184.000000
36421.000000,35720.000000,52659.000000,32245.000000
36500.000000,35804.000000,52796.000000,32335.000000
36599.000000,35910.000000,52968.000000,32450.000000
36715.000000,36037.000000,53176.000000,32595.000000
36849.000000,36189.000000,53422.000000,32771.000000
36999.000000,36361.000000,53697.000000,32976.000000
37162.000000,36544.000000,53991.000000,33201.000000
37333.000000,36730.000000,54295.000000,33438.000000
37508.000000,36917.000000,54603.000000,33677.000000
37678.000000,37099.000000,54909.000000,33907.000000
37838.000000,37272.000000,55203.000000,34124.000000
37987.000000,37430.000000,55479.000000,34326.000000
38123.000000,37574.000000,55733.000000,34509.000000
38242.000000,37701.000000,55962.000000,34670.000000
38345.000000,37811.000000,56160.000000,34807.000000
38436.000000,37904.000000,56325.000000,34924.000000
38515.000000,37979.000000,56457.000000,35018.000000
38577.000000,38034.000000,56556.000000,35088.000000
38624.000000,38074.000000,56629.000000,35139.000000
38657.000000,38103.000000,56681.000000,35176.000000
38672.000000,38121.000000,56709.000000,35198.000000
38672.000000,38123.000000,56712.000000,35200.000000
38662.000000,38114.000000,56696.000000,35188.000000
38644.000000,38096.000000,56666.000000,35166.000000
38618.000000,38068.000000,56624.000000,35134.000000
38586.000000,38031.000000,56573.000000,35094.000000
38551.000000,37991.000000,56516.000000,35050.000000
38516.000000,37954.000000,56458.000000,35011.000000
38485.000000,37922.000000,56401.000000,34977.000000
38456.000000,37889.000000,56342.000000,34937.000000
38428.000000,37855.000000,56280.000000,34891.000000
38400.000000,37824.000000,56220.000000,34847.000000
38375.000000,37797.000000,56166.000000,34810.000000
38350.000000,37772.000000,56117.000000,34776.000000
38327.000000,37748.000000,56074.000000,34745.000000
38307.000000,37728.000000,56042.000000,34720.000000
38287.000000,37711.000000,56014.000000,34694.000000
38268.000000,37695.000000,55986.000000,34667.000000
38250.000000,37677.000000,55955.000000,34642.000000
38233.000000,37663.000000,55927.000000,34620.000000
38218.000000,37652.000000,55901.000000,34598.000000
38203.000000,37639.000000,55871.000000,34574.000000
38189.000000,37625.000000,55839.000000,34549.000000
38171.000000,37606.000000,55804.000000,34522.000000
38150.000000,37581.000000,55764.000000,34490.000000
38129.000000,37549.000000,55717.000000,34452.000000
38106.000000,37517.000000,55661.000000,34415.000000
38078.000000,37481.000000,55598.000000,34375.000000
38041.000000,37440.000000,55529.000000,34326.000000
38000.000000,37399.000000,55456.000000,34272.000000
37956.000000,37359.000000,55384.000000,34222.000000
37913.000000,37321.000000,55312.000000,34173.000000
37871.000000,37284.000000,55244.000000,34123.000000
37831.000000,37249.000000,55182.000000,34076.000000
37799.000000,37217.000000,55127.000000,34036.000000
37774.000000,37188.000000,55078.000000,33999.000000
37749.000000,37158.000000,55035.000000,33962.000000
37724.000000,37132.000000,54998.000000,33927.000000
37705.000000,37112.000000,54972.000000,33903.000000
37691.000000,37095.000000,54950.000000,33887.000000
37679.000000,37076.000000,54931.000000,33872.000000
37671.000000,37062.000000,54919.000000,33862.000000
37668.000000,37057.000000,54916.000000,33862.000000
37669.000000,37058.000000,54915.000000,33871.000000
37669.000000,37062.000000,54914.000000,33881.000000
37669.000000,37068.000000,54916.000000,33889.000000
37669.000000,37077.000000,54925.000000,33899.000000
37669.000000,37087.000000,54940.000000,33911.000000
37672.000000,37094.000000,54953.000000,33920.000000
37678.000000,37100.000000,54961.000000,33923.000000
37685.000000,37106.000000,54969.000000,33924.000000
37688.000000,37110.000000,54973.000000,33923.000000
37685.000000,37108.000000,54971.000000,33920.000000
37682.000000,37100.000000,54965.000000,33914.000000
37679.000000,37090.000000,54958.000000,33909.000000
37674.000000,37081.000000,54946.000000,33901.000000
37665.000000,37069.000000,54926.000000,33884.000000
37653.000000,37052.000000,54899.000000,33859.000000
37645.000000,37038.000000,54873.000000,33837.000000
37636.000000,37028.000000,54847.000000,33821.000000
37623.000000,37017.000000,54817.000000,33807.000000
37605.000000,37006.000000,54781.000000,33789.000000
37587.000000,36993.000000,54744.000000,33764.000000
37569.000000,36974.000000,54705.000000,33732.000000
37548.000000,36946.000000,54661.000000,33695.000000
37525.000000,36912.000000,54613.000000,33657.000000
37499.000000,36876.000000,54566.000000,33620.000000
37471.000000,36840.000000,54521.000000,33585.000000
37442.000000,36805.000000,54477.000000,33557.000000
37413.000000,36775.000000,54430.000000,33531.000000
37384.000000,36745.000000,54379.000000,33503.000000
37350.000000,36713.000000,54324.000000,33468.000000
37314.000000,36678.000000,54268.000000,33431.000000
37280.000000,36643.000000,54216.000000,33397.000000
37249.000000,36610.000000,54165.000000,33364.000000
37220.000000,36577.000000,54114.000000,33326.000000
37197.000000,36547.000000,54068.000000,33286.000000
37182.000000,36521.000000,54032.000000,33252.000000
37169.000000,36502.000000,54003.000000,33219.000000
37154.000000,36487.000000,53978.000000,33185.000000
37139.000000,36477.000000,53955.000000,33154.000000
37124.000000,36470.000000,53935.000000,33132.000000
37109.000000,36463.000000,53915.000000,33115.000000
37092.000000,36451.000000,53891.000000,33098.000000
37073.000000,36436.000000,53866.000000,33081.000000
37054.000000,36422.000000,53841.000000,33067.000000
37035.000000,36405.000000,53813.000000,33051.000000
37014.000000,36385.000000,53776.000000,33030.000000
36993.000000,36368.000000,53737.000000,33009.000000
36976.000000,36356.000000,53700.000000,32994.000000
36958.000000,36345.000000,53663.000000,32982.000000
36942.000000,36332.000000,53627.000000,32964.000000
36930.000000,36317.000000,53597.000000,32942.000000
36921.000000,36305.000000,53574.000000,32923.000000
36912.000000,36296.000000,53552.000000,32910.000000
36901.000000,36286.000000,53529.000000,32896.000000
36892.000000,36275.000000,53508.000000,32877.000000
36882.000000,36264.000000,53489.000000,32860.000000
36870.000000,36252.000000,53471.000000,32848.000000
36853.000000,36237.000000,53451.000000,32837.000000
36833.000000,36219.000000,53431.000000,32824.000000
36818.000000,36203.000000,53415.000000,32812.000000
36808.000000,36188.000000,53399.000000,32802.000000
36801.000000,36171.000000,53380.000000,32788.000000
36795.000000,36155.000000,53360.000000,32772.000000
36791.000000,36143.000000,53342.000000,32761.000000
36790.000000,36133.000000,53325.000000,32756.000000
36788.000000,36123.000000,53305.000000,32748.000000
36782.000000,36114.000000,53283.000000,32733.000000
36773.000000,36103.000000,53260.000000,32716.000000
36759.000000,36088.000000,53234.000000,32697.000000
36739.000000,36069.000000,53206.000000,32676.000000
36714.000000,36050.000000,53176.000000,32656.000000
36686.000000,36033.000000,53143.000000,32633.000000
36659.000000,36017.000000,53107.000000,32603.000000
36635.000000,35997.000000,53069.000000,32569.000000
36614.000000,35974.000000,53030.000000,32534.000000
36593.000000,35949.000000,52993.000000,32499.000000
36574.000000,35926.000000,52959.000000,32470.000000
36558.000000,35907.000000,52927.000000,32451.000000
36545.000000,35887.000000,52898.000000,32438.000000
36533.000000,35868.000000,52869.000000,32424.000000
36521.000000,35851.000000,52841.000000,32405.000000
36509.000000,35836.000000,52819.000000,32386.000000
36499.000000,35823.000000,52807.000000,32377.000000
36488.000000,35811.000000,52802.000000,32375.000000
36480.000000,35806.000000,52805.000000,32378.000000
36486.000000,35815.000000,52824.000000,32395.000000
36512.000000,35847.000000,52869.000000,32432.000000
36556.000000,35900.000000,52941.000000,32487.000000
36618.000000,35975.000000,53044.000000,32562.000000
36703.000000,36077.000000,53187.000000,32664.000000
36810.000000,36206.000000,53374.000000,32798.000000
36937.000000,36353.000000,53600.000000,32961.000000
37080.000000,36515.000000,53853.000000,33143.000000
37238.000000,36689.000000,54128.000000,33340.000000
37407.000000,36873.000000,54417.000000,33552.000000
37578.000000,37057.000000,54712.000000,33771.000000
37749.000000,37232.000000,55005.000000,33987.000000
37912.000000,37396.000000,55291.000000,34197.000000
38068.000000,37555.000000,55569.000000,34401.000000
38213.000000,37705.000000,55834.000000,34598.000000
38344.000000,37842.000000,56075.000000,34777.000000
38463.000000,37965.000000,56288.000000,34935.000000
38570.000000,38075.000000,56476.000000,35075.000000
38661.000000,38168.000000,56635.000000,35193.000000
38733.000000,38239.000000,56763.000000,35287.000000
38787.000000,38291.000000,56862.000000,35359.000000
38825.000000,38328.000000,56933.000000,35413.000000
38847.000000,38349.000000,56978.000000,35443.000000
38858.000000,38357.000000,56998.000000,35455.000000
38861.000000,38353.000000,57001.000000,35456.000000
38859.000000,38342.000000,56989.000000,35443.000000
38848.000000,38326.000000,56962.000000,35417.000000
38828.000000,38307.000000,56922.000000,35387.000000
38803.000000,38285.000000,56878.000000,35359.000000
38777.000000,38259.000000,56831.000000,35325.000000
38748.000000,38229.000000,56781.000000,35284.000000
38718.000000,38197.000000,56730.000000,35243.000000
38688.000000,38161.000000,56679.000000,35204.000000
38656.000000,38124.000000,56628.000000,35166.000000
38623.000000,38088.000000,56576.000000,35126.000000
38590.000000,38056.000000,56527.000000,35090.000000
38564.000000,38030.000000,56485.000000,35065.000000
38542.000000,38007.000000,56450.000000,35046.000000
38520.000000,37987.000000,56417.000000,35024.000000
38500.000000,37971.000000,56387.000000,35000.000000
38481.000000,37960.000000,56361.000000,34981.000000
38465.000000,37948.000000,56336.000000,34964.000000
38451.000000,37933.000000,56311.000000,34947.000000
38441.000000,37919.000000,56291.000000,34934.000000
38434.000000,37910.000000,56277.000000,34927.000000
38426.000000,37901.000000,56259.000000,34916.000000
38413.000000,37884.000000,56232.000000,34893.000000
38393.000000,37863.000000,56197.000000,34857.000000
38371.000000,37841.000000,56154.000000,34818.000000
38345.000000,37815.000000,56100.000000,34779.000000
38314.000000,37781.000000,56034.000000,34733.000000
38280.000000,37743.000000,55964.000000,34682.000000
38246.000000,37707.000000,55894.000000,34633.000000
38210.000000,37669.000000,55819.000000,34583.000000
38170.000000,37628.000000,55735.000000,34526.000000
38127.000000,37584.000000,55648.000000,34464.000000
38087.000000,37543.000000,55569.000000,34405.000000
38050.000000,37506.000000,55499.000000,34358.000000
38013.000000,37472.000000,55434.000000,34320.000000
37978.000000,37440.000000,55377.000000,34288.000000
37946.000000,37414.000000,55332.000000,34260.000000
37921.000000,37394.000000,55294.000000,34236.000000
37902.000000,37375.000000,55258.000000,34215.000000
37888.000000,37358.000000,55228.000000,34199.000000
37880.000000,37346.000000,55209.000000,34190.000000
37873.000000,37339.000000,55199.000000,34183.000000
37867.000000,37333.000000,55195.000000,34175.000000
37867.000000,37330.000000,55198.000000,34167.000000
37875.000000,37332.000000,55206.000000,34164.000000
37887.000000,37338.000000,55217.000000,34167.000000
37898.000000,37345.000000,55229.000000,34175.000000
37907.000000,37352.000000,55238.000000,34188.000000
37910.000000,37359.000000,55245.000000,34201.000000
37910.000000,37361.000000,55248.000000,34208.000000
37912.000000,37363.000000,55248.000000,34214.000000
37915.000000,37367.000000,55250.000000,34221.000000
37918.000000,37372.000000,55252.000000,34224.000000
37921.000000,37372.000000,55252.000000,34218.000000
37921.000000,37369.000000,55248.000000,34206.000000
37917.000000,37363.000000,55238.000000,34189.000000
37905.000000,37355.000000,55221.000000,34163.000000
37888.000000,37341.000000,55196.000000,34131.000000
37873.000000,37325.000000,55169.000000,34102.000000
37859.000000,37310.000000,55142.000000,34082.000000
37841.000000,37291.000000,55114.000000,34063.000000
37819.000000,37266.000000,55079.000000,34038.000000
37794.000000,37239.000000,55037.000000,34008.000000
37773.000000,37215.000000,54995.000000,33976.000000
37751.000000,37188.000000,54948.000000,33945.000000
37726.000000,37158.000000,54895.000000,33915.000000
37702.000000,37129.000000,54840.000000,33888.000000
37679.000000,37105.000000,54788.000000,33861.000000
37656.000000,37083.000000,54737.000000,33826.000000
37629.000000,37060.000000,54683.000000,33785.000000
37601.000000,37037.000000,54633.000000,33745.000000
37574.000000,37014.000000,54586.000000,33707.000000
37545.000000,36987.000000,54538.000000,33665.000000
37513.000000,36958.000000,54489.000000,33621.000000
37479.000000,36930.000000,54444.000000,33582.000000
37447.000000,36904.000000,54401.000000,33549.000000
37419.000000,36876.000000,54359.000000,33517.000000
37392.000000,36843.000000,54317.000000,33485.000000
37367.000000,36812.000000,54276.000000,33457.000000
37343.000000,36784.000000,54236.000000,33436.000000
37318.000000,36756.000000,54193.000000,33422.000000
37294.000000,36728.000000,54147.000000,33409.000000
37274.000000,36704.000000,54104.000000,33392.000000
37259.000000,36684.000000,54068.000000,33375.000000
37244.000000,36666.000000,54036.000000,33354.000000
37226.000000,36648.000000,54007.000000,33323.000000
37207.000000,36632.000000,53981.000000,33285.000000
37188.000000,36617.000000,53957.000000,33253.000000
37170.000000,36599.000000,53931.000000,33222.000000
37148.000000,36578.000000,53902.000000,33189.000000
37126.000000,36559.000000,53873.000000,33159.000000
37110.000000,36546.000000,53848.000000,33137.000000
37100.000000,36534.000000,53823.000000,33124.000000
37092.000000,36524.000000,53798.000000,33120.000000
37084.000000,36518.000000,53776.000000,33123.000000
37078.000000,36513.000000,53755.000000,33126.000000
37074.000000,36506.000000,53736.000000,33124.000000
37070.000000,36496.000000,53720.000000,33114.000000
37065.000000,36485.000000,53704.000000,33097.000000
37055.000000,36473.000000,53684.000000,33076.000000
37041.000000,36458.000000,53662.000000,33050.000000
37028.000000,36443.000000,53641.000000,33024.000000
37016.000000,36430.000000,53623.000000,33002.000000
37007.000000,36420.000000,53606.000000,32981.000000
36999.000000,36412.000000,53589.000000,32961.000000
36991.000000,36405.000000,53572.000000,32949.000000
36986.000000,36399.000000,53558.000000,32943.000000
36980.000000,36392.000000,53544.000000,32939.000000
36974.000000,36383.000000,53529.000000,32936.000000
36968.000000,36373.000000,53513.000000,32932.000000
36958.000000,36364.000000,53495.000000,32922.000000
36944.000000,36352.000000,53470.000000,32903.000000
36927.000000,36335.000000,53440.000000,32880.000000
36909.000000,36317.000000,53408.000000,32860.000000
36890.000000,36297.000000,53378.000000,32845.000000
36870.000000,36276.000000,53347.000000,32833.000000
36848.000000,36254.000000,53315.000000,32821.000000
36828.000000,36236.000000,53285.000000,32807.000000
36810.000000,36224.000000,53258.000000,32791.000000
36795.000000,36213.000000,53230.000000,32776.000000
36782.000000,36201.000000,53203.000000,32761.000000
36771.000000,36191.000000,53178.000000,32743.000000
36761.000000,36184.000000,53160.000000,32726.000000
36753.000000,36176.000000,53147.000000,32713.000000
36748.000000,36172.000000,53143.000000,32701.000000
36749.000000,36179.000000,53153.000000,32698.000000
36765.000000,36207.000000,53184.000000,32717.000000
36801.000000,36255.000000,53241.000000,32758.000000
36859.000000,36319.000000,53330.000000,32823.000000
36940.000000,36406.000000,53462.000000,32918.000000
37044.000000,36517.000000,53640.000000,33047.000000
37170.000000,36651.000000,53860.000000,33204.000000
37313.000000,36804.000000,54113.000000,33382.000000
37468.000000,36973.000000,54392.000000,33579.000000
37633.000000,37154.000000,54690.000000,33790.000000
37802.000000,37339.000000,54999.000000,34009.000000
37973.000000,37523.000000,55313.000000,34235.000000
38143.000000,37703.000000,55629.000000,34467.000000
38305.000000,37873.000000,55937.000000,34699.000000
38456.000000,38032.000000,56229.000000,34919.000000
38598.000000,38181.000000,56497.000000,35122.000000
38732.000000,38318.000000,56741.000000,35306.000000
38851.000000,38439.000000,56955.000000,35462.000000
38951.000000,38544.000000,57138.000000,35593.000000
39035.000000,38636.000000,57291.000000,35705.000000
39106.000000,38713.000000,57416.000000,35800.000000
39161.000000,38772.000000,57507.000000,35875.000000
39203.000000,38811.000000,57569.000000,35925.000000
39233.000000,38835.000000,57608.000000,35958.000000
39252.000000,38846.000000,57629.000000,35971.000000
39258.000000,38843.000000,57633.000000,35960.000000
39253.000000,38830.000000,57617.000000,35932.000000
39237.000000,38809.000000,57588.000000,35900.000000
39215.000000,38782.000000,57551.000000,35870.000000
39189.000000,38750.000000,57508.000000,35843.000000
39162.000000,38716.000000,57464.000000,35819.000000
39140.000000,38688.000000,57427.000000,35800.000000
39123.000000,38664.000000,57394.000000,35789.000000
39103.000000,38642.000000,57361.000000,35779.000000
39082.000000,38624.000000,57329.000000,35761.000000
39064.000000,38613.000000,57299.000000,35735.000000
39051.000000,38607.000000,57270.000000,35710.000000
39040.000000,38601.000000,57242.000000,35690.000000
39027.000000,38591.000000,57214.000000,35670.000000
39014.000000,38582.000000,57189.000000,35650.000000
39004.000000,38577.000000,57171.000000,35631.000000
38995.000000,38574.000000,57155.000000,35611.000000
38988.000000,38566.000000,57141.000000,35593.000000
38985.000000,38556.000000,57131.000000,35585.000000
38986.000000,38551.000000,57127.000000,35588.000000
38988.000000,38548.000000,57124.000000,35598.000000
38990.000000,38544.000000,57119.000000,35609.000000
38988.000000,38539.000000,57112.000000,35616.000000
38984.000000,38530.000000,57102.000000,35617.000000
38974.000000,38515.000000,57085.000000,35609.000000
38959.000000,38496.000000,57056.000000,35590.000000
38937.000000,38475.000000,57015.000000,35565.000000
38908.000000,38449.000000,56963.000000,35531.000000
38871.000000,38417.000000,56899.000000,35487.000000
38828.000000,38376.000000,56825.000000,35436.000000
38784.000000,38330.000000,56746.000000,35379.000000
38739.000000,38281.000000,56665.000000,35315.000000
38695.000000,38233.000000,56581.000000,35246.000000
38652.000000,38187.000000,56496.000000,35180.000000
38611.000000,38145.000000,56417.000000,35120.000000
38569.000000,38106.000000,56340.000000,35062.000000
38527.000000,38068.000000,56265.000000,35006.000000
38487.000000,38031.000000,56196.000000,34952.000000
38450.000000,37999.000000,56134.000000,34907.000000
38416.000000,37969.000000,56076.000000,34866.000000
38384.000000,37939.000000,56021.000000,34821.000000
38354.000000,37911.000000,55974.000000,34773.000000
38331.000000,37887.000000,55934.000000,34733.000000
38315.000000,37869.000000,55901.000000,34706.000000
38307.000000,37856.000000,55878.000000,34684.000000
38306.000000,37850.000000,55865.000000,34668.000000
38310.000000,37849.000000,55861.000000,34662.000000
38314.000000,37846.000000,55861.000000,34661.000000
38314.000000,37838.000000,55858.000000,34659.000000
38310.000000,37827.000000,55855.000000,34653.000000
38305.000000,37818.000000,55852.000000,34651.000000
38298.000000,37809.000000,55846.000000,34653.000000
38291.000000,37799.000000,55836.000000,34656.000000
38287.000000,37795.000000,55826.000000,34655.000000
38285.000000,37796.000000,55815.000000,34648.000000
38281.000000,37796.000000,55804.000000,34636.000000
38277.000000,37792.000000,55793.000000,34625.000000
38272.000000,37787.000000,55784.000000,34617.000000
38267.000000,37780.000000,55775.000000,34607.000000
38259.000000,37769.000000,55761.000000,34589.000000
38248.000000,37755.000000,55739.000000,34566.000000
38236.000000,37739.000000,55712.000000,34546.000000
38223.000000,37718.000000,55678.000000,34526.000000
38207.000000,37695.000000,55637.000000,34503.000000
38188.000000,37671.000000,55592.000000,34480.000000
38168.000000,37650.000000,55550.000000,34457.000000
38146.000000,37626.000000,55510.000000,34428.000000
38119.000000,37598.000000,55465.000000,34389.000000
38089.000000,37570.000000,55416.000000,34343.000000
38057.000000,37543.000000,55365.000000,34295.000000
38023.000000,37512.000000,55312.000000,34248.000000
37987.000000,37474.000000,55253.000000,34202.000000
37947.000000,37433.000000,55191.000000,34163.000000
37909.000000,37394.000000,55130.000000,34129.000000
37872.000000,37357.000000,55073.000000,34095.000000
37837.000000,37321.000000,55019.000000,34057.000000
37806.000000,37288.000000,54972.000000,34014.000000
37779.000000,37261.000000,54929.000000,33969.000000
37756.000000,37237.000000,54888.000000,33929.000000
37737.000000,37217.000000,54846.000000,33896.000000
37723.000000,37201.000000,54806.000000,33869.000000
37711.000000,37187.000000,54770.000000,33847.000000
37698.000000,37173.000000,54738.000000,33826.000000
37679.000000,37154.000000,54703.000000,33800.000000
37658.000000,37133.000000,54666.000000,33771.000000
37637.000000,37110.000000,54631.000000,33746.000000
37612.000000,37086.000000,54596.000000,33727.000000
37586.000000,37061.000000,54554.000000,33705.000000
37563.000000,37034.000000,54509.000000,33678.000000
37544.000000,37007.000000,54465.000000,33650.000000
37524.000000,36979.000000,54424.000000,33625.000000
37504.000000,36953.000000,54387.000000,33601.000000
37488.000000,36932.000000,54355.000000,33580.000000
37476.000000,36919.000000,54328.000000,33564.000000
37463.000000,36909.000000,54303.000000,33551.000000
37449.000000,36897.000000,54278.000000,33539.000000
37437.000000,36886.000000,54256.000000,33524.000000
37424.000000,36877.000000,54236.000000,33507.000000
37409.000000,36868.000000,54214.000000,33488.000000
37396.000000,36856.000000,54191.000000,33470.000000
37386.000000,36842.000000,54168.000000,33449.000000
37374.000000,36827.000000,54141.000000,33417.000000
37359.000000,36815.000000,54113.000000,33379.000000
37345.000000,36809.000000,54086.000000,33352.000000
37333.000000,36804.000000,54062.000000,33340.000000
37323.000000,36797.000000,54039.000000,33331.000000
37317.000000,36788.000000,54017.000000,33322.000000
37315.000000,36780.000000,54000.000000,33317.000000
37315.000000,36775.000000,53989.000000,33319.000000
37312.000000,36768.000000,53978.000000,33320.000000
37306.000000,36757.000000,53966.000000,33311.000000
37300.000000,36745.000000,53954.000000,33291.000000
37289.000000,36732.000000,53941.000000,33270.000000
37273.000000,36716.000000,53925.000000,33253.000000
37258.000000,36700.000000,53905.000000,33237.000000
37247.000000,36690.000000,53885.000000,33219.000000
37240.000000,36685.000000,53867.000000,33202.000000
37233.000000,36681.000000,53850.000000,33188.000000
37222.000000,36670.000000,53829.000000,33173.000000
37209.000000,36657.000000,53806.000000,33162.000000
37196.000000,36646.000000,53783.000000,33154.000000
37180.000000,36635.000000,53759.000000,33145.000000
37159.000000,36617.000000,53729.000000,33126.000000
37135.000000,36594.000000,53696.000000,33100.000000
37110.000000,36571.000000,53664.000000,33074.000000
37086.000000,36545.000000,53631.000000,33049.000000
37059.000000,36515.000000,53595.000000,33024.000000
37029.000000,36486.000000,53560.000000,32997.000000
37004.000000,36457.000000,53529.000000,32973.000000
36984.000000,36428.000000,53498.000000,32956.000000
36967.000000,36401.000000,53466.000000,32947.000000
36958.000000,36383.000000,53442.000000,32947.000000
36962.000000,36381.000000,53439.000000,32958.000000
36983.000000,36397.000000,53461.000000,32980.000000
37022.000000,36434.000000,53513.000000,33020.000000
37082.000000,36497.000000,53603.000000,33087.000000
37163.000000,36589.000000,53738.000000,33183.000000
37267.000000,36707.000000,53918.000000,33305.000000
37394.000000,36850.000000,54140.000000,33454.000000
37541.000000,37012.000000,54399.000000,33629.000000
37701.000000,37188.000000,54685.000000,33821.000000
37867.000000,37369.000000,54988.000000,34026.000000
38036.000000,37551.000000,55300.000000,34246.000000
38209.000000,37737.000000,55619.000000,34484.000000
38383.000000,37923.000000,55941.000000,34730.000000
38552.000000,38103.000000,56255.000000,34970.000000
38714.000000,38279.000000,56556.000000,35196.000000
38870.000000,38448.000000,56840.000000,35407.000000
39015.000000,38602.000000,57094.000000,35599.000000
39144.000000,38733.000000,57313.000000,35763.000000
39255.000000,38844.000000,57499.000000,35899.000000
39347.000000,38934.000000,57653.000000,36012.000000
39418.000000,39001.000000,57773.000000,36100.000000
39469.000000,39048.000000,57861.000000,36163.000000
39507.000000,39080.000000,57921.000000,36204.000000
39534.000000,39102.000000,57959.000000,36230.000000
39550.000000,39115.000000,57981.000000,36249.000000
39558.000000,39117.000000,57987.000000,36253.000000
39559.000000,39112.000000,57977.000000,36239.000000
39555.000000,39100.000000,57954.000000,36219.000000
39547.000000,39081.000000,57922.000000,36198.000000
39533.000000,39054.000000,57883.000000,36173.000000
39514.000000,39024.000000,57843.000000,36145.000000
39492.000000,38995.000000,57805.000000,36113.000000
39468.000000,38964.000000,57766.000000,36080.000000
39442.000000,38930.000000,57725.000000,36048.000000
39418.000000,38898.000000,57688.000000,36022.000000
39400.000000,38874.000000,57659.000000,36003.000000
39386.000000,38858.000000,57637.000000,35986.000000
39372.000000,38847.000000,57618.000000,35971.000000
39360.000000,38842.000000,57601.000000,35965.000000
39349.000000,38840.000000,57587.000000,35963.000000
39336.000000,38837.000000,57570.000000,35958.000000
39321.000000,38833.000000,57549.000000,35953.000000
39309.000000,38830.000000,57529.000000,35949.000000
39300.000000,38824.000000,57512.000000,35941.000000
39293.000000,38817.000000,57495.000000,35927.000000
39285.000000,38810.000000,57480.000000,35914.000000
39276.000000,38803.000000,57466.000000,35905.000000
39265.000000,38792.000000,57454.000000,35899.000000
39254.000000,38779.000000,57436.000000,35887.000000
39240.000000,38763.000000,57415.000000,35867.000000
39221.000000,38746.000000,57391.000000,35841.000000
39197.000000,38726.000000,57360.000000,35812.000000
39169.000000,38698.000000,57316.000000,35774.000000
39135.000000,38662.000000,57258.000000,35728.000000
39098.000000,38621.000000,57191.000000,35675.000000
39057.000000,38577.000000,57115.000000,35614.000000
39011.000000,38528.000000,57028.000000,35545.000000
38962.000000,38481.000000,56935.000000,35471.000000
38913.000000,38439.000000,56844.000000,35404.000000
38865.000000,38397.000000,56758.000000,35346.000000
38817.000000,38352.000000,56674.000000,35287.000000
38774.000000,38308.000000,56595.000000,35228.000000
38739.000000,38271.000000,56525.000000,35176.000000
38710.000000,38238.000000,56462.000000,35126.000000
38687.000000,38205.000000,56406.000000,35078.000000
38668.000000,38177.000000,56359.000000,35038.000000
38655.000000,38156.000000,56325.000000,35014.000000
38642.000000,38140.000000,56301.000000,34996.000000
38629.000000,38124.000000,56282.000000,34972.000000
38619.000000,38111.000000,56266.000000,34952.000000
38612.000000,38102.000000,56256.000000,34941.000000
38605.000000,38094.000000,56246.000000,34931.000000
38596.000000,38084.000000,56234.000000,34919.000000
38587.000000,38074.000000,56223.000000,34911.000000
38582.000000,38068.000000,56218.000000,34908.000000
38578.000000,38065.000000,56216.000000,34907.000000
38574.000000,38061.000000,56214.000000,34905.000000
38571.000000,38059.000000,56215.000000,34906.000000
38566.000000,38056.000000,56217.000000,34908.000000
38555.000000,38047.000000,56213.000000,34899.000000
38541.000000,38035.000000,56201.000000,34882.000000
38533.000000,38025.000000,56187.000000,34868.000000
38529.000000,38015.000000,56172.000000,34857.000000
38520.000000,38000.000000,56149.000000,34844.000000
38504.000000,37981.000000,56115.000000,34828.000000
38490.000000,37965.000000,56079.000000,34816.000000
38476.000000,37949.000000,56042.000000,34802.000000
38460.000000,37928.000000,56003.000000,34782.000000
38439.000000,37903.000000,55959.000000,34753.000000
38415.000000,37878.000000,55911.000000,34720.000000
38387.000000,37850.000000,55862.000000,34683.000000
38352.000000,37815.000000,55807.000000,34639.000000
38316.000000,37777.000000,55750.000000,34589.000000
38281.000000,37742.000000,55695.000000,34538.000000
38248.000000,37708.000000,55639.000000,34489.000000
38212.000000,37672.000000,55579.000000,34441.000000
38174.000000,37631.000000,55518.000000,34393.000000
38138.000000,37594.000000,55462.000000,34346.000000
38104.000000,37561.000000,55408.000000,34303.000000
38070.000000,37528.000000,55355.000000,34265.000000
38040.000000,37492.000000,55301.000000,34228.000000
38013.000000,37457.000000,55252.000000,34192.000000
37986.000000,37424.000000,55206.000000,34153.000000
37956.000000,37393.000000,55158.000000,34111.000000
37925.000000,37364.000000,55108.000000,34072.000000
37896.000000,37338.000000,55056.000000,34040.000000
37872.000000,37313.000000,55001.000000,34010.000000
37853.000000,37287.000000,54948.000000,33980.000000
37836.000000,37263.000000,54902.000000,33955.000000
37820.000000,37241.000000,54864.000000,33933.000000
37802.000000,37216.000000,54828.000000,33907.000000
37781.000000,37189.000000,54791.000000,33877.000000
37757.000000,37162.000000,54754.000000,33849.000000
37734.000000,37138.000000,54719.000000,33827.000000
37708.000000,37114.000000,54683.000000,33806.000000
37678.000000,37086.000000,54645.000000,33783.000000
37647.000000,37058.000000,54606.000000,33762.000000
37620.000000,37034.000000,54570.000000,33746.000000
37595.000000,37013.000000,54535.000000,33728.000000
37573.000000,36995.000000,54503.000000,33702.000000
37554.000000,36981.000000,54474.000000,33674.000000
37539.000000,36970.000000,54451.000000,33655.000000
37522.000000,36961.000000,54429.000000,33641.000000
37506.000000,36953.000000,54403.000000,33627.000000
37492.000000,36945.000000,54377.000000,33615.000000
37480.000000,36937.000000,54354.000000,33607.000000
37468.000000,36926.000000,54331.000000,33598.000000
37456.000000,36913.000000,54310.000000,33588.000000
37445.000000,36904.000000,54294.000000,33576.000000
37435.000000,36898.000000,54280.000000,33566.000000
37424.000000,36889.000000,54267.000000,33558.000000
37414.000000,36878.000000,54252.000000,33551.000000
37407.000000,36869.000000,54239.000000,33545.000000
37400.000000,36864.000000,54225.000000,33534.000000
37392.000000,36858.000000,54211.000000,33519.000000
37384.000000,36849.000000,54196.000000,33507.000000
37376.000000,36837.000000,54180.000000,33502.000000
37368.000000,36820.000000,54161.000000,33497.000000
37357.000000,36799.000000,54139.000000,33486.000000
37348.000000,36779.000000,54118.000000,33472.000000
37341.000000,36766.000000,54102.000000,33461.000000
37334.000000,36760.000000,54088.000000,33450.000000
37326.000000,36753.000000,54073.000000,33434.000000
37318.000000,36750.000000,54058.000000,33417.000000
37312.000000,36751.000000,54045.000000,33403.000000
37306.000000,36755.000000,54033.000000,33391.000000
37300.000000,36757.000000,54016.000000,33375.000000
37293.000000,36755.000000,53997.000000,33360.000000
37282.000000,36749.000000,53977.000000,33344.000000
37265.000000,36737.000000,53955.000000,33323.000000
37243.000000,36719.000000,53929.000000,33298.000000
37219.000000,36698.000000,53898.000000,33275.000000
37197.000000,36679.000000,53865.000000,33256.000000
37179.000000,36660.000000,53831.000000,33239.000000
37164.000000,36642.000000,53798.000000,33222.000000
37153.000000,36626.000000,53767.000000,33205.000000
37145.000000,36613.000000,53741.000000,33190.000000
37139.000000,36598.000000,53716.000000,33176.000000
37128.000000,36578.000000,53689.000000,33160.000000
37112.000000,36557.000000,53661.000000,33140.000000
37093.000000,36535.000000,53631.000000,33121.000000
37070.000000,36511.000000,53599.000000,33101.000000
37045.000000,36483.000000,53560.000000,33074.000000
37020.000000,36457.000000,53517.000000,33043.000000
37001.000000,36438.000000,53479.000000,33016.000000
36985.000000,36426.000000,53456.000000,32998.000000
36974.000000,36419.000000,53446.000000,32991.000000
36970.000000,36422.000000,53450.000000,32992.000000
36977.000000,36437.000000,53472.000000,33005.000000
36999.000000,36468.000000,53519.000000,33035.000000
37040.000000,36520.000000,53597.000000,33093.000000
37108.000000,36596.000000,53714.000000,33189.000000
37202.000000,36698.000000,53874.000000,33317.000000
37317.000000,36825.000000,54077.000000,33471.000000
37450.000000,36975.000000,54323.000000,33651.000000
37605.000000,37148.000000,54607.000000,33854.000000
37778.000000,37339.000000,54919.000000,34078.000000
37960.000000,37540.000000,55245.000000,34315.000000
38146.000000,37741.000000,55581.000000,34557.000000
38334.000000,37941.000000,55918.000000,34803.000000
38517.000000,38135.000000,56250.000000,35051.000000
38692.000000,38319.000000,56568.000000,35289.000000
38859.000000,38493.000000,56871.000000,35509.000000
39015.000000,38655.000000,57154.000000,35712.000000
39156.000000,38801.000000,57410.000000,35896.000000
39275.000000,38928.000000,57629.000000,36053.000000
39374.000000,39035.000000,57812.000000,36182.000000
39456.000000,39121.000000,57959.000000,36287.000000
39521.000000,39184.000000,58070.000000,36365.000000
39566.000000,39226.000000,58147.000000,36416.000000
39594.000000,39251.000000,58195.000000,36449.000000
39608.000000,39266.000000,58220.000000,36472.000000
39609.000000,39267.000000,58224.000000,36483.000000
39599.000000,39254.000000,58206.000000,36479.000000
39582.000000,39233.000000,58174.000000,36467.000000
39561.000000,39206.000000,58134.000000,36453.000000
39539.000000,39173.000000,58086.000000,36432.000000
39514.000000,39136.000000,58035.000000,36404.000000
39486.000000,39103.000000,57985.000000,36375.000000
39459.000000,39071.000000,57937.000000,36344.000000
39430.000000,39036.000000,57887.000000,36306.000000
39402.000000,39002.000000,57837.000000,36267.000000
39378.000000,38974.000000,57794.000000,36231.000000
39358.000000,38953.000000,57756.000000,36198.000000
39336.000000,38932.000000,57719.000000,36163.000000
39315.000000,38913.000000,57684.000000,36130.000000
39298.000000,38901.000000,57657.000000,36108.000000
39289.000000,38894.000000,57635.000000,36094.000000
39281.000000,38884.000000,57616.000000,36077.000000
39273.000000,38869.000000,57597.000000,36057.000000
39266.000000,38856.000000,57582.000000,36041.000000
39260.000000,38845.000000,57571.000000,36033.000000
39254.000000,38832.000000,57558.000000,36019.000000
39246.000000,38813.000000,57540.000000,35995.000000
39234.000000,38792.000000,57520.000000,35972.000000
39219.000000,38771.000000,57500.000000,35954.000000
39200.000000,38746.000000,57473.000000,35933.000000
39179.000000,38719.000000,57437.000000,35903.000000
39157.000000,38693.000000,57393.000000,35868.000000
39128.000000,38664.000000,57340.000000,35830.000000
39092.000000,38630.000000,57276.000000,35786.000000
39053.000000,38591.000000,57203.000000,35734.000000
39011.000000,38552.000000,57125.000000,35676.000000
38966.000000,38509.000000,57043.000000,35613.000000
38919.000000,38462.000000,56958.000000,35547.000000
38874.000000,38416.000000,56873.000000,35484.000000
38832.000000,38373.000000,56792.000000,35428.000000
38793.000000,38332.000000,56716.000000,35374.000000
38755.000000,38294.000000,56646.000000,35324.000000
38723.000000,38261.000000,56586.000000,35284.000000
38700.000000,38236.000000,56536.000000,35257.000000
38680.000000,38215.000000,56494.000000,35236.000000
38661.000000,38196.000000,56456.000000,35215.000000
38644.000000,38180.000000,56424.000000,35196.000000
38630.000000,38169.000000,56399.000000,35178.000000
38615.000000,38157.000000,56381.000000,35158.000000
38601.000000,38143.000000,56367.000000,35136.000000
38590.000000,38130.000000,56357.000000,35120.000000
38582.000000,38121.000000,56352.000000,35114.000000
38575.000000,38113.000000,56348.000000,35111.000000
38568.000000,38106.000000,56343.000000,35109.000000
38561.000000,38101.000000,56339.000000,35106.000000
38553.000000,38098.000000,56340.000000,35104.000000
38543.000000,38094.000000,56337.000000,35099.000000
38536.000000,38089.000000,56330.000000,35091.000000
38533.000000,38087.000000,56326.000000,35087.000000
38532.000000,38088.000000,56324.000000,35091.000000
38529.000000,38085.000000,56319.000000,35089.000000
38524.000000,38079.000000,56308.000000,35078.000000
38519.000000,38071.000000,56295.000000,35062.000000
38512.000000,38061.000000,56280.000000,35047.000000
38503.000000,38048.000000,56259.000000,35026.000000
38491.000000,38029.000000,56229.000000,35000.000000
38477.000000,38008.000000,56192.000000,34978.000000
38461.000000,37990.000000,56153.000000,34961.000000
38441.000000,37970.000000,56109.000000,34944.000000
38418.000000,37945.000000,56062.000000,34920.000000
38394.000000,37918.000000,56016.000000,34891.000000
38370.000000,37891.000000,55968.000000,34857.000000
38345.000000,37864.000000,55918.000000,34817.000000
38318.000000,37836.000000,55867.000000,34773.000000
38289.000000,37808.000000,55816.000000,34726.000000
38256.000000,37777.000000,55761.000000,34677.000000
38219.000000,37739.000000,55701.000000,34625.000000
38182.000000,37698.000000,55639.000000,34576.000000
38151.000000,37658.000000,55577.000000,34530.000000
38121.000000,37618.000000,55518.000000,34485.000000
38090.000000,37579.000000,55457.000000,34440.000000
38058.000000,37540.000000,55398.000000,34402.000000
38027.000000,37503.000000,55345.000000,34370.000000
37999.000000,37469.000000,55299.000000,34340.000000
37972.000000,37438.000000,55257.000000,34311.000000
37949.000000,37413.000000,55217.000000,34287.000000
37928.000000,37394.000000,55179.000000,34265.000000
37904.000000,37373.000000,55139.000000,34236.000000
37873.000000,37348.000000,55096.000000,34203.000000
37839.000000,37324.000000,55056.000000,34173.000000
37803.000000,37304.000000,55016.000000,34145.000000
37764.000000,37283.000000,54974.000000,34116.000000
37730.000000,37257.000000,54936.000000,34083.000000
37706.000000,37234.000000,54907.000000,34054.000000
37694.000000,37214.000000,54884.000000,34035.000000
37685.000000,37195.000000,54860.000000,34020.000000
37674.000000,37175.000000,54834.000000,34004.000000
37663.000000,37161.000000,54813.000000,33987.000000
37657.000000,37153.000000,54798.000000,33970.000000
37651.000000,37143.000000,54781.000000,33952.000000
37643.000000,37130.000000,54759.000000,33931.000000
37633.000000,37118.000000,54735.000000,33912.000000
37624.000000,37108.000000,54710.000000,33894.000000
37612.000000,37094.000000,54680.000000,33873.000000
37596.000000,37075.000000,54648.000000,33849.000000
37581.000000,37059.000000,54621.000000,33828.000000
37570.000000,37047.000000,54601.000000,33817.000000
37557.000000,37037.000000,54582.000000,33810.000000
37543.000000,37026.000000,54562.000000,33802.000000
37528.000000,37017.000000,54541.000000,33798.000000
37512.000000,37009.000000,54520.000000,33798.000000
37497.000000,36998.000000,54497.000000,33795.000000
37485.000000,36986.000000,54471.000000,33786.000000
37475.000000,36973.000000,54444.000000,33770.000000
37463.000000,36958.000000,54411.000000,33750.000000
37445.000000,36936.000000,54373.000000,33722.000000
37420.000000,36910.000000,54337.000000,33684.000000
37396.000000,36885.000000,54311.000000,33648.000000
37378.000000,36863.000000,54292.000000,33615.000000
37360.000000,36842.000000,54275.000000,33580.000000
37342.000000,36826.000000,54259.000000,33547.000000
37330.000000,36816.000000,54244.000000,33525.000000
37323.000000,36808.000000,54228.000000,33506.000000
37317.000000,36799.000000,54207.000000,33485.000000
37311.000000,36790.000000,54184.000000,33471.000000
37308.000000,36783.000000,54164.000000,33463.000000
37302.000000,36776.000000,54146.000000,33456.000000
37294.000000,36765.000000,54124.000000,33449.000000
37286.000000,36754.000000,54101.000000,33441.000000
37278.000000,36743.000000,54079.000000,33427.000000
37268.000000,36731.000000,54056.000000,33405.000000
37254.000000,36717.000000,54032.000000,33381.000000
37240.000000,36706.000000,54009.000000,33363.000000
37229.000000,36695.000000,53986.000000,33345.000000
37217.000000,36682.000000,53958.000000,33322.000000
37203.000000,36665.000000,53924.000000,33297.000000
37188.000000,36646.000000,53890.000000,33284.000000
37176.000000,36631.000000,53860.000000,33282.000000
