660nm,730nm,850nm,940nm
21295.000000,12075.000000,11253.000000,50260.000000
21307.000000,11983.000000,11299.000000,50147.000000
21303.000000,11953.000000,11200.000000,50198.000000
21355.000000,11984.000000,11262.000000,50175.000000
21368.000000,12041.000000,11310.000000,50086.000000
21345.000000,11953.000000,11349.000000,50142.000000
21223.000000,12093.000000,11253.000000,50158.000000
21321.000000,11941.000000,11234.000000,50170.000000
21295.000000,11917.000000,11166.000000,50163.000000
21333.000000,11913.000000,11210.000000,50203.000000
21211.000000,11930.000000,11263.000000,50161.000000
21232.000000,11979.000000,11146.000000,50181.000000
21271.000000,11946.000000,11147.000000,50168.000000
21223.000000,11952.000000,11171.000000,50102.000000
21141.000000,11887.000000,11020.000000,50087.000000
21164.000000,11909.000000,11089.000000,50141.000000
21216.000000,11818.000000,11112.000000,50045.000000
21107.000000,11773.000000,11035.000000,50066.000000
20981.000000,11696.000000,11051.000000,49966.000000
21021.000000,11761.000000,10992.000000,50026.000000
21066.000000,11746.000000,10914.000000,50084.000000
21011.000000,11685.000000,10897.000000,50073.000000
20946.000000,11718.000000,10982.000000,50070.000000
21036.000000,11768.000000,10843.000000,49977.000000
20935.000000,11745.000000,10920.000000,49963.000000
20842.000000,11621.000000,10935.000000,49988.000000
20823.000000,11674.000000,10920.000000,49892.000000
20939.000000,11621.000000,10911.000000,49942.000000
20911.000000,11718.000000,10837.000000,49955.000000
20813.000000,11677.000000,10823.000000,49855.000000
20848.000000,11593.000000,10774.000000,49858.000000
20918.000000,11599.000000,10858.000000,49915.000000
20866.000000,11600.000000,10774.000000,49914.000000
20829.000000,11514.000000,10776.000000,49831.000000
20830.000000,11530.000000,10788.000000,49892.000000
20723.000000,11406.000000,10761.000000,49882.000000
20822.000000,11508.000000,10724.000000,50011.000000
20819.000000,11525.000000,10764.000000,50011.000000
20814.000000,11540.000000,10795.000000,49960.000000
20723.000000,11442.000000,10821.000000,50086.000000
20909.000000,11546.000000,10802.000000,49917.000000
20997.000000,11684.000000,10851.000000,50055.000000
20883.000000,11579.000000,10956.000000,49968.000000
20873.000000,11593.000000,10914.000000,49964.000000
20955.000000,11706.000000,10956.000000,50079.000000
21147.000000,11787.000000,11082.000000,49998.000000
21176.000000,11747.000000,11132.000000,50127.000000
21202.000000,11958.000000,11231.000000,50180.000000
21424.000000,12000.000000,11305.000000,50197.000000
21538.000000,12034.000000,11417.000000,50269.000000
21671.000000,12254.000000,11628.000000,50437.000000
21750.000000,12229.000000,11693.000000,50499.000000
21923.000000,12390.000000,11811.000000,50350.000000
22049.000000,12636.000000,11986.000000,50533.000000
22179.000000,12804.000000,12066.000000,50703.000000
22251.000000,12606.000000,12174.000000,50809.000000
22435.000000,12801.000000,12249.000000,50787.000000
22486.000000,12871.000000,12272.000000,50807.000000
22505.000000,12733.000000,12410.000000,50820.000000
22484.000000,12950.000000,12435.000000,50807.000000
22599.000000,12870.000000,12382.000000,50857.000000
22605.000000,12818.000000,12338.000000,50797.000000
22545.000000,12840.000000,12431.000000,50843.000000
22571.000000,12888.000000,12328.000000,50805.000000
22525.000000,12903.000000,12369.000000,50829.000000
22553.000000,12921.000000,12364.000000,50858.000000
22479.000000,12844.000000,12262.000000,50729.000000
22491.000000,12846.000000,12247.000000,50810.000000
22560.000000,12910.000000,12316.000000,50736.000000
22413.000000,12990.000000,12276.000000,50758.000000
22432.000000,12821.000000,12282.000000,50743.000000
22496.000000,12901.000000,12255.000000,50735.000000
22431.000000,12842.000000,12255.000000,50744.000000
22383.000000,12934.000000,12218.000000,50692.000000
22331.000000,12820.000000,12207.000000,50727.000000
22397.000000,12759.000000,12159.000000,50810.000000
22360.000000,12814.000000,12132.000000,50740.000000
22346.000000,12733.000000,12147.000000,50708.000000
22287.000000,12727.000000,12188.000000,50759.000000
22333.000000,12751.000000,12096.000000,50669.000000
22395.000000,12780.000000,12169.000000,50664.000000
22328.000000,12719.000000,12043.000000,50659.000000
22217.000000,12501.000000,12111.000000,50554.000000
22298.000000,12661.000000,12064.000000,50638.000000
22377.000000,12822.000000,12110.000000,50705.000000
22234.000000,12714.000000,12024.000000,50692.000000
22150.000000,12584.000000,11968.000000,50636.000000
22166.000000,12621.000000,12029.000000,50658.000000
22287.000000,12658.000000,12066.000000,50572.000000
22170.000000,12639.000000,11960.000000,50547.000000
22023.000000,12686.000000,11976.000000,50610.000000
22155.000000,12697.000000,11996.000000,50609.000000
22204.000000,12493.000000,11905.000000,50585.000000
22178.000000,12569.000000,11914.000000,50638.000000
22013.000000,12545.000000,11912.000000,50524.000000
22093.000000,12668.000000,11923.000000,50522.000000
22125.000000,12599.000000,11906.000000,50594.000000
22041.000000,12481.000000,11830.000000,50559.000000
22007.000000,12434.000000,11868.000000,50552.000000
21891.000000,12440.000000,11836.000000,50510.000000
22071.000000,12483.000000,11755.000000,50424.000000
21975.000000,12453.000000,11799.000000,50447.000000
21855.000000,12453.000000,11736.000000,50465.000000
21945.000000,12455.000000,11639.000000,50408.000000
21888.000000,12439.000000,11709.000000,50446.000000
21811.000000,12343.000000,11702.000000,50401.000000
21795.000000,12389.000000,11738.000000,50475.000000
21909.000000,12354.000000,11658.000000,50473.000000
21692.000000,12444.000000,11640.000000,50368.000000
21717.000000,12206.000000,11596.000000,50378.000000
21673.000000,12196.000000,11534.000000,50367.000000
21650.000000,12201.000000,11530.000000,50423.000000
21669.000000,12192.000000,11406.000000,50384.000000
21515.000000,12145.000000,11463.000000,50269.000000
21568.000000,12175.000000,11431.000000,50324.000000
21514.000000,12153.000000,11434.000000,50307.000000
21604.000000,12099.000000,11397.000000,50250.000000
21417.000000,12088.000000,11362.000000,50297.000000
21477.000000,12022.000000,11355.000000,50279.000000
21500.000000,12107.000000,11285.000000,50217.000000
21426.000000,12064.000000,11319.000000,50209.000000
21328.000000,11931.000000,11288.000000,50180.000000
21408.000000,11976.000000,11288.000000,50289.000000
21377.000000,11994.000000,11235.000000,50163.000000
21404.000000,11991.000000,11275.000000,50148.000000
21338.000000,11993.000000,11127.000000,50118.000000
21347.000000,11985.000000,11221.000000,50161.000000
21426.000000,12068.000000,11148.000000,50096.000000
21403.000000,12022.000000,11222.000000,50124.000000
21194.000000,11894.000000,11215.000000,50073.000000
21293.000000,11959.000000,11168.000000,50167.000000
21223.000000,11918.000000,11277.000000,50226.000000
21267.000000,11929.000000,11208.000000,50189.000000
21234.000000,11901.000000,11180.000000,50135.000000
21297.000000,11865.000000,11076.000000,50271.000000
21303.000000,11917.000000,11290.000000,50147.000000
21259.000000,11869.000000,11186.000000,50169.000000
21276.000000,11827.000000,11109.000000,50150.000000
21386.000000,11919.000000,11205.000000,50157.000000
21336.000000,11897.000000,11169.000000,50151.000000
21326.000000,11981.000000,11197.000000,50089.000000
21311.000000,11932.000000,11133.000000,50133.000000
21388.000000,11952.000000,11177.000000,50090.000000
21353.000000,12013.000000,11215.000000,50154.000000
21259.000000,11938.000000,11207.000000,50079.000000
21286.000000,11902.000000,11131.000000,50129.000000
21384.000000,11924.000000,11135.000000,50144.000000
21399.000000,11988.000000,11121.000000,50143.000000
21304.000000,11906.000000,11122.000000,50161.000000
21209.000000,11942.000000,11129.000000,50119.000000
21236.000000,11874.000000,11131.000000,50094.000000
21212.000000,11925.000000,11144.000000,50120.000000
21231.000000,11806.000000,11072.000000,50019.000000
21125.000000,11883.000000,11038.000000,49959.000000
21114.000000,11739.000000,11051.000000,50008.000000
21199.000000,11742.000000,10980.000000,50043.000000
21002.000000,11678.000000,10980.000000,50026.000000
20998.000000,11679.000000,11004.000000,49975.000000
21061.000000,11695.000000,10901.000000,50031.000000
20975.000000,11691.000000,10933.000000,49951.000000
20949.000000,11692.000000,10821.000000,49920.000000
21003.000000,11646.000000,10868.000000,49918.000000
20884.000000,11673.000000,10768.000000,49924.000000
20989.000000,11611.000000,10811.000000,49924.000000
20833.000000,11604.000000,10847.000000,49853.000000
20880.000000,11572.000000,10767.000000,49927.000000
20933.000000,11608.000000,10744.000000,49907.000000
20863.000000,11503.000000,10708.000000,49867.000000
20797.000000,11517.000000,10613.000000,49818.000000
20879.000000,11477.000000,10685.000000,49884.000000
20743.000000,11492.000000,10744.000000,49883.000000
20783.000000,11497.000000,10642.000000,49833.000000
20665.000000,11390.000000,10651.000000,49807.000000
20753.000000,11448.000000,10653.000000,49800.000000
20758.000000,11481.000000,10619.000000,49829.000000
20780.000000,11545.000000,10577.000000,49717.000000
20622.000000,11343.000000,10528.000000,49819.000000
20740.000000,11325.000000,10638.000000,49793.000000
20725.000000,11387.000000,10645.000000,49827.000000
20725.000000,11332.000000,10578.000000,49854.000000
20646.000000,11345.000000,10607.000000,49713.000000
20787.000000,11437.000000,10621.000000,49794.000000
20870.000000,11388.000000,10644.000000,49900.000000
20862.000000,11437.000000,10672.000000,49900.000000
20816.000000,11400.000000,10636.000000,49889.000000
20779.000000,11650.000000,10695.000000,49895.000000
20911.000000,11455.000000,10786.000000,49901.000000
20973.000000,11554.000000,10858.000000,49913.000000
20888.000000,11609.000000,10790.000000,49983.000000
21031.000000,11660.000000,10995.000000,50056.000000
21184.000000,11716.000000,11012.000000,50068.000000
21240.000000,11698.000000,11045.000000,50126.000000
21304.000000,11822.000000,11128.000000,50141.000000
21542.000000,11870.000000,11293.000000,50252.000000
21628.000000,12114.000000,11437.000000,50293.000000
21579.000000,12258.000000,11467.000000,50381.000000
21928.000000,12321.000000,11615.000000,50513.000000
22083.000000,12343.000000,11822.000000,50514.000000
22125.000000,12480.000000,11804.000000,50537.000000
22132.000000,12467.000000,12085.000000,50656.000000
22303.000000,12549.000000,12011.000000,50684.000000
22363.000000,12584.000000,12115.000000,50737.000000
22355.000000,12712.000000,12033.000000,50740.000000
22347.000000,12701.000000,12030.000000,50661.000000
22416.000000,12712.000000,12147.000000,50660.000000
22459.000000,12752.000000,12180.000000,50721.000000
22437.000000,12766.000000,12084.000000,50649.000000
22314.000000,12631.000000,12093.000000,50630.000000
22416.000000,12757.000000,12128.000000,50665.000000
22366.000000,12689.000000,12115.000000,50627.000000
22363.000000,12749.000000,12079.000000,50673.000000
22278.000000,12775.000000,11979.000000,50634.000000
22435.000000,12662.000000,12064.000000,50669.000000
22338.000000,12633.000000,12134.000000,50684.000000
22344.000000,12661.000000,12044.000000,50665.000000
22134.000000,12616.000000,12015.000000,50680.000000
22320.000000,12618.000000,12010.000000,50600.000000
22293.000000,12598.000000,11923.000000,50554.000000
22228.000000,12612.000000,11932.000000,50579.000000
22093.000000,12559.000000,12018.000000,50596.000000
22268.000000,12709.000000,11920.000000,50629.000000
22182.000000,12483.000000,11911.000000,50591.000000
22199.000000,12603.000000,11924.000000,50652.000000
22177.000000,12527.000000,11885.000000,50560.000000
22151.000000,12580.000000,11864.000000,50485.000000
21966.000000,12448.000000,11825.000000,50428.000000
22099.000000,12510.000000,11800.000000,50501.000000
22074.000000,12541.000000,11778.000000,50508.000000
21988.000000,12438.000000,11777.000000,50464.000000
21927.000000,12487.000000,11756.000000,50463.000000
22012.000000,12539.000000,11749.000000,50468.000000
22063.000000,12364.000000,11747.000000,50584.000000
21964.000000,12448.000000,11756.000000,50474.000000
21902.000000,12323.000000,11616.000000,50512.000000
21989.000000,12422.000000,11638.000000,50463.000000
21966.000000,12405.000000,11689.000000,50494.000000
21860.000000,12391.000000,11613.000000,50384.000000
21789.000000,12210.000000,11538.000000,50360.000000
21939.000000,12317.000000,11660.000000,50414.000000
21934.000000,12308.000000,11550.000000,50379.000000
21860.000000,12246.000000,11594.000000,50355.000000
21790.000000,12243.000000,11540.000000,50357.000000
21759.000000,12267.000000,11608.000000,50200.000000
21868.000000,12284.000000,11479.000000,50343.000000
21686.000000,12130.000000,11474.000000,50251.000000
21706.000000,12153.000000,11486.000000,50297.000000
21736.000000,12237.000000,11434.000000,50221.000000
21712.000000,12162.000000,11364.000000,50286.000000
21634.000000,12118.000000,11411.000000,50249.000000
21650.000000,12128.000000,11400.000000,50308.000000
21598.000000,12036.000000,11368.000000,50273.000000
21607.000000,12072.000000,11369.000000,50247.000000
21532.000000,12151.000000,11344.000000,50289.000000
21631.000000,12026.000000,11342.000000,50243.000000
21578.000000,12096.000000,11314.000000,50249.000000
21532.000000,12144.000000,11226.000000,50329.000000
21317.000000,11979.000000,11332.000000,50252.000000
21455.000000,12037.000000,11188.000000,50216.000000
21437.000000,11954.000000,11183.000000,50227.000000
21471.000000,11993.000000,11144.000000,50175.000000
21360.000000,11988.000000,11186.000000,50090.000000
21407.000000,11905.000000,11188.000000,50177.000000
21379.000000,11847.000000,11176.000000,50054.000000
21298.000000,11873.000000,11132.000000,50172.000000
21298.000000,11792.000000,11105.000000,50254.000000
21407.000000,11918.000000,11072.000000,50085.000000
21319.000000,11935.000000,10926.000000,50058.000000
21319.000000,11801.000000,11076.000000,50161.000000
21219.000000,11813.000000,11035.000000,50148.000000
21259.000000,11877.000000,11089.000000,50098.000000
21215.000000,11835.000000,11031.000000,50165.000000
21201.000000,11730.000000,11043.000000,50102.000000
21151.000000,11761.000000,10947.000000,50033.000000
21148.000000,11808.000000,11023.000000,49935.000000
21205.000000,11776.000000,10976.000000,50104.000000
21207.000000,11797.000000,11004.000000,50037.000000
21257.000000,11725.000000,10873.000000,50085.000000
21258.000000,11808.000000,11000.000000,50083.000000
21311.000000,11796.000000,10956.000000,50130.000000
21161.000000,11792.000000,11056.000000,50049.000000
21312.000000,11869.000000,10980.000000,49958.000000
21319.000000,11872.000000,10950.000000,50014.000000
21260.000000,11746.000000,11042.000000,50099.000000
21238.000000,11819.000000,11009.000000,50079.000000
21233.000000,11822.000000,11088.000000,50103.000000
21252.000000,11810.000000,11111.000000,50117.000000
21267.000000,11883.000000,11053.000000,50028.000000
21256.000000,11753.000000,11118.000000,50039.000000
21260.000000,11870.000000,11003.000000,50095.000000
21282.000000,11716.000000,11055.000000,50040.000000
21261.000000,11837.000000,11053.000000,50071.000000
21258.000000,11771.000000,11000.000000,50036.000000
21253.000000,11738.000000,10991.000000,50000.000000
21228.000000,11936.000000,11056.000000,49996.000000
21247.000000,11756.000000,10982.000000,50032.000000
21163.000000,11658.000000,10920.000000,50077.000000
21211.000000,11739.000000,10949.000000,49980.000000
21183.000000,11687.000000,10791.000000,49916.000000
21139.000000,11700.000000,10837.000000,49950.000000
21005.000000,11681.000000,10863.000000,49936.000000
21064.000000,11598.000000,10874.000000,49932.000000
21053.000000,11601.000000,10778.000000,50020.000000
21087.000000,11631.000000,10791.000000,49940.000000
21012.000000,11645.000000,10649.000000,49862.000000
20972.000000,11607.000000,10726.000000,49871.000000
21004.000000,11645.000000,10747.000000,49835.000000
20897.000000,11518.000000,10664.000000,49845.000000
20774.000000,11628.000000,10711.000000,49875.000000
20879.000000,11522.000000,10755.000000,49798.000000
20871.000000,11556.000000,10612.000000,49884.000000
20768.000000,11432.000000,10501.000000,49892.000000
20838.000000,11511.000000,10630.000000,49836.000000
20928.000000,11518.000000,10547.000000,49840.000000
20858.000000,11429.000000,10556.000000,49859.000000
20715.000000,11406.000000,10622.000000,49777.000000
20761.000000,11296.000000,10532.000000,49790.000000
20851.000000,11351.000000,10519.000000,49791.000000
20783.000000,11432.000000,10548.000000,49850.000000
20760.000000,11347.000000,10537.000000,49792.000000
20732.000000,11404.000000,10588.000000,49792.000000
20862.000000,11324.000000,10649.000000,49845.000000
20803.000000,11472.000000,10532.000000,49735.000000
20824.000000,11288.000000,10587.000000,49822.000000
20765.000000,11370.000000,10445.000000,49775.000000
20856.000000,11439.000000,10583.000000,49799.000000
20824.000000,11383.000000,10654.000000,49868.000000
20870.000000,11448.000000,10707.000000,49869.000000
20834.000000,11442.000000,10636.000000,49805.000000
20868.000000,11403.000000,10645.000000,49929.000000
21024.000000,11475.000000,10769.000000,49967.000000
20908.000000,11486.000000,10821.000000,49904.000000
21006.000000,11594.000000,10876.000000,50108.000000
21175.000000,11702.000000,10952.000000,50069.000000
21287.000000,11763.000000,10932.000000,49985.000000
21257.000000,11765.000000,11118.000000,50032.000000
21456.000000,11886.000000,11139.000000,50171.000000
21547.000000,12016.000000,11345.000000,50256.000000
21736.000000,12056.000000,11418.000000,50336.000000
21768.000000,12174.000000,11551.000000,50454.000000
22003.000000,12318.000000,11657.000000,50519.000000
22026.000000,12448.000000,11774.000000,50521.000000
22189.000000,12513.000000,11923.000000,50595.000000
22140.000000,12537.000000,11976.000000,50514.000000
22350.000000,12621.000000,11986.000000,50674.000000
22422.000000,12708.000000,11944.000000,50726.000000
22432.000000,12669.000000,12077.000000,50662.000000
22378.000000,12666.000000,12063.000000,50662.000000
22578.000000,12778.000000,12083.000000,50738.000000
22431.000000,12707.000000,12068.000000,50686.000000
22540.000000,12698.000000,12039.000000,50598.000000
22474.000000,12636.000000,12109.000000,50699.000000
22512.000000,12723.000000,12139.000000,50667.000000
22527.000000,12754.000000,12092.000000,50678.000000
22472.000000,12745.000000,12029.000000,50655.000000
22321.000000,12692.000000,12196.000000,50662.000000
22358.000000,12682.000000,11963.000000,50738.000000
22257.000000,12709.000000,12021.000000,50662.000000
22317.000000,12645.000000,12005.000000,50699.000000
22282.000000,12473.000000,11920.000000,50654.000000
22310.000000,12613.000000,11881.000000,50697.000000
22357.000000,12635.000000,11911.000000,50637.000000
22261.000000,12642.000000,11925.000000,50553.000000
22294.000000,12563.000000,11831.000000,50584.000000
22258.000000,12553.000000,11880.000000,50561.000000
22177.000000,12531.000000,11856.000000,50540.000000
22167.000000,12518.000000,11828.000000,50569.000000
22124.000000,12430.000000,11835.000000,50490.000000
22222.000000,12417.000000,11813.000000,50538.000000
22063.000000,12508.000000,11771.000000,50557.000000
22013.000000,12483.000000,11785.000000,50547.000000
22334.000000,12447.000000,11697.000000,50506.000000
22114.000000,12516.000000,11774.000000,50548.000000
22117.000000,12489.000000,11735.000000,50388.000000
22036.000000,12428.000000,11707.000000,50540.000000
22012.000000,12392.000000,11722.000000,50523.000000
22039.000000,12453.000000,11733.000000,50479.000000
22077.000000,12345.000000,11660.000000,50489.000000
21924.000000,12262.000000,11659.000000,50433.000000
21993.000000,12351.000000,11686.000000,50441.000000
22046.000000,12216.000000,11622.000000,50474.000000
21961.000000,12283.000000,11595.000000,50485.000000
21981.000000,12270.000000,11508.000000,50393.000000
21894.000000,12184.000000,11527.000000,50339.000000
21876.000000,12257.000000,11485.000000,50352.000000
21837.000000,12242.000000,11500.000000,50310.000000
21739.000000,12244.000000,11427.000000,50468.000000
21871.000000,12200.000000,11462.000000,50342.000000
21764.000000,12193.000000,11424.000000,50337.000000
21728.000000,12310.000000,11347.000000,50373.000000
21674.000000,12135.000000,11349.000000,50325.000000
21696.000000,12159.000000,11320.000000,50302.000000
21692.000000,12111.000000,11375.000000,50316.000000
21669.000000,12143.000000,11395.000000,50256.000000
21591.000000,11990.000000,11311.000000,50327.000000
21578.000000,12035.000000,11322.000000,50163.000000
21652.000000,12097.000000,11210.000000,50193.000000
21668.000000,12015.000000,11278.000000,50313.000000
21489.000000,11942.000000,11226.000000,50201.000000
21524.000000,11997.000000,11153.000000,50196.000000
21512.000000,11888.000000,11218.000000,50154.000000
21422.000000,11986.000000,11206.000000,50183.000000
21382.000000,11941.000000,11102.000000,50113.000000
21455.000000,11890.000000,11105.000000,50190.000000
21404.000000,11930.000000,11094.000000,50102.000000
21387.000000,11852.000000,11132.000000,50066.000000
21325.000000,11826.000000,11147.000000,50134.000000
21308.000000,11868.000000,10989.000000,50102.000000
21402.000000,11795.000000,10976.000000,50074.000000
21323.000000,11796.000000,10960.000000,50074.000000
21289.000000,11772.000000,10930.000000,50075.000000
21325.000000,11810.000000,11046.000000,50050.000000
21207.000000,11763.000000,10919.000000,50149.000000
21174.000000,11621.000000,10920.000000,49979.000000
21113.000000,11725.000000,10897.000000,50024.000000
21211.000000,11708.000000,10868.000000,50000.000000
21144.000000,11774.000000,10965.000000,50118.000000
21177.000000,11674.000000,10940.000000,50075.000000
21177.000000,11706.000000,10864.000000,50060.000000
21189.000000,11645.000000,10851.000000,50115.000000
21215.000000,11709.000000,10908.000000,50054.000000
21148.000000,11656.000000,10902.000000,50072.000000
21195.000000,11626.000000,10805.000000,49952.000000
21214.000000,11832.000000,10942.000000,50038.000000
21201.000000,11743.000000,10930.000000,50125.000000
21138.000000,11656.000000,10935.000000,49942.000000
21284.000000,11702.000000,10979.000000,50050.000000
21322.000000,11729.000000,10884.000000,49994.000000
21261.000000,11757.000000,10919.000000,50041.000000
21211.000000,11648.000000,10910.000000,49980.000000
21287.000000,11742.000000,10950.000000,50036.000000
21288.000000,11747.000000,11026.000000,50073.000000
21250.000000,11702.000000,11055.000000,50090.000000
21200.000000,11696.000000,10969.000000,49987.000000
21352.000000,11810.000000,10927.000000,50024.000000
21234.000000,11732.000000,10914.000000,50067.000000
21294.000000,11685.000000,11036.000000,50122.000000
21125.000000,11675.000000,10942.000000,50050.000000
21251.000000,11749.000000,10964.000000,49995.000000
21228.000000,11742.000000,10874.000000,50021.000000
21275.000000,11801.000000,10977.000000,50119.000000
21114.000000,11625.000000,10934.000000,50064.000000
21148.000000,11635.000000,10854.000000,49974.000000
21110.000000,11671.000000,10880.000000,49934.000000
21111.000000,11688.000000,10780.000000,50034.000000
21020.000000,11623.000000,10676.000000,49921.000000
21069.000000,11567.000000,10729.000000,49943.000000
21015.000000,11571.000000,10745.000000,49905.000000
21003.000000,11525.000000,10581.000000,49873.000000
20955.000000,11537.000000,10772.000000,49906.000000
21008.000000,11522.000000,10717.000000,49865.000000
21097.000000,11494.000000,10670.000000,49891.000000
20938.000000,11473.000000,10678.000000,49863.000000
20862.000000,11477.000000,10581.000000,49954.000000
20870.000000,11506.000000,10652.000000,49849.000000
20821.000000,11471.000000,10682.000000,49871.000000
20881.000000,11508.000000,10436.000000,49798.000000
20787.000000,11403.000000,10573.000000,49815.000000
20762.000000,11456.000000,10621.000000,49860.000000
20784.000000,11327.000000,10592.000000,49828.000000
20767.000000,11284.000000,10503.000000,49827.000000
20796.000000,11315.000000,10543.000000,49793.000000
20754.000000,11309.000000,10503.000000,49779.000000
20809.000000,11367.000000,10413.000000,49883.000000
20719.000000,11220.000000,10539.000000,49779.000000
20732.000000,11267.000000,10443.000000,49839.000000
20695.000000,11317.000000,10578.000000,49735.000000
20753.000000,11278.000000,10505.000000,49839.000000
20658.000000,11292.000000,10408.000000,49763.000000
20848.000000,11298.000000,10498.000000,49850.000000
20824.000000,11426.000000,10490.000000,49864.000000
20794.000000,11329.000000,10529.000000,49885.000000
20812.000000,11310.000000,10480.000000,49809.000000
20845.000000,11496.000000,10522.000000,49793.000000
20885.000000,11324.000000,10540.000000,49832.000000
20911.000000,11451.000000,10635.000000,49865.000000
20897.000000,11442.000000,10654.000000,49967.000000
21028.000000,11553.000000,10769.000000,49982.000000
21040.000000,11546.000000,10834.000000,49979.000000
21176.000000,11705.000000,10972.000000,50109.000000
21256.000000,11627.000000,11086.000000,50166.000000
21387.000000,11792.000000,11100.000000,50211.000000
21580.000000,11931.000000,11190.000000,50217.000000
21677.000000,11940.000000,11391.000000,50308.000000
21638.000000,12149.000000,11424.000000,50385.000000
21908.000000,12262.000000,11579.000000,50423.000000
22002.000000,12338.000000,11732.000000,50519.000000
22082.000000,12513.000000,11793.000000,50552.000000
22088.000000,12484.000000,11746.000000,50610.000000
22223.000000,12566.000000,11853.000000,50656.000000
22280.000000,12516.000000,11914.000000,50720.000000
22316.000000,12559.000000,11995.000000,50583.000000
22174.000000,12613.000000,11916.000000,50574.000000
22308.000000,12592.000000,11994.000000,50593.000000
22345.000000,12598.000000,11889.000000,50606.000000
22175.000000,12512.000000,11875.000000,50600.000000
22181.000000,12493.000000,11887.000000,50542.000000
22307.000000,12575.000000,11893.000000,50564.000000
22220.000000,12514.000000,11862.000000,50602.000000
22193.000000,12501.000000,11787.000000,50490.000000
22124.000000,12427.000000,11687.000000,50571.000000
22167.000000,12461.000000,11700.000000,50574.000000
22110.000000,12393.000000,11788.000000,50486.000000
22074.000000,12420.000000,11681.000000,50421.000000
22081.000000,12500.000000,11741.000000,50441.000000
22034.000000,12473.000000,11645.000000,50484.000000
21991.000000,12375.000000,11712.000000,50419.000000
21891.000000,12366.000000,11680.000000,50520.000000
21924.000000,12299.000000,11578.000000,50500.000000
22019.000000,12193.000000,11595.000000,50421.000000
21843.000000,12241.000000,11544.000000,50344.000000
21762.000000,12116.000000,11624.000000,50323.000000
21859.000000,12266.000000,11536.000000,50326.000000
21787.000000,12174.000000,11574.000000,50290.000000
21774.000000,12202.000000,11501.000000,50371.000000
21788.000000,12093.000000,11419.000000,50208.000000
21879.000000,12186.000000,11392.000000,50288.000000
21769.000000,12216.000000,11425.000000,50235.000000
21809.000000,12104.000000,11318.000000,50337.000000
21604.000000,12039.000000,11367.000000,50367.000000
21654.000000,12159.000000,11291.000000,50272.000000
21651.000000,12088.000000,11279.000000,50132.000000
21566.000000,12075.000000,11253.000000,50263.000000
21532.000000,11993.000000,11298.000000,50192.000000
21544.000000,12031.000000,11260.000000,50155.000000
21561.000000,12008.000000,11199.000000,50064.000000
21509.000000,11869.000000,11197.000000,50208.000000
21485.000000,11973.000000,11133.000000,50183.000000
21484.000000,11988.000000,11115.000000,50144.000000
21529.000000,11943.000000,11038.000000,50126.000000
21305.000000,11907.000000,11104.000000,50137.000000
21264.000000,11792.000000,11018.000000,50049.000000
21430.000000,11889.000000,11014.000000,50125.000000
21386.000000,11736.000000,11089.000000,50119.000000
21327.000000,11789.000000,10981.000000,50123.000000
21214.000000,11651.000000,10911.000000,49972.000000
21256.000000,11769.000000,10877.000000,49987.000000
21146.000000,11756.000000,10961.000000,49859.000000
21115.000000,11612.000000,10838.000000,49966.000000
21108.000000,11624.000000,10748.000000,50029.000000
21172.000000,11617.000000,10785.000000,49940.000000
21061.000000,11598.000000,10800.000000,49958.000000
20983.000000,11583.000000,10711.000000,49936.000000
20973.000000,11488.000000,10626.000000,49891.000000
21019.000000,11581.000000,10749.000000,49884.000000
21012.000000,11518.000000,10597.000000,49885.000000
20778.000000,11465.000000,10665.000000,49827.000000
20900.000000,11508.000000,10568.000000,49905.000000
20866.000000,11439.000000,10526.000000,49898.000000
20866.000000,11470.000000,10597.000000,49765.000000
20774.000000,11366.000000,10452.000000,49802.000000
20827.000000,11386.000000,10409.000000,49760.000000
20727.000000,11346.000000,10529.000000,49855.000000
20709.000000,11423.000000,10452.000000,49785.000000
20588.000000,11302.000000,10357.000000,49842.000000
20561.000000,11283.000000,10394.000000,49716.000000
20619.000000,11300.000000,10365.000000,49713.000000
20672.000000,11209.000000,10400.000000,49766.000000
20579.000000,11145.000000,10518.000000,49752.000000
20734.000000,11271.000000,10402.000000,49677.000000
20630.000000,11233.000000,10360.000000,49667.000000
20593.000000,11244.000000,10281.000000,49725.000000
20610.000000,11170.000000,10291.000000,49828.000000
20521.000000,11170.000000,10305.000000,49698.000000
20691.000000,11216.000000,10291.000000,49592.000000
20600.000000,11229.000000,10235.000000,49523.000000
20427.000000,11125.000000,10266.000000,49640.000000
20556.000000,11238.000000,10200.000000,49795.000000
20565.000000,11267.000000,10207.000000,49728.000000
20589.000000,11150.000000,10310.000000,49635.000000
20447.000000,11165.000000,10206.000000,49655.000000
20658.000000,11233.000000,10373.000000,49657.000000
20662.000000,11196.000000,10219.000000,49658.000000
20547.000000,11156.000000,10214.000000,49683.000000
20556.000000,11199.000000,10285.000000,49693.000000
20612.000000,11170.000000,10214.000000,49624.000000
20643.000000,11222.000000,10279.000000,49572.000000
20558.000000,11164.000000,10362.000000,49618.000000
20459.000000,11148.000000,10205.000000,49609.000000
20550.000000,11204.000000,10165.000000,49642.000000
20618.000000,11174.000000,10227.000000,49596.000000
20489.000000,11155.000000,10191.000000,49691.000000
20482.000000,11130.000000,10171.000000,49692.000000
20563.000000,11165.000000,10210.000000,49574.000000
20547.000000,11192.000000,10146.000000,49612.000000
20373.000000,11058.000000,10232.000000,49596.000000
20372.000000,11023.000000,10074.000000,49616.000000
20434.000000,11099.000000,10187.000000,49540.000000
20316.000000,11061.000000,10128.000000,49591.000000
20290.000000,11014.000000,10028.000000,49545.000000
20291.000000,11011.000000,9946.000000,49503.000000
20310.000000,10924.000000,9986.000000,49532.000000
20310.000000,10985.000000,9931.000000,49408.000000
20211.000000,10988.000000,10023.000000,49484.000000
20282.000000,10883.000000,9993.000000,49424.000000
20325.000000,10965.000000,9908.000000,49475.000000
20200.000000,10874.000000,9953.000000,49483.000000
20127.000000,10887.000000,9899.000000,49505.000000
20298.000000,10881.000000,9941.000000,49433.000000
20230.000000,10868.000000,9884.000000,49423.000000
20217.000000,10868.000000,9917.000000,49422.000000
20121.000000,10741.000000,9931.000000,49554.000000
20115.000000,10859.000000,9855.000000,49452.000000
20237.000000,10904.000000,9809.000000,49430.000000
20171.000000,10782.000000,9778.000000,49448.000000
19994.000000,10689.000000,9846.000000,49374.000000
20209.000000,10813.000000,9773.000000,49495.000000
20126.000000,10731.000000,9867.000000,49470.000000
20085.000000,10820.000000,9781.000000,49408.000000
20116.000000,10707.000000,9746.000000,49371.000000
20102.000000,10830.000000,9862.000000,49427.000000
20156.000000,10783.000000,9893.000000,49433.000000
20216.000000,10770.000000,9880.000000,49408.000000
20072.000000,10719.000000,9773.000000,49495.000000
20271.000000,10795.000000,9769.000000,49560.000000
20198.000000,10818.000000,9900.000000,49446.000000
20239.000000,10902.000000,9894.000000,49494.000000
20259.000000,10891.000000,9925.000000,49463.000000
20395.000000,10972.000000,10131.000000,49668.000000
20435.000000,10989.000000,10072.000000,49559.000000
20289.000000,10979.000000,10149.000000,49670.000000
20399.000000,10956.000000,10153.000000,49616.000000
20568.000000,11098.000000,10183.000000,49735.000000
20596.000000,11174.000000,10280.000000,49776.000000
20672.000000,11173.000000,10343.000000,49783.000000
20784.000000,11167.000000,10419.000000,49734.000000
20940.000000,11323.000000,10467.000000,49757.000000
21082.000000,11406.000000,10637.000000,49931.000000
21066.000000,11588.000000,10667.000000,49998.000000
21262.000000,11621.000000,10910.000000,49997.000000
21404.000000,11743.000000,11069.000000,50137.000000
21400.000000,11800.000000,11071.000000,50157.000000
21584.000000,11841.000000,11157.000000,50178.000000
21707.000000,11926.000000,11174.000000,50197.000000
21718.000000,12078.000000,11264.000000,50248.000000
21868.000000,12118.000000,11369.000000,50373.000000
21810.000000,12049.000000,11338.000000,50274.000000
21882.000000,12158.000000,11428.000000,50347.000000
21879.000000,12167.000000,11500.000000,50346.000000
21908.000000,12125.000000,11487.000000,50448.000000
21910.000000,12066.000000,11438.000000,50338.000000
21826.000000,12153.000000,11439.000000,50341.000000
21897.000000,12115.000000,11292.000000,50334.000000
21832.000000,12172.000000,11391.000000,50348.000000
21777.000000,12082.000000,11348.000000,50348.000000
21776.000000,12137.000000,11337.000000,50318.000000
21835.000000,12011.000000,11430.000000,50320.000000
21734.000000,12076.000000,11277.000000,50282.000000
21713.000000,11990.000000,11281.000000,50210.000000
21787.000000,12098.000000,11313.000000,50314.000000
21685.000000,12028.000000,11362.000000,50294.000000
21644.000000,12001.000000,11148.000000,50225.000000
21531.000000,11919.000000,11219.000000,50228.000000
21620.000000,11975.000000,11233.000000,50269.000000
21654.000000,12011.000000,11157.000000,50218.000000
21578.000000,12002.000000,11120.000000,50172.000000
21391.000000,11904.000000,11084.000000,50125.000000
21530.000000,11885.000000,11138.000000,50108.000000
21616.000000,11964.000000,11146.000000,50144.000000
21539.000000,11916.000000,11181.000000,50179.000000
21366.000000,11849.000000,11012.000000,50198.000000
21476.000000,11828.000000,11110.000000,50122.000000
21488.000000,11799.000000,11065.000000,50176.000000
21323.000000,11822.000000,11050.000000,50179.000000
21474.000000,11863.000000,11001.000000,50122.000000
21475.000000,11788.000000,10982.000000,50116.000000
21377.000000,11842.000000,11097.000000,50069.000000
21360.000000,11765.000000,10977.000000,50092.000000
21308.000000,11702.000000,10986.000000,50111.000000
21332.000000,11684.000000,10988.000000,50148.000000
21429.000000,11731.000000,11001.000000,50094.000000
21337.000000,11741.000000,11039.000000,50067.000000
21264.000000,11732.000000,10953.000000,49986.000000
21390.000000,11731.000000,10959.000000,50030.000000
21317.000000,11749.000000,10949.000000,50071.000000
21146.000000,11670.000000,10806.000000,49966.000000
21265.000000,11679.000000,10800.000000,50015.000000
21254.000000,11683.000000,10876.000000,50152.000000
21261.000000,11655.000000,10842.000000,50001.000000
21082.000000,11635.000000,10755.000000,49974.000000
21168.000000,11698.000000,10773.000000,49895.000000
21037.000000,11624.000000,10770.000000,49937.000000
21038.000000,11588.000000,10718.000000,49942.000000
21041.000000,11494.000000,10736.000000,50000.000000
21095.000000,11508.000000,10728.000000,49947.000000
21152.000000,11646.000000,10749.000000,49874.000000
21056.000000,11509.000000,10735.000000,49902.000000
21043.000000,11451.000000,10620.000000,49940.000000
20958.000000,11588.000000,10602.000000,49818.000000
20978.000000,11453.000000,10640.000000,49840.000000
20981.000000,11367.000000,10573.000000,49815.000000
20768.000000,11508.000000,10609.000000,49850.000000
20979.000000,11442.000000,10564.000000,49935.000000
20867.000000,11395.000000,10539.000000,49931.000000
20897.000000,11347.000000,10594.000000,49933.000000
20802.000000,11235.000000,10501.000000,49774.000000
20783.000000,11310.000000,10407.000000,49837.000000
20868.000000,11368.000000,10463.000000,49817.000000
20719.000000,11320.000000,10407.000000,49741.000000
20622.000000,11286.000000,10306.000000,49710.000000
20735.000000,11296.000000,10395.000000,49696.000000
20665.000000,11347.000000,10326.000000,49731.000000
20607.000000,11267.000000,10367.000000,49719.000000
20696.000000,11151.000000,10302.000000,49695.000000
20623.000000,11178.000000,10275.000000,49736.000000
20659.000000,11130.000000,10351.000000,49737.000000
20563.000000,11224.000000,10259.000000,49673.000000
20484.000000,11072.000000,10222.000000,49701.000000
20564.000000,11236.000000,10194.000000,49752.000000
20512.000000,11076.000000,10172.000000,49680.000000
20491.000000,11084.000000,10185.000000,49697.000000
20553.000000,11077.000000,10189.000000,49571.000000
20499.000000,11078.000000,10149.000000,49711.000000
20572.000000,11088.000000,10194.000000,49684.000000
20424.000000,11022.000000,10163.000000,49560.000000
20492.000000,11025.000000,10150.000000,49602.000000
20476.000000,11034.000000,10089.000000,49591.000000
20495.000000,11058.000000,10191.000000,49577.000000
20354.000000,10956.000000,10088.000000,49583.000000
20409.000000,10992.000000,10125.000000,49514.000000
20407.000000,11089.000000,9954.000000,49709.000000
20431.000000,11006.000000,10130.000000,49559.000000
20418.000000,11057.000000,10142.000000,49581.000000
20493.000000,11010.000000,10093.000000,49676.000000
20499.000000,10980.000000,10156.000000,49717.000000
20405.000000,11094.000000,10118.000000,49678.000000
20405.000000,10953.000000,10151.000000,49702.000000
20434.000000,11054.000000,10146.000000,49595.000000
20489.000000,11016.000000,10125.000000,49535.000000
20451.000000,11068.000000,10136.000000,49595.000000
20323.000000,11030.000000,10121.000000,49615.000000
20414.000000,11089.000000,10098.000000,49556.000000
20445.000000,11119.000000,10149.000000,49644.000000
20532.000000,10984.000000,10129.000000,49599.000000
20440.000000,11018.000000,10122.000000,49575.000000
20533.000000,11132.000000,10140.000000,49598.000000
20495.000000,11050.000000,10105.000000,49614.000000
20468.000000,11111.000000,10129.000000,49541.000000
20486.000000,11152.000000,10131.000000,49617.000000
20539.000000,11080.000000,10042.000000,49644.000000
20355.000000,11078.000000,10105.000000,49637.000000
20429.000000,11011.000000,10193.000000,49510.000000
20226.000000,10981.000000,10057.000000,49590.000000
20374.000000,10955.000000,10032.000000,49630.000000
20423.000000,11037.000000,10046.000000,49578.000000
20379.000000,10963.000000,10029.000000,49547.000000
20303.000000,10986.000000,10017.000000,49437.000000
20273.000000,10967.000000,9965.000000,49571.000000
20379.000000,10959.000000,10026.000000,49471.000000
20319.000000,10908.000000,10046.000000,49478.000000
20234.000000,10841.000000,10007.000000,49626.000000
20310.000000,10934.000000,9910.000000,49513.000000
20331.000000,10902.000000,9995.000000,49525.000000
20268.000000,10931.000000,9859.000000,49507.000000
20249.000000,10846.000000,9833.000000,49403.000000
20294.000000,10847.000000,9901.000000,49500.000000
20188.000000,10874.000000,10022.000000,49481.000000
20155.000000,10882.000000,9925.000000,49337.000000
20102.000000,10734.000000,9863.000000,49474.000000
20183.000000,10863.000000,9802.000000,49432.000000
20207.000000,10836.000000,9801.000000,49443.000000
20101.000000,10797.000000,9752.000000,49450.000000
20115.000000,10755.000000,9887.000000,49504.000000
20163.000000,10644.000000,9828.000000,49261.000000
20167.000000,10755.000000,9842.000000,49522.000000
20139.000000,10778.000000,9815.000000,49431.000000
20168.000000,10790.000000,9842.000000,49387.000000
20040.000000,10707.000000,9819.000000,49464.000000
20184.000000,10788.000000,9864.000000,49460.000000
20192.000000,10931.000000,9923.000000,49407.000000
20131.000000,10766.000000,9722.000000,49434.000000
20261.000000,10819.000000,9881.000000,49438.000000
20375.000000,10797.000000,9980.000000,49487.000000
20211.000000,10798.000000,10017.000000,49607.000000
20238.000000,10960.000000,10036.000000,49585.000000
20324.000000,10878.000000,10073.000000,49632.000000
20449.000000,10896.000000,10078.000000,49585.000000
20335.000000,10861.000000,9998.000000,49736.000000
20576.000000,10999.000000,10159.000000,49645.000000
20667.000000,11095.000000,10225.000000,49779.000000
20620.000000,11113.000000,10346.000000,49761.000000
20651.000000,11217.000000,10359.000000,49896.000000
20825.000000,11322.000000,10496.000000,49763.000000
20944.000000,11275.000000,10587.000000,49826.000000
21020.000000,11521.000000,10728.000000,50006.000000
21182.000000,11503.000000,10793.000000,50006.000000
21360.000000,11687.000000,10941.000000,50049.000000
21376.000000,11764.000000,11152.000000,50122.000000
21462.000000,11857.000000,11078.000000,50178.000000
21531.000000,11922.000000,11131.000000,50289.000000
21663.000000,12008.000000,11193.000000,50281.000000
21717.000000,11987.000000,11208.000000,50208.000000
21657.000000,12060.000000,11246.000000,50221.000000
21568.000000,11994.000000,11213.000000,50197.000000
21665.000000,12062.000000,11270.000000,50240.000000
21665.000000,12000.000000,11270.000000,50192.000000
21514.000000,12076.000000,11137.000000,50239.000000
21536.000000,11924.000000,11119.000000,50263.000000
21612.000000,11979.000000,11157.000000,50134.000000
21642.000000,11820.000000,11185.000000,50154.000000
21419.000000,11936.000000,11105.000000,50088.000000
21454.000000,11980.000000,10998.000000,49999.000000
21440.000000,11810.000000,11091.000000,50160.000000
21413.000000,11921.000000,11026.000000,50210.000000
21354.000000,11828.000000,10942.000000,50073.000000
21364.000000,11851.000000,10927.000000,50155.000000
21395.000000,11760.000000,11106.000000,50080.000000
21301.000000,11788.000000,10844.000000,49970.000000
21291.000000,11799.000000,10898.000000,50010.000000
21230.000000,11689.000000,10956.000000,50041.000000
21254.000000,11609.000000,10841.000000,50017.000000
21185.000000,11646.000000,10808.000000,50094.000000
21181.000000,11638.000000,10803.000000,49987.000000
21162.000000,11548.000000,10718.000000,49941.000000
21097.000000,11574.000000,10750.000000,49900.000000
21083.000000,11537.000000,10752.000000,49941.000000
20983.000000,11459.000000,10695.000000,49956.000000
21064.000000,11598.000000,10737.000000,49918.000000
21071.000000,11534.000000,10560.000000,49959.000000
21045.000000,11570.000000,10617.000000,49816.000000
20920.000000,11471.000000,10638.000000,49937.000000
20931.000000,11476.000000,10640.000000,49851.000000
20893.000000,11413.000000,10552.000000,49901.000000
20974.000000,11425.000000,10620.000000,49801.000000
20979.000000,11456.000000,10509.000000,49933.000000
20902.000000,11426.000000,10527.000000,49857.000000
20878.000000,11404.000000,10482.000000,49805.000000
20911.000000,11363.000000,10480.000000,49782.000000
20754.000000,11309.000000,10571.000000,49738.000000
20734.000000,11273.000000,10476.000000,49805.000000
20682.000000,11240.000000,10400.000000,49749.000000
20845.000000,11295.000000,10344.000000,49671.000000
20597.000000,11263.000000,10395.000000,49730.000000
20735.000000,11260.000000,10303.000000,49720.000000
20627.000000,11183.000000,10325.000000,49686.000000
20568.000000,11200.000000,10242.000000,49685.000000
20511.000000,11114.000000,10295.000000,49648.000000
20620.000000,11174.000000,10182.000000,49592.000000
20544.000000,11093.000000,10089.000000,49660.000000
20505.000000,11072.000000,10183.000000,49660.000000
20514.000000,11014.000000,10116.000000,49584.000000
20510.000000,11145.000000,10100.000000,49570.000000
20511.000000,11050.000000,10092.000000,49495.000000
20367.000000,11017.000000,10059.000000,49560.000000
20363.000000,11006.000000,10125.000000,49586.000000
20462.000000,11017.000000,10061.000000,49562.000000
20365.000000,10923.000000,10009.000000,49505.000000
20298.000000,10922.000000,10039.000000,49469.000000
20327.000000,10884.000000,9928.000000,49479.000000
20257.000000,10854.000000,9913.000000,49621.000000
20214.000000,10938.000000,9844.000000,49438.000000
20170.000000,10875.000000,9867.000000,49383.000000
20160.000000,10814.000000,9791.000000,49406.000000
20154.000000,10816.000000,9795.000000,49381.000000
20133.000000,10827.000000,9808.000000,49311.000000
19929.000000,10686.000000,9814.000000,49364.000000
20011.000000,10710.000000,9726.000000,49392.000000
19968.000000,10635.000000,9716.000000,49309.000000
20077.000000,10662.000000,9660.000000,49335.000000
19890.000000,10703.000000,9638.000000,49359.000000
19980.000000,10682.000000,9619.000000,49322.000000
19976.000000,10647.000000,9601.000000,49413.000000
19898.000000,10569.000000,9648.000000,49283.000000
19840.000000,10587.000000,9552.000000,49274.000000
19847.000000,10500.000000,9572.000000,49324.000000
19826.000000,10540.000000,9522.000000,49224.000000
19875.000000,10604.000000,9543.000000,49201.000000
19649.000000,10436.000000,9591.000000,49191.000000
19784.000000,10578.000000,9679.000000,49147.000000
19732.000000,10456.000000,9473.000000,49206.000000
19738.000000,10404.000000,9390.000000,49189.000000
19655.000000,10525.000000,9361.000000,49200.000000
19746.000000,10353.000000,9393.000000,49200.000000
19675.000000,10473.000000,9424.000000,49215.000000
19743.000000,10400.000000,9470.000000,49166.000000
19631.000000,10306.000000,9369.000000,49200.000000
19721.000000,10375.000000,9351.000000,49207.000000
19656.000000,10383.000000,9367.000000,49202.000000
19627.000000,10291.000000,9333.000000,49093.000000
19463.000000,10366.000000,9439.000000,49080.000000
19724.000000,10430.000000,9335.000000,49182.000000
19687.000000,10342.000000,9352.000000,49157.000000
19656.000000,10313.000000,9302.000000,49175.000000
19591.000000,10474.000000,9311.000000,49132.000000
19662.000000,10368.000000,9349.000000,49140.000000
19628.000000,10379.000000,9377.000000,49160.000000
19476.000000,10300.000000,9304.000000,49145.000000
19685.000000,10339.000000,9299.000000,49119.000000
19637.000000,10359.000000,9388.000000,49153.000000
19569.000000,10272.000000,9372.000000,49104.000000
19591.000000,10359.000000,9351.000000,49213.000000
19585.000000,10350.000000,9319.000000,49101.000000
19636.000000,10408.000000,9354.000000,49219.000000
19627.000000,10410.000000,9317.000000,49103.000000
19667.000000,10408.000000,9237.000000,49119.000000
19534.000000,10343.000000,9256.000000,49106.000000
19669.000000,10303.000000,9429.000000,49030.000000
19609.000000,10340.000000,9293.000000,49099.000000
19443.000000,10192.000000,9298.000000,49174.000000
19552.000000,10249.000000,9224.000000,49054.000000
19569.000000,10220.000000,9193.000000,49006.000000
19444.000000,10255.000000,9168.000000,49057.000000
19412.000000,10230.000000,9108.000000,49095.000000
19448.000000,10246.000000,9136.000000,49039.000000
19356.000000,10163.000000,9173.000000,49053.000000
19424.000000,10212.000000,9102.000000,49024.000000
19353.000000,10145.000000,9067.000000,48948.000000
19303.000000,10250.000000,8995.000000,48964.000000
19416.000000,10078.000000,9012.000000,48973.000000
19351.000000,10118.000000,9020.000000,49010.000000
19162.000000,10102.000000,9074.000000,48877.000000
19381.000000,10098.000000,9177.000000,48963.000000
19285.000000,10085.000000,9009.000000,49032.000000
19290.000000,10049.000000,9063.000000,49006.000000
19321.000000,10165.000000,9174.000000,49009.000000
19405.000000,10031.000000,8883.000000,48978.000000
19437.000000,10112.000000,9007.000000,49084.000000
19271.000000,10065.000000,9012.000000,48970.000000
19248.000000,9989.000000,9109.000000,49044.000000
19380.000000,10234.000000,9018.000000,49026.000000
19369.000000,10134.000000,9038.000000,48995.000000
19292.000000,10115.000000,9197.000000,48941.000000
19280.000000,9971.000000,9146.000000,49074.000000
19413.000000,10145.000000,9087.000000,48972.000000
19406.000000,10153.000000,9113.000000,49039.000000
19360.000000,10153.000000,9135.000000,49025.000000
19375.000000,10191.000000,9200.000000,49054.000000
19463.000000,10182.000000,9258.000000,49101.000000
19434.000000,10232.000000,9164.000000,49089.000000
19431.000000,10267.000000,9195.000000,49134.000000
19586.000000,10235.000000,9286.000000,49139.000000
19598.000000,10226.000000,9272.000000,49137.000000
19685.000000,10305.000000,9350.000000,49243.000000
19634.000000,10344.000000,9488.000000,49181.000000
19770.000000,10408.000000,9436.000000,49227.000000
19833.000000,10390.000000,9550.000000,49340.000000
19985.000000,10465.000000,9635.000000,49202.000000
19940.000000,10594.000000,9622.000000,49397.000000
20135.000000,10723.000000,9798.000000,49451.000000
20289.000000,10746.000000,9853.000000,49548.000000
20344.000000,10874.000000,9986.000000,49520.000000
20288.000000,11030.000000,10014.000000,49666.000000
20469.000000,11018.000000,10102.000000,49645.000000
20573.000000,11142.000000,10308.000000,49731.000000
20788.000000,11197.000000,10290.000000,49805.000000
20907.000000,11309.000000,10521.000000,49866.000000
20960.000000,11409.000000,10497.000000,49851.000000
21056.000000,11459.000000,10658.000000,49854.000000
21128.000000,11598.000000,10717.000000,49972.000000
21122.000000,11493.000000,10708.000000,49911.000000
21296.000000,11558.000000,10653.000000,50032.000000
21207.000000,11612.000000,10756.000000,49932.000000
21200.000000,11557.000000,10685.000000,49979.000000
21172.000000,11589.000000,10775.000000,50075.000000
21227.000000,11596.000000,10772.000000,49968.000000
21229.000000,11562.000000,10725.000000,49915.000000
21102.000000,11647.000000,10627.000000,49895.000000
21093.000000,11491.000000,10593.000000,49960.000000
21057.000000,11497.000000,10723.000000,49966.000000
21081.000000,11494.000000,10679.000000,49882.000000
21069.000000,11454.000000,10661.000000,49954.000000
21034.000000,11383.000000,10647.000000,49926.000000
21004.000000,11460.000000,10601.000000,49843.000000
20989.000000,11430.000000,10490.000000,49864.000000
20959.000000,11341.000000,10514.000000,49938.000000
20907.000000,11359.000000,10435.000000,49895.000000
20942.000000,11290.000000,10464.000000,49922.000000
20910.000000,11337.000000,10433.000000,49819.000000
20869.000000,11269.000000,10337.000000,49777.000000
20626.000000,11204.000000,10413.000000,49733.000000
20793.000000,11156.000000,10458.000000,49748.000000
20805.000000,11216.000000,10388.000000,49814.000000
20820.000000,11254.000000,10418.000000,49718.000000
20655.000000,11149.000000,10332.000000,49840.000000
20676.000000,11282.000000,10317.000000,49740.000000
20716.000000,11288.000000,10270.000000,49704.000000
20660.000000,11089.000000,10260.000000,49698.000000
20625.000000,11146.000000,10301.000000,49607.000000
20625.000000,11166.000000,10242.000000,49622.000000
20565.000000,11142.000000,10146.000000,49662.000000
20571.000000,11028.000000,10251.000000,49635.000000
20522.000000,11045.000000,10187.000000,49630.000000
20419.000000,11043.000000,10136.000000,49594.000000
20532.000000,11061.000000,10125.000000,49627.000000
20402.000000,11039.000000,10205.000000,49623.000000
20577.000000,11006.000000,10079.000000,49615.000000
20501.000000,11051.000000,10063.000000,49614.000000
20435.000000,11064.000000,10061.000000,49549.000000
20227.000000,10899.000000,10084.000000,49574.000000
20415.000000,10966.000000,9987.000000,49525.000000
20356.000000,10861.000000,10092.000000,49613.000000
20365.000000,10918.000000,10011.000000,49555.000000
20312.000000,10910.000000,9994.000000,49509.000000
20368.000000,10938.000000,9915.000000,49454.000000
20313.000000,10890.000000,9921.000000,49488.000000
20353.000000,10913.000000,9910.000000,49444.000000
20170.000000,10830.000000,9879.000000,49539.000000
20216.000000,10802.000000,9938.000000,49385.000000
20099.000000,10813.000000,9851.000000,49354.000000
20181.000000,10741.000000,9852.000000,49484.000000
20186.000000,10667.000000,9765.000000,49415.000000
20154.000000,10785.000000,9769.000000,49390.000000
20129.000000,10678.000000,9815.000000,49440.000000
20071.000000,10716.000000,9693.000000,49390.000000
20025.000000,10617.000000,9605.000000,49353.000000
20066.000000,10708.000000,9755.000000,49315.000000
20049.000000,10668.000000,9690.000000,49344.000000
19931.000000,10581.000000,9670.000000,49340.000000
19872.000000,10635.000000,9645.000000,49300.000000
19904.000000,10674.000000,9538.000000,49488.000000
19985.000000,10637.000000,9569.000000,49295.000000
19745.000000,10528.000000,9494.000000,49317.000000
19778.000000,10546.000000,9591.000000,49239.000000
19873.000000,10485.000000,9491.000000,49274.000000
19771.000000,10456.000000,9440.000000,49218.000000
19738.000000,10382.000000,9449.000000,49204.000000
19760.000000,10427.000000,9346.000000,49301.000000
19757.000000,10376.000000,9456.000000,49091.000000
19744.000000,10383.000000,9368.000000,49175.000000
19631.000000,10390.000000,9322.000000,49147.000000
19645.000000,10278.000000,9377.000000,49135.000000
19718.000000,10307.000000,9232.000000,49135.000000
19628.000000,10254.000000,9317.000000,49156.000000
19481.000000,10209.000000,9293.000000,49105.000000
19529.000000,10208.000000,9067.000000,49136.000000
19602.000000,10277.000000,9285.000000,49055.000000
19597.000000,10248.000000,9195.000000,49055.000000
19400.000000,10226.000000,9156.000000,49052.000000
19450.000000,10206.000000,9179.000000,49038.000000
19311.000000,10159.000000,9177.000000,49085.000000
19371.000000,10163.000000,9126.000000,49051.000000
19432.000000,10093.000000,9127.000000,49055.000000
19452.000000,10142.000000,9157.000000,49038.000000
19339.000000,10159.000000,9141.000000,49107.000000
19361.000000,10161.000000,9184.000000,49075.000000
19256.000000,10002.000000,9013.000000,49018.000000
19281.000000,10040.000000,8990.000000,48990.000000
19369.000000,10144.000000,8976.000000,49063.000000
19272.000000,10080.000000,8990.000000,48993.000000
19299.000000,10062.000000,9077.000000,49003.000000
19368.000000,10026.000000,9096.000000,48907.000000
19346.000000,10033.000000,9096.000000,49061.000000
19378.000000,10036.000000,9013.000000,49004.000000
19190.000000,9933.000000,8908.000000,48999.000000
19391.000000,10077.000000,8936.000000,48969.000000
19420.000000,10062.000000,9001.000000,49048.000000
19329.000000,10039.000000,9010.000000,48975.000000
19302.000000,10077.000000,8926.000000,48827.000000
19335.000000,10080.000000,9048.000000,48989.000000
19303.000000,9974.000000,9011.000000,48998.000000
19187.000000,10066.000000,9036.000000,48957.000000
19321.000000,9977.000000,8957.000000,48941.000000
19271.000000,10119.000000,8971.000000,48876.000000
19277.000000,9991.000000,8908.000000,48963.000000
19192.000000,9989.000000,8971.000000,48902.000000
19184.000000,9939.000000,8900.000000,48948.000000
19168.000000,9969.000000,8914.000000,48980.000000
19115.000000,9988.000000,8832.000000,48839.000000
19087.000000,9961.000000,8801.000000,48841.000000
19091.000000,9862.000000,8804.000000,48868.000000
19092.000000,9909.000000,8809.000000,48871.000000
19064.000000,9901.000000,8793.000000,48844.000000
18913.000000,9755.000000,8773.000000,48808.000000
19013.000000,9793.000000,8743.000000,48821.000000
19062.000000,9828.000000,8605.000000,48798.000000
18972.000000,9784.000000,8664.000000,48744.000000
18888.000000,9765.000000,8664.000000,48755.000000
18878.000000,9733.000000,8573.000000,48699.000000
18918.000000,9687.000000,8691.000000,48785.000000
18850.000000,9652.000000,8592.000000,48691.000000
18843.000000,9772.000000,8510.000000,48653.000000
18851.000000,9689.000000,8570.000000,48645.000000
18930.000000,9703.000000,8576.000000,48645.000000
18872.000000,9707.000000,8570.000000,48767.000000
18786.000000,9699.000000,8511.000000,48641.000000
18793.000000,9672.000000,8562.000000,48723.000000
18786.000000,9671.000000,8551.000000,48870.000000
18798.000000,9762.000000,8602.000000,48731.000000
18824.000000,9671.000000,8454.000000,48621.000000
18856.000000,9647.000000,8586.000000,48651.000000
18742.000000,9597.000000,8493.000000,48731.000000
18756.000000,9648.000000,8565.000000,48640.000000
18718.000000,9576.000000,8498.000000,48758.000000
18769.000000,9632.000000,8509.000000,48797.000000
18880.000000,9640.000000,8651.000000,48616.000000
18910.000000,9631.000000,8664.000000,48716.000000
18912.000000,9595.000000,8613.000000,48747.000000
18968.000000,9707.000000,8567.000000,48767.000000
18971.000000,9709.000000,8714.000000,48876.000000
18996.000000,9888.000000,8763.000000,48815.000000
19126.000000,9827.000000,8713.000000,48748.000000
19239.000000,9894.000000,8974.000000,48864.000000
19188.000000,9963.000000,8930.000000,48950.000000
19210.000000,10015.000000,9025.000000,49010.000000
19289.000000,10001.000000,9094.000000,49008.000000
19442.000000,10174.000000,9202.000000,49083.000000
19618.000000,10297.000000,9307.000000,49163.000000
19655.000000,10340.000000,9336.000000,49149.000000
19608.000000,10302.000000,9496.000000,49349.000000
19908.000000,10394.000000,9577.000000,49348.000000
19986.000000,10520.000000,9653.000000,49483.000000
19907.000000,10629.000000,9731.000000,49490.000000
20213.000000,10728.000000,9889.000000,49555.000000
20391.000000,10801.000000,9934.000000,49601.000000
20435.000000,10979.000000,9934.000000,49624.000000
20438.000000,11040.000000,10161.000000,49598.000000
20597.000000,11030.000000,10206.000000,49672.000000
20776.000000,11139.000000,10218.000000,49705.000000
20730.000000,11231.000000,10369.000000,49722.000000
20724.000000,11147.000000,10211.000000,49823.000000
20785.000000,11329.000000,10341.000000,49795.000000
20817.000000,11207.000000,10431.000000,49892.000000
20738.000000,11267.000000,10331.000000,49831.000000
20654.000000,11204.000000,10253.000000,49734.000000
20794.000000,11184.000000,10268.000000,49771.000000
20657.000000,11145.000000,10276.000000,49823.000000
20760.000000,11175.000000,10339.000000,49737.000000
20722.000000,11035.000000,10279.000000,49778.000000
20717.000000,11214.000000,10276.000000,49643.000000
20671.000000,11152.000000,10256.000000,49594.000000
20627.000000,11071.000000,10303.000000,49713.000000
20559.000000,11043.000000,10214.000000,49672.000000
20581.000000,11019.000000,10163.000000,49611.000000
20712.000000,10998.000000,10213.000000,49595.000000
20562.000000,11023.000000,10118.000000,49689.000000
20384.000000,11023.000000,10128.000000,49624.000000
20528.000000,10975.000000,10125.000000,49636.000000
20509.000000,10967.000000,10110.000000,49672.000000
20439.000000,11110.000000,10049.000000,49580.000000
20434.000000,10979.000000,10044.000000,49560.000000
20387.000000,10978.000000,10043.000000,49705.000000
20434.000000,10858.000000,10033.000000,49508.000000
20357.000000,10976.000000,9960.000000,49717.000000
20297.000000,10874.000000,10073.000000,49563.000000
20464.000000,10918.000000,9926.000000,49498.000000
20362.000000,10881.000000,9893.000000,49629.000000
20238.000000,10863.000000,9891.000000,49584.000000
20335.000000,10895.000000,9903.000000,49599.000000
20394.000000,10875.000000,9932.000000,49495.000000
20371.000000,10830.000000,9881.000000,49513.000000
20276.000000,10842.000000,9913.000000,49491.000000
20282.000000,10897.000000,9862.000000,49462.000000
20215.000000,10795.000000,9839.000000,49519.000000
20296.000000,10833.000000,9788.000000,49445.000000
20191.000000,10837.000000,9742.000000,49504.000000
20308.000000,10744.000000,9726.000000,49465.000000
20291.000000,10812.000000,9845.000000,49484.000000
20245.000000,10807.000000,9750.000000,49415.000000
20111.000000,10727.000000,9762.000000,49419.000000
20122.000000,10770.000000,9722.000000,49382.000000
20178.000000,10699.000000,9781.000000,49447.000000
20205.000000,10698.000000,9681.000000,49429.000000
20005.000000,10621.000000,9624.000000,49469.000000
20115.000000,10677.000000,9685.000000,49465.000000
20184.000000,10720.000000,9755.000000,49268.000000
20088.000000,10665.000000,9694.000000,49409.000000
20011.000000,10582.000000,9618.000000,49289.000000
20081.000000,10608.000000,9630.000000,49381.000000
20029.000000,10565.000000,9709.000000,49283.000000
20012.000000,10585.000000,9516.000000,49406.000000
19812.000000,10492.000000,9558.000000,49299.000000
19931.000000,10517.000000,9517.000000,49304.000000
19953.000000,10555.000000,9475.000000,49229.000000
19821.000000,10478.000000,9539.000000,49315.000000
19843.000000,10337.000000,9456.000000,49288.000000
19866.000000,10412.000000,9458.000000,49272.000000
19714.000000,10419.000000,9395.000000,49216.000000
19740.000000,10278.000000,9387.000000,49245.000000
19687.000000,10334.000000,9320.000000,49113.000000
19774.000000,10277.000000,9370.000000,49255.000000
19674.000000,10344.000000,9275.000000,49155.000000
19685.000000,10302.000000,9231.000000,49096.000000
19538.000000,10284.000000,9188.000000,49149.000000
19584.000000,10319.000000,9295.000000,49137.000000
19594.000000,10233.000000,9141.000000,49132.000000
19501.000000,10165.000000,9230.000000,49119.000000
19445.000000,10114.000000,9155.000000,49069.000000
19564.000000,10306.000000,9143.000000,49111.000000
19434.000000,10142.000000,9103.000000,49041.000000
19387.000000,10185.000000,9182.000000,49144.000000
19444.000000,10053.000000,9044.000000,48988.000000
19446.000000,10081.000000,8998.000000,49000.000000
19411.000000,10119.000000,9054.000000,49107.000000
19304.000000,10066.000000,9043.000000,48987.000000
19319.000000,10032.000000,8957.000000,48977.000000
19418.000000,10112.000000,9008.000000,48969.000000
19319.000000,10042.000000,8982.000000,48989.000000
19264.000000,10023.000000,8996.000000,48996.000000
19198.000000,9977.000000,8917.000000,48953.000000
19323.000000,10032.000000,8984.000000,48968.000000
19192.000000,9886.000000,8829.000000,48911.000000
19124.000000,9948.000000,8847.000000,48916.000000
19251.000000,9878.000000,8850.000000,48869.000000
19181.000000,9938.000000,8895.000000,48948.000000
19192.000000,9946.000000,8905.000000,48870.000000
19185.000000,9816.000000,8854.000000,48948.000000
19172.000000,9900.000000,8864.000000,48873.000000
19201.000000,9890.000000,8754.000000,48914.000000
19172.000000,9948.000000,8859.000000,48853.000000
19071.000000,9860.000000,8953.000000,48908.000000
19208.000000,9891.000000,8861.000000,48908.000000
19320.000000,9904.000000,8920.000000,48927.000000
19229.000000,9846.000000,8775.000000,48956.000000
19211.000000,9855.000000,8864.000000,48973.000000
19248.000000,9998.000000,8906.000000,48890.000000
19136.000000,9950.000000,8901.000000,48897.000000
19169.000000,9955.000000,8897.000000,48938.000000
19157.000000,9875.000000,8851.000000,48884.000000
19210.000000,9902.000000,8996.000000,48962.000000
19157.000000,9887.000000,8869.000000,48937.000000
19204.000000,9893.000000,8798.000000,48981.000000
19222.000000,9879.000000,8854.000000,48958.000000
19275.000000,9920.000000,8706.000000,48883.000000
19216.000000,9934.000000,8879.000000,48923.000000
19109.000000,9908.000000,8774.000000,48870.000000
19136.000000,9928.000000,8870.000000,48942.000000
19150.000000,9846.000000,8718.000000,48797.000000
19010.000000,9844.000000,8772.000000,48868.000000
19008.000000,9755.000000,8759.000000,48859.000000
18869.000000,9739.000000,8636.000000,48905.000000
19059.000000,9708.000000,8764.000000,48862.000000
18931.000000,9723.000000,8687.000000,48768.000000
18932.000000,9684.000000,8761.000000,48785.000000
18963.000000,9700.000000,8603.000000,48723.000000
18989.000000,9679.000000,8650.000000,48731.000000
18955.000000,9641.000000,8702.000000,48753.000000
18864.000000,9624.000000,8573.000000,48707.000000
18867.000000,9640.000000,8604.000000,48745.000000
18926.000000,9701.000000,8569.000000,48773.000000
18838.000000,9727.000000,8585.000000,48833.000000
18823.000000,9715.000000,8512.000000,48716.000000
18920.000000,9614.000000,8516.000000,48682.000000
18858.000000,9648.000000,8589.000000,48782.000000
18832.000000,9610.000000,8612.000000,48768.000000
18867.000000,9607.000000,8598.000000,48755.000000
18897.000000,9573.000000,8488.000000,48807.000000
18909.000000,9620.000000,8557.000000,48822.000000
18902.000000,9712.000000,8572.000000,48740.000000
18816.000000,9687.000000,8547.000000,48810.000000
18960.000000,9725.000000,8655.000000,48856.000000
18995.000000,9736.000000,8616.000000,48918.000000
19045.000000,9741.000000,8723.000000,48875.000000
18967.000000,9771.000000,8717.000000,48859.000000
19150.000000,9834.000000,8753.000000,48902.000000
19214.000000,9837.000000,8813.000000,48852.000000
19195.000000,9901.000000,8928.000000,48893.000000
19174.000000,9809.000000,8883.000000,48931.000000
19280.000000,9970.000000,8946.000000,48998.000000
19300.000000,10081.000000,9071.000000,49068.000000
19508.000000,10074.000000,9154.000000,49160.000000
19436.000000,10093.000000,9221.000000,49174.000000
19598.000000,10238.000000,9277.000000,49209.000000
19751.000000,10349.000000,9441.000000,49283.000000
19811.000000,10434.000000,9433.000000,49281.000000
19888.000000,10421.000000,9505.000000,49299.000000
20075.000000,10565.000000,9753.000000,49487.000000
20183.000000,10561.000000,9848.000000,49532.000000
20291.000000,10694.000000,9902.000000,49530.000000
20302.000000,10752.000000,10007.000000,49683.000000
20477.000000,10900.000000,10119.000000,49687.000000
20606.000000,10931.000000,10223.000000,49733.000000
20725.000000,11031.000000,10289.000000,49807.000000
20713.000000,11107.000000,10309.000000,49851.000000
20938.000000,11182.000000,10459.000000,49955.000000
20855.000000,11229.000000,10497.000000,49895.000000
20952.000000,11309.000000,10615.000000,49983.000000
20981.000000,11297.000000,10506.000000,49967.000000
21091.000000,11403.000000,10625.000000,50026.000000
21053.000000,11418.000000,10605.000000,50031.000000
21051.000000,11394.000000,10619.000000,49944.000000
21031.000000,11470.000000,10526.000000,49891.000000
21059.000000,11392.000000,10631.000000,49971.000000
21130.000000,11424.000000,10567.000000,50002.000000
21086.000000,11417.000000,10638.000000,49884.000000
21021.000000,11292.000000,10501.000000,49863.000000
21050.000000,11410.000000,10585.000000,50005.000000
21105.000000,11362.000000,10486.000000,49897.000000
20928.000000,11230.000000,10499.000000,49966.000000
21082.000000,11282.000000,10546.000000,49959.000000
20959.000000,11308.000000,10470.000000,49873.000000
20932.000000,11358.000000,10468.000000,49849.000000
20892.000000,11368.000000,10506.000000,49938.000000
20873.000000,11215.000000,10519.000000,49871.000000
20852.000000,11280.000000,10499.000000,49912.000000
20911.000000,11204.000000,10433.000000,49939.000000
20903.000000,11222.000000,10349.000000,49817.000000
20889.000000,11249.000000,10390.000000,49782.000000
20809.000000,11198.000000,10349.000000,49900.000000
20764.000000,11207.000000,10413.000000,49848.000000
20712.000000,11240.000000,10358.000000,49847.000000
20791.000000,11114.000000,10331.000000,49823.000000
20845.000000,11184.000000,10400.000000,49755.000000
20793.000000,11093.000000,10267.000000,49803.000000
20677.000000,11100.000000,10274.000000,49793.000000
20715.000000,11167.000000,10314.000000,49753.000000
20707.000000,11089.000000,10228.000000,49831.000000
20670.000000,11081.000000,10247.000000,49831.000000
20554.000000,11120.000000,10205.000000,49732.000000
20676.000000,11046.000000,10279.000000,49817.000000
20649.000000,11163.000000,10309.000000,49758.000000
20634.000000,11035.000000,10284.000000,49744.000000
20508.000000,10989.000000,10166.000000,49579.000000
20674.000000,11029.000000,10274.000000,49736.000000
20650.000000,10975.000000,10217.000000,49713.000000
20705.000000,11109.000000,10229.000000,49668.000000
20518.000000,10993.000000,10197.000000,49619.000000
20563.000000,10991.000000,10150.000000,49609.000000
20552.000000,11048.000000,10097.000000,49667.000000
20568.000000,10946.000000,10101.000000,49678.000000
20470.000000,10953.000000,10211.000000,49675.000000
20550.000000,10921.000000,10047.000000,49662.000000
20568.000000,10947.000000,10086.000000,49735.000000
20484.000000,10931.000000,10031.000000,49608.000000
20501.000000,10939.000000,10129.000000,49673.000000
20446.000000,11033.000000,10069.000000,49714.000000
20438.000000,10837.000000,10073.000000,49598.000000
20343.000000,10880.000000,9952.000000,49550.000000
20291.000000,10786.000000,9939.000000,49534.000000
20403.000000,10893.000000,10008.000000,49594.000000
20360.000000,10857.000000,9950.000000,49513.000000
20294.000000,10744.000000,9806.000000,49496.000000
20294.000000,10820.000000,9887.000000,49584.000000
20289.000000,10770.000000,9860.000000,49540.000000
20315.000000,10747.000000,9823.000000,49472.000000
20092.000000,10712.000000,9875.000000,49458.000000
20178.000000,10713.000000,9839.000000,49499.000000
20217.000000,10722.000000,9895.000000,49444.000000
20162.000000,10633.000000,9865.000000,49546.000000
20070.000000,10608.000000,9701.000000,49477.000000
20107.000000,10626.000000,9772.000000,49469.000000
20182.000000,10727.000000,9700.000000,49383.000000
20102.000000,10649.000000,9690.000000,49468.000000
19943.000000,10568.000000,9699.000000,49463.000000
20016.000000,10646.000000,9704.000000,49393.000000
20034.000000,10588.000000,9655.000000,49395.000000
19988.000000,10543.000000,9672.000000,49461.000000
19958.000000,10623.000000,9593.000000,49364.000000
20013.000000,10528.000000,9629.000000,49364.000000
20044.000000,10515.000000,9607.000000,49301.000000
19939.000000,10517.000000,9594.000000,49374.000000
19851.000000,10539.000000,9747.000000,49365.000000
20006.000000,10495.000000,9649.000000,49477.000000
19924.000000,10464.000000,9509.000000,49386.000000
19984.000000,10579.000000,9545.000000,49274.000000
19858.000000,10501.000000,9593.000000,49348.000000
19965.000000,10479.000000,9537.000000,49360.000000
19875.000000,10472.000000,9553.000000,49355.000000
19852.000000,10498.000000,9670.000000,49355.000000
19973.000000,10351.000000,9532.000000,49490.000000
19911.000000,10498.000000,9563.000000,49374.000000
19911.000000,10459.000000,9651.000000,49361.000000
19882.000000,10432.000000,9573.000000,49457.000000
19860.000000,10361.000000,9559.000000,49363.000000
20026.000000,10421.000000,9567.000000,49374.000000
19971.000000,10522.000000,9525.000000,49406.000000
19926.000000,10456.000000,9590.000000,49416.000000
19935.000000,10461.000000,9679.000000,49314.000000
20013.000000,10529.000000,9724.000000,49415.000000
20020.000000,10503.000000,9641.000000,49302.000000
19844.000000,10495.000000,9643.000000,49329.000000
19956.000000,10404.000000,9582.000000,49350.000000
19965.000000,10527.000000,9567.000000,49352.000000
19939.000000,10507.000000,9554.000000,49391.000000
19894.000000,10448.000000,9547.000000,49359.000000
19910.000000,10488.000000,9627.000000,49310.000000
19900.000000,10469.000000,9656.000000,49367.000000
19913.000000,10468.000000,9557.000000,49324.000000
19749.000000,10375.000000,9555.000000,49258.000000
19807.000000,10255.000000,9450.000000,49266.000000
19816.000000,10395.000000,9340.000000,49235.000000
19737.000000,10368.000000,9451.000000,49297.000000
19774.000000,10320.000000,9440.000000,49268.000000
19787.000000,10321.000000,9411.000000,49248.000000
19606.000000,10302.000000,9482.000000,49227.000000
19702.000000,10280.000000,9347.000000,49263.000000
19600.000000,10198.000000,9277.000000,49170.000000
19646.000000,10305.000000,9320.000000,49226.000000
19736.000000,10263.000000,9308.000000,49183.000000
19559.000000,10280.000000,9380.000000,49210.000000
19557.000000,10230.000000,9137.000000,49243.000000
19629.000000,10239.000000,9324.000000,49191.000000
19606.000000,10226.000000,9246.000000,49287.000000
19526.000000,10152.000000,9273.000000,49123.000000
19507.000000,10190.000000,9215.000000,49191.000000
19632.000000,10132.000000,9268.000000,49146.000000
19531.000000,10256.000000,9315.000000,49151.000000
19496.000000,10101.000000,9231.000000,49122.000000
19443.000000,10065.000000,9248.000000,49137.000000
19525.000000,10219.000000,9206.000000,49069.000000
19453.000000,10205.000000,9271.000000,49165.000000
19479.000000,10051.000000,9158.000000,49163.000000
19397.000000,10056.000000,9125.000000,49158.000000
19492.000000,10183.000000,9165.000000,49265.000000
19451.000000,10143.000000,9170.000000,49169.000000
19501.000000,10077.000000,9239.000000,49225.000000
19490.000000,10155.000000,9322.000000,49159.000000
19553.000000,10178.000000,9233.000000,49130.000000
19606.000000,10146.000000,9151.000000,49225.000000
19521.000000,10122.000000,9354.000000,49154.000000
19631.000000,10219.000000,9248.000000,49274.000000
19708.000000,10242.000000,9338.000000,49226.000000
19760.000000,10333.000000,9489.000000,49279.000000
19771.000000,10331.000000,9438.000000,49278.000000
19876.000000,10352.000000,9469.000000,49387.000000
20000.000000,10476.000000,9554.000000,49419.000000
19995.000000,10547.000000,9679.000000,49398.000000
19961.000000,10501.000000,9745.000000,49480.000000
20089.000000,10627.000000,9873.000000,49611.000000
20361.000000,10780.000000,9914.000000,49474.000000
20375.000000,10812.000000,9972.000000,49623.000000
20408.000000,10845.000000,10140.000000,49695.000000
20548.000000,10932.000000,10259.000000,49707.000000
20779.000000,11097.000000,10325.000000,49714.000000
20815.000000,11166.000000,10423.000000,49886.000000
20848.000000,11053.000000,10538.000000,49951.000000
21025.000000,11269.000000,10490.000000,49913.000000
21107.000000,11365.000000,10693.000000,49977.000000
21053.000000,11459.000000,10690.000000,50035.000000
21053.000000,11393.000000,10700.000000,50035.000000
21111.000000,11510.000000,10660.000000,49962.000000
21151.000000,11368.000000,10625.000000,49970.000000
21054.000000,11468.000000,10650.000000,50097.000000
21024.000000,11427.000000,10598.000000,49978.000000
21091.000000,11416.000000,10642.000000,50078.000000
21040.000000,11407.000000,10594.000000,49903.000000
20993.000000,11401.000000,10529.000000,49899.000000
20924.000000,11269.000000,10487.000000,49951.000000
20944.000000,11350.000000,10546.000000,49885.000000
20972.000000,11327.000000,10391.000000,49928.000000
20890.000000,11378.000000,10521.000000,49980.000000
20808.000000,11094.000000,10408.000000,49821.000000
20806.000000,11241.000000,10460.000000,49867.000000
20807.000000,11183.000000,10397.000000,49823.000000
20706.000000,11131.000000,10377.000000,49812.000000
20727.000000,10988.000000,10283.000000,49926.000000
20731.000000,11091.000000,10232.000000,49812.000000
20692.000000,11018.000000,10191.000000,49825.000000
20597.000000,11062.000000,10165.000000,49732.000000
20558.000000,10968.000000,10125.000000,49765.000000
20632.000000,10946.000000,10149.000000,49733.000000
20587.000000,11051.000000,10184.000000,49628.000000
20533.000000,10984.000000,10084.000000,49801.000000
20464.000000,10929.000000,9969.000000,49723.000000
20443.000000,10972.000000,9990.000000,49663.000000
20460.000000,10903.000000,9915.000000,49621.000000
20509.000000,10801.000000,9994.000000,49546.000000
20448.000000,10807.000000,9880.000000,49609.000000
20408.000000,10959.000000,10094.000000,49557.000000
20346.000000,10878.000000,9940.000000,49645.000000
20396.000000,10787.000000,9874.000000,49518.000000
20286.000000,10742.000000,9916.000000,49597.000000
20280.000000,10795.000000,9914.000000,49597.000000
20287.000000,10782.000000,9819.000000,49513.000000
20166.000000,10691.000000,9782.000000,49533.000000
20203.000000,10692.000000,9839.000000,49450.000000
20322.000000,10710.000000,9790.000000,49578.000000
20186.000000,10633.000000,9743.000000,49491.000000
19968.000000,10503.000000,9691.000000,49465.000000
20084.000000,10610.000000,9748.000000,49422.000000
20113.000000,10661.000000,9707.000000,49423.000000
20019.000000,10555.000000,9652.000000,49417.000000
19985.000000,10511.000000,9611.000000,49478.000000
19986.000000,10534.000000,9631.000000,49342.000000
19911.000000,10544.000000,9593.000000,49319.000000
19887.000000,10449.000000,9569.000000,49358.000000
19927.000000,10452.000000,9495.000000,49326.000000
19896.000000,10388.000000,9391.000000,49307.000000
19862.000000,10302.000000,9440.000000,49192.000000
19915.000000,10385.000000,9339.000000,49167.000000
19681.000000,10336.000000,9463.000000,49237.000000
19802.000000,10327.000000,9288.000000,49252.000000
19729.000000,10231.000000,9327.000000,49220.000000
19665.000000,10305.000000,9148.000000,49159.000000
19623.000000,10148.000000,9152.000000,49154.000000
19670.000000,10173.000000,9188.000000,49257.000000
19591.000000,10128.000000,9063.000000,49056.000000
19485.000000,10098.000000,9179.000000,49052.000000
19343.000000,10103.000000,9053.000000,49068.000000
19442.000000,10055.000000,9020.000000,49075.000000
19532.000000,10046.000000,8945.000000,49047.000000
19339.000000,10011.000000,8995.000000,49080.000000
19237.000000,9838.000000,8825.000000,49021.000000
19350.000000,9987.000000,8908.000000,48939.000000
19376.000000,10069.000000,8786.000000,49006.000000
19129.000000,9920.000000,8857.000000,48963.000000
19150.000000,9817.000000,8749.000000,48892.000000
19254.000000,9921.000000,8762.000000,48955.000000
19204.000000,9832.000000,8799.000000,48944.000000
19056.000000,9737.000000,8727.000000,48810.000000
19057.000000,9691.000000,8665.000000,48728.000000
19126.000000,9728.000000,8679.000000,48940.000000
19073.000000,9695.000000,8593.000000,48846.000000
18954.000000,9601.000000,8557.000000,48796.000000
18938.000000,9723.000000,8619.000000,48859.000000
19004.000000,9553.000000,8520.000000,48853.000000
18926.000000,9654.000000,8592.000000,48798.000000
18762.000000,9551.000000,8565.000000,48858.000000
18925.000000,9514.000000,8535.000000,48752.000000
18896.000000,9496.000000,8520.000000,48727.000000
18893.000000,9599.000000,8526.000000,48636.000000
18848.000000,9541.000000,8537.000000,48814.000000
18873.000000,9582.000000,8504.000000,48714.000000
18825.000000,9516.000000,8466.000000,48799.000000
18813.000000,9558.000000,8398.000000,48771.000000
18761.000000,9451.000000,8454.000000,48801.000000
18967.000000,9612.000000,8419.000000,48787.000000
18880.000000,9580.000000,8490.000000,48662.000000
18887.000000,9620.000000,8473.000000,48756.000000
18858.000000,9498.000000,8480.000000,48762.000000
18876.000000,9508.000000,8581.000000,48707.000000
18895.000000,9525.000000,8486.000000,48732.000000
18872.000000,9673.000000,8580.000000,48757.000000
18862.000000,9460.000000,8459.000000,48744.000000
18993.000000,9642.000000,8502.000000,48809.000000
18934.000000,9577.000000,8499.000000,48812.000000
18905.000000,9603.000000,8492.000000,48769.000000
18827.000000,9613.000000,8518.000000,48750.000000
18929.000000,9565.000000,8452.000000,48690.000000
19000.000000,9644.000000,8535.000000,48793.000000
18863.000000,9649.000000,8523.000000,48749.000000
18772.000000,9571.000000,8498.000000,48761.000000
18963.000000,9508.000000,8510.000000,48772.000000
18921.000000,9581.000000,8513.000000,48772.000000
18972.000000,9574.000000,8525.000000,48751.000000
18875.000000,9530.000000,8399.000000,48769.000000
18909.000000,9589.000000,8432.000000,48665.000000
18887.000000,9536.000000,8467.000000,48775.000000
18824.000000,9523.000000,8392.000000,48771.000000
18773.000000,9479.000000,8362.000000,48689.000000
18817.000000,9461.000000,8397.000000,48653.000000
18807.000000,9446.000000,8418.000000,48680.000000
18699.000000,9418.000000,8388.000000,48662.000000
18684.000000,9514.000000,8389.000000,48670.000000
18692.000000,9465.000000,8346.000000,48701.000000
18725.000000,9500.000000,8342.000000,48642.000000
18644.000000,9400.000000,8291.000000,48683.000000
18698.000000,9390.000000,8358.000000,48649.000000
18745.000000,9444.000000,8434.000000,48689.000000
18705.000000,9434.000000,8322.000000,48659.000000
18625.000000,9339.000000,8344.000000,48681.000000
18730.000000,9458.000000,8319.000000,48653.000000
18699.000000,9448.000000,8372.000000,48706.000000
18694.000000,9457.000000,8365.000000,48643.000000
18560.000000,9439.000000,8442.000000,48706.000000
18692.000000,9430.000000,8324.000000,48692.000000
18933.000000,9398.000000,8423.000000,48838.000000
18754.000000,9510.000000,8428.000000,48736.000000
18602.000000,9422.000000,8281.000000,48634.000000
18764.000000,9418.000000,8443.000000,48745.000000
18800.000000,9554.000000,8445.000000,48713.000000
18888.000000,9529.000000,8511.000000,48755.000000
18835.000000,9529.000000,8532.000000,48792.000000
18914.000000,9616.000000,8541.000000,48826.000000
19007.000000,9640.000000,8578.000000,48927.000000
19005.000000,9698.000000,8707.000000,48939.000000
19077.000000,9657.000000,8683.000000,48887.000000
19208.000000,9776.000000,8862.000000,49031.000000
19277.000000,9787.000000,8872.000000,49012.000000
19365.000000,9793.000000,9147.000000,49078.000000
19435.000000,9936.000000,9095.000000,49179.000000
19569.000000,10029.000000,9140.000000,49241.000000
19627.000000,10173.000000,9303.000000,49145.000000
19697.000000,10249.000000,9463.000000,49395.000000
19822.000000,10286.000000,9330.000000,49393.000000
19958.000000,10368.000000,9500.000000,49450.000000
20164.000000,10474.000000,9676.000000,49527.000000
20151.000000,10540.000000,9718.000000,49542.000000
20339.000000,10666.000000,9848.000000,49590.000000
20444.000000,10732.000000,9920.000000,49657.000000
20538.000000,10883.000000,10083.000000,49770.000000
20671.000000,10956.000000,10210.000000,49761.000000
20667.000000,10992.000000,10186.000000,49769.000000
20850.000000,11038.000000,10324.000000,49955.000000
20879.000000,11189.000000,10520.000000,50003.000000
20891.000000,11242.000000,10511.000000,50050.000000
21045.000000,11216.000000,10587.000000,49988.000000
21099.000000,11281.000000,10557.000000,50071.000000
21126.000000,11305.000000,10548.000000,50050.000000
21046.000000,11260.000000,10625.000000,49989.000000
21054.000000,11365.000000,10641.000000,50038.000000
21095.000000,11265.000000,10627.000000,50004.000000
21123.000000,11362.000000,10574.000000,49977.000000
20933.000000,11240.000000,10579.000000,50034.000000
21073.000000,11338.000000,10608.000000,49918.000000
20912.000000,11149.000000,10506.000000,50146.000000
21003.000000,11260.000000,10550.000000,49990.000000
20866.000000,11185.000000,10548.000000,50006.000000
20924.000000,11209.000000,10471.000000,49985.000000
20866.000000,11320.000000,10518.000000,49910.000000
20925.000000,11242.000000,10439.000000,49906.000000
20823.000000,11152.000000,10416.000000,49985.000000
20928.000000,11173.000000,10423.000000,49900.000000
20919.000000,11075.000000,10355.000000,49964.000000
20735.000000,11133.000000,10302.000000,49919.000000
20804.000000,11206.000000,10314.000000,49865.000000
20879.000000,11148.000000,10364.000000,49836.000000
20767.000000,10982.000000,10324.000000,49884.000000
20769.000000,11089.000000,10345.000000,49881.000000
20688.000000,10957.000000,10270.000000,49766.000000
20708.000000,10993.000000,10296.000000,49906.000000
20849.000000,11012.000000,10219.000000,49807.000000
20764.000000,11006.000000,10193.000000,49818.000000
20613.000000,10961.000000,10260.000000,49913.000000
20737.000000,11040.000000,10159.000000,49770.000000
20702.000000,11046.000000,10228.000000,49837.000000
20682.000000,10944.000000,10175.000000,49774.000000
20620.000000,10971.000000,10125.000000,49863.000000
20681.000000,10990.000000,10154.000000,49797.000000
20624.000000,10861.000000,10139.000000,49796.000000
20565.000000,10936.000000,10250.000000,49751.000000
20473.000000,10854.000000,10148.000000,49760.000000
20552.000000,10922.000000,10093.000000,49700.000000
20629.000000,10837.000000,10092.000000,49709.000000
20322.000000,10987.000000,10138.000000,49795.000000
20472.000000,10841.000000,10062.000000,49713.000000
20545.000000,10937.000000,10055.000000,49770.000000
20519.000000,10946.000000,10100.000000,49647.000000
20477.000000,10926.000000,9995.000000,49711.000000
20400.000000,10921.000000,10034.000000,49553.000000
20440.000000,10851.000000,10027.000000,49617.000000
20403.000000,10868.000000,9925.000000,49727.000000
20332.000000,10754.000000,9995.000000,49540.000000
20346.000000,10709.000000,9926.000000,49667.000000
20343.000000,10747.000000,9990.000000,49610.000000
20389.000000,10753.000000,9856.000000,49566.000000
20157.000000,10657.000000,9918.000000,49640.000000
20267.000000,10594.000000,9779.000000,49594.000000
20225.000000,10572.000000,9852.000000,49657.000000
20219.000000,10686.000000,9752.000000,49574.000000
20091.000000,10582.000000,9721.000000,49511.000000
20142.000000,10639.000000,9722.000000,49459.000000
20130.000000,10616.000000,9770.000000,49482.000000
20143.000000,10553.000000,9630.000000,49489.000000
20045.000000,10510.000000,9599.000000,49425.000000
20036.000000,10560.000000,9632.000000,49421.000000
19997.000000,10540.000000,9542.000000,49471.000000
20191.000000,10431.000000,9668.000000,49397.000000
19951.000000,10398.000000,9619.000000,49457.000000
19918.000000,10499.000000,9416.000000,49482.000000
19878.000000,10471.000000,9499.000000,49405.000000
19840.000000,10417.000000,9508.000000,49422.000000
19914.000000,10440.000000,9466.000000,49285.000000
19902.000000,10300.000000,9393.000000,49358.000000
19816.000000,10400.000000,9443.000000,49254.000000
19797.000000,10268.000000,9403.000000,49322.000000
19726.000000,10416.000000,9351.000000,49308.000000
19885.000000,10341.000000,9367.000000,49319.000000
19821.000000,10237.000000,9433.000000,49307.000000
19712.000000,10363.000000,9318.000000,49214.000000
19754.000000,10220.000000,9439.000000,49308.000000
19766.000000,10226.000000,9363.000000,49230.000000
19757.000000,10184.000000,9340.000000,49230.000000
19723.000000,10245.000000,9317.000000,49262.000000
19686.000000,10153.000000,9288.000000,49205.000000
19686.000000,10242.000000,9325.000000,49328.000000
19761.000000,10192.000000,9275.000000,49255.000000
19671.000000,10158.000000,9357.000000,49271.000000
19595.000000,10243.000000,9198.000000,49309.000000
19716.000000,10218.000000,9286.000000,49177.000000
19693.000000,10197.000000,9337.000000,49257.000000
19613.000000,10199.000000,9294.000000,49197.000000
19629.000000,10198.000000,9355.000000,49271.000000
19709.000000,10216.000000,9295.000000,49371.000000
19665.000000,10226.000000,9324.000000,49316.000000
19563.000000,10178.000000,9267.000000,49287.000000
19755.000000,10180.000000,9358.000000,49298.000000
19733.000000,10235.000000,9355.000000,49254.000000
19743.000000,10237.000000,9357.000000,49259.000000
19722.000000,10282.000000,9247.000000,49231.000000
19755.000000,10280.000000,9366.000000,49226.000000
19833.000000,10230.000000,9300.000000,49358.000000
19791.000000,10277.000000,9382.000000,49308.000000
19742.000000,10155.000000,9312.000000,49335.000000
19774.000000,10270.000000,9289.000000,49362.000000
19716.000000,10239.000000,9372.000000,49317.000000
19786.000000,10215.000000,9352.000000,49233.000000
19719.000000,10175.000000,9398.000000,49375.000000
19829.000000,10224.000000,9296.000000,49271.000000
19694.000000,10180.000000,9371.000000,49175.000000
19619.000000,10355.000000,9317.000000,49203.000000
19601.000000,10129.000000,9181.000000,49283.000000
19675.000000,10127.000000,9335.000000,49274.000000
19588.000000,10102.000000,9279.000000,49238.000000
19649.000000,10084.000000,9169.000000,49308.000000
19584.000000,10062.000000,9239.000000,49209.000000
19648.000000,10208.000000,9155.000000,49210.000000
19619.000000,10103.000000,9191.000000,49226.000000
19622.000000,10124.000000,9161.000000,49219.000000
19504.000000,9996.000000,9230.000000,49153.000000
19532.000000,10069.000000,9160.000000,49139.000000
19484.000000,10075.000000,9087.000000,49130.000000
19305.000000,10094.000000,9170.000000,49146.000000
19382.000000,9964.000000,9164.000000,49319.000000
19515.000000,9972.000000,9021.000000,49225.000000
19449.000000,9927.000000,9083.000000,49162.000000
19386.000000,9995.000000,8994.000000,49173.000000
19426.000000,10006.000000,9127.000000,49179.000000
19500.000000,9965.000000,9052.000000,49103.000000
19458.000000,9988.000000,9033.000000,49169.000000
19389.000000,9974.000000,9054.000000,49146.000000
19419.000000,9967.000000,9051.000000,49213.000000
19421.000000,10006.000000,9042.000000,49169.000000
19434.000000,10041.000000,9065.000000,49210.000000
19339.000000,9915.000000,9147.000000,49101.000000
19477.000000,10052.000000,9048.000000,49115.000000
19533.000000,10006.000000,9184.000000,49265.000000
19476.000000,10047.000000,9160.000000,49108.000000
19425.000000,10003.000000,9182.000000,49257.000000
19493.000000,9974.000000,9249.000000,49194.000000
19501.000000,10029.000000,9185.000000,49233.000000
19582.000000,10136.000000,9255.000000,49235.000000
19540.000000,10094.000000,9287.000000,49324.000000
19741.000000,10163.000000,9335.000000,49365.000000
19762.000000,10255.000000,9462.000000,49350.000000
19831.000000,10212.000000,9496.000000,49392.000000
19816.000000,10311.000000,9421.000000,49370.000000
20005.000000,10425.000000,9559.000000,49456.000000
20043.000000,10403.000000,9647.000000,49616.000000
20171.000000,10519.000000,9771.000000,49567.000000
20200.000000,10617.000000,9844.000000,49622.000000
20386.000000,10641.000000,9920.000000,49709.000000
20439.000000,10829.000000,10045.000000,49738.000000
20742.000000,10834.000000,10087.000000,49808.000000
20538.000000,10850.000000,10264.000000,49876.000000
20734.000000,11091.000000,10322.000000,49924.000000
20955.000000,11118.000000,10508.000000,50018.000000
20962.000000,11156.000000,10475.000000,50023.000000
21051.000000,11233.000000,10528.000000,49983.000000
21202.000000,11386.000000,10702.000000,50069.000000
21145.000000,11327.000000,10707.000000,50106.000000
21174.000000,11389.000000,10790.000000,50190.000000
21165.000000,11368.000000,10774.000000,50060.000000
21253.000000,11462.000000,10805.000000,50139.000000
21210.000000,11436.000000,10762.000000,50154.000000
21271.000000,11392.000000,10737.000000,50164.000000
21123.000000,11336.000000,10673.000000,50123.000000
21167.000000,11375.000000,10740.000000,50126.000000
21112.000000,11431.000000,10848.000000,50180.000000
21058.000000,11411.000000,10634.000000,50118.000000
21106.000000,11314.000000,10645.000000,50065.000000
21093.000000,11415.000000,10736.000000,50030.000000
21113.000000,11268.000000,10681.000000,50100.000000
21068.000000,11340.000000,10555.000000,50012.000000
21083.000000,11212.000000,10566.000000,49985.000000
21114.000000,11317.000000,10566.000000,50031.000000
21055.000000,11175.000000,10527.000000,50058.000000
20961.000000,11170.000000,10485.000000,49978.000000
21048.000000,11238.000000,10490.000000,50005.000000
20990.000000,11181.000000,10458.000000,49952.000000
20963.000000,11220.000000,10453.000000,49993.000000
20781.000000,11125.000000,10401.000000,49898.000000
20788.000000,11106.000000,10384.000000,50082.000000
20924.000000,11170.000000,10548.000000,49977.000000
20872.000000,11142.000000,10335.000000,49944.000000
20791.000000,11068.000000,10338.000000,49892.000000
20763.000000,11135.000000,10412.000000,49933.000000
20773.000000,11176.000000,10377.000000,49885.000000
20761.000000,11136.000000,10265.000000,49986.000000
20750.000000,10980.000000,10260.000000,49876.000000
20811.000000,11012.000000,10307.000000,49830.000000
20725.000000,11085.000000,10258.000000,49917.000000
20723.000000,11049.000000,10263.000000,49835.000000
20700.000000,11078.000000,10212.000000,49867.000000
20732.000000,11052.000000,10195.000000,49822.000000
20615.000000,10999.000000,10176.000000,49804.000000
20644.000000,10994.000000,10132.000000,49841.000000
20464.000000,10940.000000,10105.000000,49817.000000
20790.000000,10974.000000,10144.000000,49754.000000
20717.000000,10943.000000,10255.000000,49795.000000
20656.000000,10903.000000,10103.000000,49840.000000
20523.000000,10882.000000,10119.000000,49789.000000
20610.000000,10917.000000,10080.000000,49760.000000
20650.000000,10880.000000,10022.000000,49720.000000
20537.000000,10958.000000,10047.000000,49576.000000
20481.000000,10877.000000,10045.000000,49714.000000
20515.000000,10856.000000,10032.000000,49651.000000
20492.000000,10913.000000,10063.000000,49698.000000
20473.000000,10815.000000,9969.000000,49716.000000
20423.000000,10773.000000,9925.000000,49579.000000
20467.000000,10840.000000,9922.000000,49698.000000
20507.000000,10759.000000,9966.000000,49578.000000
20420.000000,10683.000000,9808.000000,49733.000000
20318.000000,10759.000000,9817.000000,49626.000000
20412.000000,10608.000000,9822.000000,49710.000000
20287.000000,10718.000000,9833.000000,49687.000000
20250.000000,10629.000000,9890.000000,49593.000000
20208.000000,10557.000000,9810.000000,49537.000000
20279.000000,10611.000000,9762.000000,49561.000000
20179.000000,10629.000000,9768.000000,49616.000000
20136.000000,10601.000000,9751.000000,49493.000000
20158.000000,10452.000000,9661.000000,49554.000000
20149.000000,10494.000000,9659.000000,49495.000000
20153.000000,10511.000000,9632.000000,49461.000000
20025.000000,10546.000000,9759.000000,49625.000000
20051.000000,10493.000000,9648.000000,49367.000000
19983.000000,10458.000000,9579.000000,49462.000000
20035.000000,10474.000000,9672.000000,49435.000000
19866.000000,10342.000000,9552.000000,49470.000000
19987.000000,10372.000000,9553.000000,49387.000000
19852.000000,10478.000000,9601.000000,49294.000000
19914.000000,10347.000000,9478.000000,49404.000000
19667.000000,10421.000000,9437.000000,49351.000000
19903.000000,10321.000000,9454.000000,49521.000000
19900.000000,10345.000000,9381.000000,49447.000000
19975.000000,10336.000000,9484.000000,49408.000000
19764.000000,10269.000000,9370.000000,49368.000000
19844.000000,10279.000000,9392.000000,49348.000000
19783.000000,10310.000000,9457.000000,49351.000000
19928.000000,10266.000000,9452.000000,49380.000000
19753.000000,10250.000000,9405.000000,49376.000000
19916.000000,10272.000000,9441.000000,49467.000000
19880.000000,10265.000000,9458.000000,49336.000000
19890.000000,10317.000000,9294.000000,49409.000000
19677.000000,10278.000000,9369.000000,49391.000000
19901.000000,10356.000000,9460.000000,49372.000000
19858.000000,10297.000000,9508.000000,49397.000000
19769.000000,10233.000000,9485.000000,49419.000000
19757.000000,10307.000000,9398.000000,49344.000000
19883.000000,10255.000000,9396.000000,49415.000000
19903.000000,10288.000000,9493.000000,49399.000000
19870.000000,10290.000000,9420.000000,49484.000000
19804.000000,10293.000000,9503.000000,49387.000000
19901.000000,10352.000000,9444.000000,49358.000000
19866.000000,10344.000000,9462.000000,49381.000000
19884.000000,10295.000000,9471.000000,49397.000000
19839.000000,10293.000000,9474.000000,49335.000000
19884.000000,10281.000000,9404.000000,49467.000000
19872.000000,10330.000000,9455.000000,49397.000000
19852.000000,10299.000000,9451.000000,49391.000000
19785.000000,10329.000000,9399.000000,49342.000000
19950.000000,10296.000000,9398.000000,49353.000000
19879.000000,10344.000000,9328.000000,49355.000000
19766.000000,10184.000000,9395.000000,49359.000000
19806.000000,10104.000000,9220.000000,49401.000000
19813.000000,10232.000000,9313.000000,49331.000000
19763.000000,10190.000000,9318.000000,49316.000000
19702.000000,10174.000000,9268.000000,49198.000000
19652.000000,10052.000000,9311.000000,49340.000000
19708.000000,10203.000000,9182.000000,49268.000000
19710.000000,10109.000000,9185.000000,49248.000000
19554.000000,10071.000000,9250.000000,49217.000000
19637.000000,10127.000000,9231.000000,49320.000000
19630.000000,10128.000000,9141.000000,49243.000000
19674.000000,10148.000000,9214.000000,49276.000000
19641.000000,9986.000000,9229.000000,49284.000000
19663.000000,10090.000000,9173.000000,49297.000000
19701.000000,10001.000000,9156.000000,49226.000000
19593.000000,10057.000000,9268.000000,49227.000000
19618.000000,9903.000000,9200.000000,49236.000000
19716.000000,10134.000000,9213.000000,49276.000000
19692.000000,10063.000000,9252.000000,49327.000000
19642.000000,10020.000000,9216.000000,49235.000000
19575.000000,10107.000000,9309.000000,49360.000000
19638.000000,10183.000000,9230.000000,49309.000000
19585.000000,10184.000000,9152.000000,49332.000000
19721.000000,10136.000000,9279.000000,49294.000000
19611.000000,9958.000000,9308.000000,49368.000000
19759.000000,10181.000000,9235.000000,49468.000000
19771.000000,10243.000000,9389.000000,49290.000000
19786.000000,10099.000000,9329.000000,49332.000000
19831.000000,10215.000000,9410.000000,49356.000000
19926.000000,10269.000000,9484.000000,49335.000000
19973.000000,10295.000000,9588.000000,49537.000000
20009.000000,10347.000000,9558.000000,49439.000000
20145.000000,10203.000000,9652.000000,49403.000000
20170.000000,10404.000000,9658.000000,49549.000000
20254.000000,10521.000000,9762.000000,49579.000000
20332.000000,10622.000000,9814.000000,49560.000000
20287.000000,10611.000000,9911.000000,49786.000000
20492.000000,10664.000000,9993.000000,49851.000000
20524.000000,10754.000000,10139.000000,49822.000000
20619.000000,10808.000000,10139.000000,49903.000000
20761.000000,10971.000000,10328.000000,49936.000000
20927.000000,11017.000000,10465.000000,49997.000000
21060.000000,11148.000000,10506.000000,50128.000000
21135.000000,11232.000000,10606.000000,50118.000000
21271.000000,11321.000000,10765.000000,50145.000000
21431.000000,11503.000000,10864.000000,50302.000000
21530.000000,11463.000000,10936.000000,50324.000000
21573.000000,11591.000000,11051.000000,50401.000000
21578.000000,11594.000000,11092.000000,50499.000000
21729.000000,11711.000000,11176.000000,50404.000000
21731.000000,11675.000000,11121.000000,50484.000000
21683.000000,11661.000000,11293.000000,50420.000000
21736.000000,11776.000000,11095.000000,50435.000000
21677.000000,11771.000000,11253.000000,50399.000000
21691.000000,11713.000000,11155.000000,50422.000000
21670.000000,11688.000000,11137.000000,50407.000000
21722.000000,11716.000000,11186.000000,50477.000000
21697.000000,11692.000000,11156.000000,50422.000000
21640.000000,11714.000000,11081.000000,50415.000000
21582.000000,11670.000000,11084.000000,50397.000000
21602.000000,11644.000000,11121.000000,50395.000000
21706.000000,11615.000000,11220.000000,50398.000000
21721.000000,11701.000000,11094.000000,50308.000000
21442.000000,11559.000000,11031.000000,50291.000000
21603.000000,11547.000000,10970.000000,50318.000000
21567.000000,11636.000000,11061.000000,50352.000000
21560.000000,11576.000000,11049.000000,50369.000000
21454.000000,11539.000000,10977.000000,50278.000000
21498.000000,11580.000000,11007.000000,50305.000000
21468.000000,11633.000000,11007.000000,50341.000000
21441.000000,11617.000000,10993.000000,50281.000000
21355.000000,11557.000000,10953.000000,50275.000000
21427.000000,11572.000000,10953.000000,50347.000000
21360.000000,11576.000000,10892.000000,50263.000000
21329.000000,11563.000000,10966.000000,50269.000000
21376.000000,11453.000000,10991.000000,50292.000000
21380.000000,11565.000000,10848.000000,50276.000000
21394.000000,11521.000000,10799.000000,50320.000000
21288.000000,11476.000000,10880.000000,50275.000000
21206.000000,11507.000000,10892.000000,50173.000000
21328.000000,11479.000000,10815.000000,50236.000000
21381.000000,11473.000000,10844.000000,50174.000000
21249.000000,11341.000000,10793.000000,50134.000000
21236.000000,11361.000000,10805.000000,50197.000000
21431.000000,11531.000000,10708.000000,50164.000000
21257.000000,11397.000000,10837.000000,50258.000000
21149.000000,11370.000000,10786.000000,50165.000000
21122.000000,11395.000000,10650.000000,50183.000000
21245.000000,11391.000000,10691.000000,50204.000000
21196.000000,11378.000000,10542.000000,50273.000000
21145.000000,11337.000000,10721.000000,50154.000000
21115.000000,11242.000000,10668.000000,50175.000000
21199.000000,11298.000000,10610.000000,50170.000000
21143.000000,11339.000000,10626.000000,50152.000000
21052.000000,11167.000000,10607.000000,50167.000000
21065.000000,11280.000000,10593.000000,49999.000000
20978.000000,11336.000000,10599.000000,50089.000000
21042.000000,11299.000000,10603.000000,50022.000000
21020.000000,11224.000000,10411.000000,50018.000000
20954.000000,11155.000000,10496.000000,50059.000000
20991.000000,11109.000000,10462.000000,50001.000000
20927.000000,11151.000000,10473.000000,49973.000000
20823.000000,11113.000000,10423.000000,50011.000000
20897.000000,11131.000000,10493.000000,50026.000000
20952.000000,11089.000000,10362.000000,49975.000000
20843.000000,11018.000000,10386.000000,49916.000000
20714.000000,11068.000000,10373.000000,49919.000000
20842.000000,10972.000000,10315.000000,49946.000000
20724.000000,11053.000000,10273.000000,49954.000000
20640.000000,11019.000000,10229.000000,49897.000000
20655.000000,10872.000000,10055.000000,49886.000000
20659.000000,10947.000000,10101.000000,49814.000000
20609.000000,10820.000000,10162.000000,49862.000000
20526.000000,10875.000000,10144.000000,49804.000000
20484.000000,10688.000000,10131.000000,49759.000000
20561.000000,10818.000000,10115.000000,49775.000000
20561.000000,10785.000000,10027.000000,49857.000000
20506.000000,10751.000000,9967.000000,49901.000000
20495.000000,10727.000000,9981.000000,49770.000000
20458.000000,10832.000000,9984.000000,49688.000000
20495.000000,10895.000000,10030.000000,49824.000000
20355.000000,10730.000000,9907.000000,49756.000000
20260.000000,10717.000000,10001.000000,49700.000000
20369.000000,10658.000000,9913.000000,49671.000000
20310.000000,10676.000000,9855.000000,49658.000000
20250.000000,10642.000000,9903.000000,49719.000000
20220.000000,10560.000000,9847.000000,49671.000000
20284.000000,10573.000000,9819.000000,49545.000000
20238.000000,10638.000000,9775.000000,49566.000000
20084.000000,10589.000000,9838.000000,49661.000000
20227.000000,10533.000000,9818.000000,49592.000000
20215.000000,10547.000000,9799.000000,49700.000000
20168.000000,10489.000000,9831.000000,49682.000000
20168.000000,10486.000000,9748.000000,49660.000000
20102.000000,10598.000000,9830.000000,49586.000000
20193.000000,10517.000000,9791.000000,49622.000000
20200.000000,10473.000000,9939.000000,49649.000000
20202.000000,10437.000000,9782.000000,49676.000000
20197.000000,10472.000000,9765.000000,49649.000000
20196.000000,10502.000000,9670.000000,49624.000000
20228.000000,10624.000000,9766.000000,49575.000000
20140.000000,10515.000000,9740.000000,49612.000000
20208.000000,10547.000000,9753.000000,49600.000000
20246.000000,10574.000000,9723.000000,49618.000000
20257.000000,10558.000000,9800.000000,49646.000000
20137.000000,10507.000000,9844.000000,49649.000000
20309.000000,10515.000000,9770.000000,49594.000000
20186.000000,10465.000000,9737.000000,49539.000000
20308.000000,10580.000000,9811.000000,49588.000000
20118.000000,10469.000000,9659.000000,49625.000000
20168.000000,10542.000000,9731.000000,49579.000000
20151.000000,10403.000000,9659.000000,49575.000000
20162.000000,10535.000000,9615.000000,49567.000000
20018.000000,10402.000000,9682.000000,49613.000000
20163.000000,10482.000000,9622.000000,49569.000000
20109.000000,10529.000000,9760.000000,49571.000000
20107.000000,10465.000000,9628.000000,49613.000000
19955.000000,10309.000000,9522.000000,49471.000000
19986.000000,10370.000000,9633.000000,49546.000000
19957.000000,10399.000000,9547.000000,49473.000000
19967.000000,10288.000000,9550.000000,49457.000000
19806.000000,10318.000000,9534.000000,49438.000000
19916.000000,10315.000000,9490.000000,49471.000000
19918.000000,10241.000000,9434.000000,49469.000000
19854.000000,10233.000000,9498.000000,49503.000000
19904.000000,10215.000000,9459.000000,49491.000000
20007.000000,10225.000000,9450.000000,49388.000000
19919.000000,10272.000000,9508.000000,49431.000000
19890.000000,10201.000000,9409.000000,49389.000000
19874.000000,10252.000000,9437.000000,49377.000000
19784.000000,10142.000000,9449.000000,49472.000000
19897.000000,10198.000000,9396.000000,49344.000000
19757.000000,10208.000000,9402.000000,49336.000000
19852.000000,10171.000000,9355.000000,49565.000000
19877.000000,10250.000000,9343.000000,49468.000000
19844.000000,10222.000000,9486.000000,49412.000000
19752.000000,10186.000000,9356.000000,49449.000000
19806.000000,10145.000000,9478.000000,49383.000000
19833.000000,10253.000000,9514.000000,49461.000000
19889.000000,10270.000000,9484.000000,49484.000000
19856.000000,10191.000000,9450.000000,49495.000000
19973.000000,10243.000000,9516.000000,49607.000000
20019.000000,10251.000000,9573.000000,49453.000000
20044.000000,10362.000000,9571.000000,49520.000000
19932.000000,10331.000000,9511.000000,49547.000000
20174.000000,10430.000000,9703.000000,49640.000000
20048.000000,10477.000000,9702.000000,49694.000000
20229.000000,10513.000000,9789.000000,49697.000000
20185.000000,10569.000000,9737.000000,49748.000000
20407.000000,10582.000000,9917.000000,49719.000000
20478.000000,10596.000000,9995.000000,49874.000000
20556.000000,10744.000000,10130.000000,49807.000000
20532.000000,10784.000000,10184.000000,49901.000000
20692.000000,10786.000000,10229.000000,49966.000000
20805.000000,11007.000000,10343.000000,49970.000000
20920.000000,11055.000000,10503.000000,50033.000000
21035.000000,11131.000000,10549.000000,50228.000000
21137.000000,11250.000000,10709.000000,50215.000000
21251.000000,11268.000000,10856.000000,50303.000000
21411.000000,11414.000000,10880.000000,50275.000000
21395.000000,11563.000000,10944.000000,50392.000000
21527.000000,11584.000000,11053.000000,50435.000000
21617.000000,11695.000000,11152.000000,50299.000000
21684.000000,11668.000000,11085.000000,50347.000000
21631.000000,11640.000000,11226.000000,50481.000000
21707.000000,11705.000000,11151.000000,50438.000000
21704.000000,11638.000000,11135.000000,50446.000000
21600.000000,11672.000000,11124.000000,50371.000000
21641.000000,11635.000000,11101.000000,50353.000000
21650.000000,11694.000000,11211.000000,50421.000000
21661.000000,11660.000000,11060.000000,50395.000000
21580.000000,11607.000000,11025.000000,50409.000000
21513.000000,11633.000000,11084.000000,50393.000000
21583.000000,11594.000000,11093.000000,50353.000000
21535.000000,11529.000000,11064.000000,50424.000000
21480.000000,11570.000000,10987.000000,50379.000000
21488.000000,11613.000000,10942.000000,50293.000000
21518.000000,11516.000000,10942.000000,50372.000000
21399.000000,11488.000000,10973.000000,50305.000000
21362.000000,11477.000000,10914.000000,50340.000000
21446.000000,11473.000000,10823.000000,50322.000000
21365.000000,11373.000000,10918.000000,50314.000000
21383.000000,11376.000000,10842.000000,50267.000000
21276.000000,11503.000000,10907.000000,50123.000000
21350.000000,11455.000000,10835.000000,50166.000000
21311.000000,11370.000000,10859.000000,50296.000000
21264.000000,11415.000000,10791.000000,50177.000000
21133.000000,11266.000000,10678.000000,50254.000000
21259.000000,11313.000000,10753.000000,50208.000000
21187.000000,11362.000000,10673.000000,50103.000000
21274.000000,11275.000000,10627.000000,50241.000000
21123.000000,11221.000000,10811.000000,50252.000000
21141.000000,11354.000000,10621.000000,50196.000000
21157.000000,11378.000000,10692.000000,50154.000000
21166.000000,11300.000000,10680.000000,50175.000000
21071.000000,11255.000000,10629.000000,50223.000000
21102.000000,11140.000000,10612.000000,50170.000000
21137.000000,11310.000000,10650.000000,50062.000000
21006.000000,11205.000000,10567.000000,50166.000000
20970.000000,11185.000000,10537.000000,50109.000000
21072.000000,11228.000000,10582.000000,50087.000000
20985.000000,11129.000000,10351.000000,50061.000000
20952.000000,11183.000000,10426.000000,50035.000000
20794.000000,11047.000000,10521.000000,49981.000000
20888.000000,11210.000000,10485.000000,50014.000000
20922.000000,11112.000000,10464.000000,49963.000000
20798.000000,11174.000000,10398.000000,50084.000000
20802.000000,11059.000000,10367.000000,49912.000000
20844.000000,11016.000000,10321.000000,49978.000000
20729.000000,11118.000000,10295.000000,49974.000000
20904.000000,10957.000000,10248.000000,49880.000000
20626.000000,10941.000000,10435.000000,49897.000000
20810.000000,10883.000000,10254.000000,49879.000000
20642.000000,10885.000000,10284.000000,49883.000000
20650.000000,10880.000000,10275.000000,49968.000000
20623.000000,10879.000000,10148.000000,49915.000000
20675.000000,10954.000000,10194.000000,49891.000000
20644.000000,10838.000000,10131.000000,49859.000000
20594.000000,10776.000000,10114.000000,49789.000000
20514.000000,10767.000000,10150.000000,49803.000000
20454.000000,10916.000000,9986.000000,49745.000000
20436.000000,10741.000000,10013.000000,49868.000000
20394.000000,10690.000000,9999.000000,49787.000000
20488.000000,10685.000000,9941.000000,49732.000000
20338.000000,10723.000000,9932.000000,49688.000000
20333.000000,10716.000000,9857.000000,49680.000000
20208.000000,10611.000000,9925.000000,49746.000000
20300.000000,10633.000000,9786.000000,49695.000000
20249.000000,10643.000000,9929.000000,49726.000000
20305.000000,10636.000000,9775.000000,49679.000000
20318.000000,10550.000000,9841.000000,49632.000000
20188.000000,10542.000000,9759.000000,49683.000000
20223.000000,10502.000000,9737.000000,49711.000000
20207.000000,10497.000000,9731.000000,49646.000000
20022.000000,10383.000000,9838.000000,49506.000000
20164.000000,10483.000000,9811.000000,49551.000000
20214.000000,10470.000000,9676.000000,49564.000000
20074.000000,10355.000000,9685.000000,49621.000000
20017.000000,10300.000000,9624.000000,49434.000000
20142.000000,10307.000000,9691.000000,49523.000000
20032.000000,10429.000000,9600.000000,49546.000000
20009.000000,10363.000000,9741.000000,49453.000000
19991.000000,10226.000000,9599.000000,49514.000000
20049.000000,10326.000000,9567.000000,49493.000000
20035.000000,10279.000000,9571.000000,49492.000000
19991.000000,10397.000000,9525.000000,49573.000000
19936.000000,10313.000000,9597.000000,49541.000000
20038.000000,10339.000000,9618.000000,49452.000000
19986.000000,10370.000000,9681.000000,49429.000000
20009.000000,10242.000000,9706.000000,49493.000000
19924.000000,10218.000000,9559.000000,49617.000000
19934.000000,10414.000000,9486.000000,49561.000000
20012.000000,10322.000000,9551.000000,49519.000000
20036.000000,10304.000000,9579.000000,49503.000000
19994.000000,10292.000000,9605.000000,49591.000000
20010.000000,10356.000000,9585.000000,49592.000000
20018.000000,10379.000000,9624.000000,49514.000000
19976.000000,10300.000000,9543.000000,49560.000000
20012.000000,10298.000000,9541.000000,49544.000000
20086.000000,10367.000000,9570.000000,49566.000000
20011.000000,10390.000000,9572.000000,49469.000000
19918.000000,10290.000000,9568.000000,49562.000000
19961.000000,10317.000000,9602.000000,49535.000000
19904.000000,10413.000000,9602.000000,49580.000000
19971.000000,10316.000000,9486.000000,49494.000000
19878.000000,10294.000000,9526.000000,49553.000000
19871.000000,10196.000000,9598.000000,49521.000000
19855.000000,10254.000000,9495.000000,49511.000000
19916.000000,10236.000000,9424.000000,49461.000000
19860.000000,10151.000000,9448.000000,49468.000000
19832.000000,10196.000000,9463.000000,49530.000000
19940.000000,10264.000000,9362.000000,49349.000000
19757.000000,10235.000000,9477.000000,49450.000000
19734.000000,10234.000000,9342.000000,49430.000000
19766.000000,10132.000000,9348.000000,49428.000000
19758.000000,10027.000000,9264.000000,49373.000000
19833.000000,10119.000000,9325.000000,49396.000000
19690.000000,10034.000000,9306.000000,49440.000000
19635.000000,10112.000000,9294.000000,49374.000000
19691.000000,10023.000000,9200.000000,49400.000000
19594.000000,10105.000000,9244.000000,49316.000000
19564.000000,9968.000000,9230.000000,49254.000000
19640.000000,10002.000000,9175.000000,49272.000000
19557.000000,9976.000000,9250.000000,49227.000000
19637.000000,10021.000000,9287.000000,49363.000000
19512.000000,9894.000000,9128.000000,49198.000000
19538.000000,9993.000000,9159.000000,49322.000000
19493.000000,9903.000000,9163.000000,49339.000000
19551.000000,9867.000000,9127.000000,49276.000000
19435.000000,9937.000000,9193.000000,49325.000000
19548.000000,9946.000000,9165.000000,49330.000000
19621.000000,9951.000000,9231.000000,49339.000000
19511.000000,9926.000000,9178.000000,49384.000000
19478.000000,9814.000000,9207.000000,49376.000000
19595.000000,9987.000000,9222.000000,49404.000000
19618.000000,10037.000000,9234.000000,49370.000000
19560.000000,10006.000000,9251.000000,49371.000000
19655.000000,10036.000000,9327.000000,49259.000000
19718.000000,10034.000000,9261.000000,49422.000000
19639.000000,10063.000000,9291.000000,49498.000000
19737.000000,10146.000000,9397.000000,49486.000000
19700.000000,10196.000000,9440.000000,49450.000000
19935.000000,10233.000000,9518.000000,49573.000000
20024.000000,10281.000000,9577.000000,49507.000000
20058.000000,10279.000000,9648.000000,49636.000000
20027.000000,10333.000000,9712.000000,49696.000000
20222.000000,10384.000000,9867.000000,49659.000000
20318.000000,10498.000000,9837.000000,49742.000000
20223.000000,10511.000000,10033.000000,49830.000000
20464.000000,10629.000000,10014.000000,49921.000000
20640.000000,10857.000000,10180.000000,49949.000000
20673.000000,10884.000000,10297.000000,49939.000000
20755.000000,11015.000000,10437.000000,49996.000000
20929.000000,11065.000000,10483.000000,50077.000000
21067.000000,11133.000000,10647.000000,50094.000000
21070.000000,11199.000000,10668.000000,50239.000000
21116.000000,11254.000000,10663.000000,50195.000000
21344.000000,11350.000000,10741.000000,50207.000000
21342.000000,11325.000000,10787.000000,50257.000000
21413.000000,11393.000000,10837.000000,50306.000000
21252.000000,11342.000000,10838.000000,50368.000000
21263.000000,11416.000000,10879.000000,50274.000000
21315.000000,11424.000000,10755.000000,50286.000000
21179.000000,11395.000000,10804.000000,50302.000000
21143.000000,11287.000000,10715.000000,50223.000000
21287.000000,11297.000000,10674.000000,50269.000000
21254.000000,11308.000000,10656.000000,50209.000000
21228.000000,11386.000000,10571.000000,50146.000000
21075.000000,11197.000000,10640.000000,50249.000000
21156.000000,11241.000000,10674.000000,50161.000000
21077.000000,11220.000000,10585.000000,50117.000000
21121.000000,11286.000000,10621.000000,50104.000000
21018.000000,11182.000000,10601.000000,50113.000000
21032.000000,11180.000000,10597.000000,50167.000000
21039.000000,11291.000000,10480.000000,50118.000000
20942.000000,11223.000000,10456.000000,50065.000000
20879.000000,10973.000000,10424.000000,50010.000000
20963.000000,11180.000000,10352.000000,49951.000000
20924.000000,11076.000000,10463.000000,49968.000000
20810.000000,11070.000000,10359.000000,49915.000000
20804.000000,11114.000000,10318.000000,49995.000000
20876.000000,11004.000000,10345.000000,50048.000000
20797.000000,10946.000000,10424.000000,50003.000000
20744.000000,10950.000000,10324.000000,49984.000000
20796.000000,10964.000000,10344.000000,49967.000000
20778.000000,10936.000000,10347.000000,49961.000000
20802.000000,10977.000000,10326.000000,49969.000000
20653.000000,11004.000000,10251.000000,49957.000000
20706.000000,10928.000000,10298.000000,49959.000000
20775.000000,10906.000000,10287.000000,49953.000000
20708.000000,10929.000000,10280.000000,49973.000000
20631.000000,10863.000000,10221.000000,49954.000000
20664.000000,10917.000000,10176.000000,49890.000000
20618.000000,10851.000000,10196.000000,49848.000000
20715.000000,10873.000000,10301.000000,49916.000000
20631.000000,10864.000000,10142.000000,49920.000000
20534.000000,10836.000000,10158.000000,49925.000000
20599.000000,10809.000000,10127.000000,49895.000000
20557.000000,10813.000000,10061.000000,49872.000000
20526.000000,10796.000000,9976.000000,49820.000000
20449.000000,10778.000000,10112.000000,49860.000000
20582.000000,10850.000000,10058.000000,49840.000000
20519.000000,10716.000000,10054.000000,49712.000000
20410.000000,10642.000000,10038.000000,49772.000000
20497.000000,10705.000000,9935.000000,49761.000000
20365.000000,10679.000000,9941.000000,49808.000000
20366.000000,10696.000000,10061.000000,49823.000000
20255.000000,10660.000000,9986.000000,49754.000000
20363.000000,10649.000000,9956.000000,49766.000000
20385.000000,10562.000000,9813.000000,49796.000000
20228.000000,10568.000000,9871.000000,49801.000000
20223.000000,10545.000000,9829.000000,49733.000000
20288.000000,10550.000000,9767.000000,49683.000000
20312.000000,10588.000000,9837.000000,49608.000000
20126.000000,10563.000000,9806.000000,49651.000000
20079.000000,10526.000000,9725.000000,49721.000000
20024.000000,10400.000000,9757.000000,49686.000000
20195.000000,10473.000000,9691.000000,49665.000000
20110.000000,10444.000000,9659.000000,49615.000000
20140.000000,10492.000000,9708.000000,49687.000000
20085.000000,10498.000000,9720.000000,49648.000000
20115.000000,10473.000000,9616.000000,49598.000000
20074.000000,10332.000000,9739.000000,49639.000000
20028.000000,10285.000000,9564.000000,49563.000000
20042.000000,10365.000000,9600.000000,49505.000000
19978.000000,10341.000000,9464.000000,49498.000000
19954.000000,10380.000000,9606.000000,49442.000000
19806.000000,10299.000000,9543.000000,49488.000000
19854.000000,10271.000000,9542.000000,49465.000000
19836.000000,10216.000000,9582.000000,49499.000000
19835.000000,10217.000000,9410.000000,49475.000000
19818.000000,10158.000000,9434.000000,49496.000000
19786.000000,10196.000000,9446.000000,49500.000000
19857.000000,10180.000000,9404.000000,49455.000000
19766.000000,10054.000000,9338.000000,49454.000000
19814.000000,10090.000000,9303.000000,49445.000000
19850.000000,10151.000000,9355.000000,49408.000000
19842.000000,10111.000000,9330.000000,49505.000000
19655.000000,10108.000000,9380.000000,49371.000000
19700.000000,10136.000000,9460.000000,49303.000000
19653.000000,10126.000000,9343.000000,49426.000000
19740.000000,10168.000000,9365.000000,49437.000000
19611.000000,9939.000000,9336.000000,49321.000000
19709.000000,10141.000000,9362.000000,49385.000000
19782.000000,10101.000000,9387.000000,49463.000000
19660.000000,10098.000000,9362.000000,49454.000000
19650.000000,10055.000000,9293.000000,49407.000000
19657.000000,10031.000000,9367.000000,49487.000000
19758.000000,10220.000000,9363.000000,49406.000000
19744.000000,10225.000000,9346.000000,49433.000000
19595.000000,10098.000000,9349.000000,49372.000000
19809.000000,10121.000000,9288.000000,49458.000000
19800.000000,10196.000000,9397.000000,49482.000000
19834.000000,10196.000000,9317.000000,49478.000000
19661.000000,10091.000000,9446.000000,49488.000000
19749.000000,10114.000000,9343.000000,49464.000000
19824.000000,10221.000000,9396.000000,49374.000000
19669.000000,10134.000000,9367.000000,49457.000000
19608.000000,10039.000000,9371.000000,49498.000000
19782.000000,10135.000000,9345.000000,49607.000000
19662.000000,10105.000000,9310.000000,49462.000000
19648.000000,10089.000000,9428.000000,49453.000000
19620.000000,10100.000000,9372.000000,49401.000000
19664.000000,10032.000000,9298.000000,49394.000000
19647.000000,10144.000000,9301.000000,49410.000000
19543.000000,10049.000000,9275.000000,49399.000000
19624.000000,10069.000000,9240.000000,49389.000000
19630.000000,10124.000000,9401.000000,49386.000000
19695.000000,10057.000000,9310.000000,49349.000000
19571.000000,9894.000000,9178.000000,49335.000000
19532.000000,9931.000000,9243.000000,49336.000000
19537.000000,9942.000000,9138.000000,49284.000000
19537.000000,9998.000000,9290.000000,49456.000000
19451.000000,9883.000000,9112.000000,49275.000000
19438.000000,9845.000000,9164.000000,49337.000000
19574.000000,9936.000000,9127.000000,49340.000000
19454.000000,9942.000000,9163.000000,49276.000000
19340.000000,9760.000000,9083.000000,49297.000000
19489.000000,9841.000000,9251.000000,49157.000000
19506.000000,9880.000000,9203.000000,49386.000000
19548.000000,9909.000000,9024.000000,49298.000000
19312.000000,9937.000000,9068.000000,49271.000000
19497.000000,9884.000000,9067.000000,49274.000000
19454.000000,9873.000000,9136.000000,49281.000000
19426.000000,9863.000000,9076.000000,49358.000000
19351.000000,9874.000000,9166.000000,49306.000000
19492.000000,9925.000000,9049.000000,49328.000000
19495.000000,9889.000000,9011.000000,49325.000000
19575.000000,9887.000000,9175.000000,49304.000000
19438.000000,9870.000000,9179.000000,49391.000000
19393.000000,9855.000000,9172.000000,49368.000000
19547.000000,9921.000000,9150.000000,49337.000000
19545.000000,9893.000000,9252.000000,49354.000000
19474.000000,9895.000000,9147.000000,49381.000000
19651.000000,9973.000000,9292.000000,49454.000000
19607.000000,9884.000000,9261.000000,49488.000000
19608.000000,10034.000000,9368.000000,49446.000000
19690.000000,9952.000000,9370.000000,49346.000000
19792.000000,10065.000000,9318.000000,49506.000000
19803.000000,10179.000000,9488.000000,49624.000000
19785.000000,10298.000000,9465.000000,49575.000000
