660nm,730nm,850nm,940nm
25539.000000,10725.000000,14524.000000,55070.000000
25591.000000,10661.000000,14546.000000,55132.000000
25563.000000,10595.000000,14565.000000,55078.000000
25560.000000,10566.000000,14553.000000,55162.000000
25593.000000,10557.000000,14544.000000,55143.000000
25576.000000,10706.000000,14515.000000,55060.000000
25512.000000,10546.000000,14489.000000,55086.000000
25669.000000,10598.000000,14512.000000,55079.000000
25560.000000,10604.000000,14535.000000,55105.000000
25614.000000,10583.000000,14424.000000,55129.000000
25461.000000,10613.000000,14477.000000,55085.000000
25610.000000,10560.000000,14450.000000,54988.000000
25525.000000,10576.000000,14506.000000,54997.000000
25509.000000,10595.000000,14510.000000,55058.000000
25507.000000,10530.000000,14503.000000,55091.000000
25445.000000,10590.000000,14465.000000,55126.000000
25615.000000,10570.000000,14462.000000,55094.000000
25502.000000,10567.000000,14400.000000,54989.000000
25483.000000,10521.000000,14406.000000,55058.000000
25523.000000,10541.000000,14413.000000,55033.000000
25546.000000,10488.000000,14405.000000,55034.000000
25485.000000,10554.000000,14481.000000,55055.000000
25510.000000,10489.000000,14421.000000,55058.000000
25423.000000,10442.000000,14488.000000,55032.000000
25460.000000,10493.000000,14317.000000,55196.000000
25448.000000,10500.000000,14384.000000,54977.000000
25370.000000,10621.000000,14348.000000,55017.000000
25459.000000,10517.000000,14453.000000,55002.000000
25451.000000,10463.000000,14429.000000,55009.000000
25404.000000,10445.000000,14408.000000,55015.000000
25338.000000,10461.000000,14286.000000,55042.000000
25373.000000,10559.000000,14439.000000,55111.000000
25390.000000,10450.000000,14371.000000,55003.000000
25329.000000,10516.000000,14362.000000,55020.000000
25351.000000,10472.000000,14343.000000,55029.000000
25361.000000,10452.000000,14333.000000,54997.000000
25512.000000,10492.000000,14385.000000,54948.000000
25381.000000,10299.000000,14218.000000,54849.000000
25363.000000,10434.000000,14206.000000,55014.000000
25312.000000,10410.000000,14312.000000,55015.000000
25373.000000,10354.000000,14201.000000,55015.000000
25366.000000,10412.000000,14364.000000,55039.000000
25323.000000,10443.000000,14258.000000,54960.000000
25311.000000,10387.000000,14297.000000,55030.000000
25235.000000,10408.000000,14228.000000,54965.000000
25267.000000,10422.000000,14260.000000,54934.000000
25362.000000,10337.000000,14193.000000,54915.000000
25340.000000,10360.000000,14222.000000,54911.000000
25287.000000,10358.000000,14202.000000,54913.000000
25287.000000,10396.000000,14184.000000,54876.000000
25194.000000,10339.000000,14165.000000,54978.000000
25314.000000,10396.000000,14191.000000,54992.000000
25201.000000,10349.000000,14099.000000,54896.000000
25179.000000,10336.000000,14060.000000,54919.000000
25211.000000,10338.000000,14140.000000,54814.000000
25226.000000,10299.000000,14133.000000,54903.000000
25204.000000,10285.000000,14152.000000,54892.000000
25183.000000,10275.000000,14096.000000,55006.000000
25202.000000,10246.000000,14036.000000,54814.000000
25208.000000,10319.000000,14088.000000,54793.000000
25156.000000,10310.000000,14040.000000,54770.000000
25191.000000,10259.000000,14036.000000,54862.000000
25207.000000,10233.000000,14012.000000,54931.000000
25135.000000,10288.000000,14003.000000,54641.000000
25065.000000,10243.000000,13973.000000,54796.000000
25069.000000,10240.000000,13948.000000,54817.000000
25013.000000,10323.000000,14004.000000,54795.000000
25127.000000,10241.000000,13944.000000,54800.000000
25119.000000,10120.000000,13899.000000,54785.000000
25088.000000,10280.000000,13885.000000,54929.000000
25043.000000,10153.000000,13807.000000,54752.000000
25094.000000,10272.000000,13945.000000,54708.000000
25030.000000,10223.000000,13947.000000,54807.000000
25044.000000,10204.000000,13970.000000,54745.000000
25088.000000,10185.000000,13941.000000,54787.000000
25035.000000,10132.000000,13907.000000,54761.000000
25034.000000,10125.000000,13956.000000,54798.000000
25034.000000,10149.000000,13835.000000,54783.000000
24950.000000,10183.000000,13877.000000,54694.000000
25046.000000,10142.000000,13856.000000,54776.000000
24995.000000,10234.000000,13854.000000,54671.000000
24990.000000,10113.000000,13842.000000,54734.000000
24956.000000,10163.000000,13873.000000,54717.000000
25067.000000,10194.000000,13924.000000,54757.000000
25029.000000,10155.000000,13852.000000,54719.000000
24973.000000,10244.000000,13901.000000,54775.000000
24985.000000,10176.000000,13854.000000,54737.000000
24943.000000,10179.000000,13863.000000,54682.000000
25041.000000,10100.000000,13893.000000,54732.000000
25043.000000,10036.000000,13828.000000,54745.000000
24860.000000,10120.000000,13864.000000,54723.000000
25045.000000,10219.000000,13789.000000,54757.000000
24914.000000,10134.000000,13858.000000,54681.000000
24925.000000,10094.000000,13894.000000,54628.000000
24990.000000,10131.000000,13846.000000,54665.000000
24923.000000,10118.000000,13800.000000,54730.000000
24857.000000,10050.000000,13824.000000,54700.000000
24854.000000,10089.000000,13796.000000,54621.000000
24840.000000,10062.000000,13717.000000,54714.000000
24827.000000,10121.000000,13680.000000,54617.000000
24839.000000,10064.000000,13773.000000,54576.000000
24799.000000,10028.000000,13790.000000,54632.000000
24788.000000,10007.000000,13755.000000,54593.000000
24874.000000,10022.000000,13696.000000,54632.000000
24856.000000,10002.000000,13624.000000,54584.000000
24750.000000,9960.000000,13712.000000,54649.000000
24804.000000,9894.000000,13702.000000,54511.000000
24779.000000,9990.000000,13698.000000,54602.000000
24766.000000,9919.000000,13630.000000,54609.000000
24913.000000,9935.000000,13624.000000,54636.000000
24808.000000,10018.000000,13653.000000,54555.000000
24884.000000,10021.000000,13640.000000,54586.000000
24878.000000,9979.000000,13654.000000,54563.000000
24808.000000,9964.000000,13707.000000,54621.000000
24945.000000,9952.000000,13874.000000,54604.000000
24829.000000,9932.000000,13700.000000,54655.000000
24831.000000,10021.000000,13692.000000,54600.000000
24822.000000,9945.000000,13737.000000,54578.000000
24883.000000,10016.000000,13728.000000,54669.000000
24853.000000,9989.000000,13758.000000,54622.000000
24889.000000,9963.000000,13758.000000,54633.000000
24773.000000,9932.000000,13752.000000,54638.000000
24890.000000,9991.000000,13761.000000,54774.000000
24866.000000,9985.000000,13677.000000,54721.000000
24826.000000,10041.000000,13838.000000,54760.000000
24955.000000,10085.000000,13759.000000,54686.000000
24968.000000,10096.000000,13856.000000,54684.000000
24931.000000,10070.000000,13927.000000,54731.000000
24939.000000,10020.000000,13797.000000,54668.000000
24904.000000,10065.000000,13873.000000,54702.000000
24932.000000,10150.000000,13914.000000,54871.000000
25007.000000,10090.000000,13952.000000,54807.000000
25026.000000,10180.000000,13940.000000,54791.000000
25110.000000,10136.000000,14001.000000,54790.000000
25264.000000,10121.000000,14135.000000,54868.000000
25169.000000,10274.000000,14061.000000,54840.000000
25219.000000,10312.000000,14259.000000,54846.000000
25260.000000,10340.000000,14160.000000,54947.000000
25294.000000,10293.000000,14249.000000,55035.000000
25325.000000,10427.000000,14328.000000,54925.000000
25260.000000,10356.000000,14336.000000,54978.000000
25382.000000,10358.000000,14426.000000,54992.000000
25412.000000,10437.000000,14409.000000,55056.000000
25520.000000,10534.000000,14402.000000,54979.000000
25409.000000,10427.000000,14354.000000,55112.000000
25439.000000,10528.000000,14439.000000,55120.000000
25575.000000,10513.000000,14459.000000,55104.000000
25614.000000,10453.000000,14421.000000,55031.000000
25505.000000,10494.000000,14539.000000,55139.000000
25550.000000,10556.000000,14462.000000,55146.000000
25535.000000,10520.000000,14441.000000,55089.000000
25490.000000,10554.000000,14521.000000,55109.000000
25605.000000,10547.000000,14468.000000,55099.000000
25458.000000,10548.000000,14547.000000,55137.000000
25522.000000,10417.000000,14373.000000,55020.000000
25392.000000,10528.000000,14531.000000,54991.000000
25437.000000,10480.000000,14472.000000,55024.000000
25518.000000,10427.000000,14408.000000,54958.000000
25372.000000,10473.000000,14480.000000,55046.000000
25347.000000,10449.000000,14407.000000,55081.000000
25462.000000,10499.000000,14456.000000,55064.000000
25411.000000,10532.000000,14334.000000,55066.000000
25407.000000,10502.000000,14493.000000,55075.000000
25526.000000,10426.000000,14418.000000,54990.000000
25457.000000,10403.000000,14365.000000,55077.000000
25378.000000,10438.000000,14434.000000,55008.000000
25552.000000,10412.000000,14375.000000,55032.000000
25406.000000,10436.000000,14485.000000,54893.000000
25492.000000,10484.000000,14375.000000,54950.000000
25408.000000,10395.000000,14418.000000,54953.000000
25471.000000,10442.000000,14391.000000,55131.000000
25360.000000,10354.000000,14377.000000,55115.000000
25417.000000,10426.000000,14407.000000,54987.000000
25369.000000,10439.000000,14389.000000,55068.000000
25424.000000,10426.000000,14391.000000,55009.000000
25336.000000,10476.000000,14316.000000,55064.000000
25447.000000,10432.000000,14420.000000,55047.000000
25370.000000,10373.000000,14337.000000,55036.000000
25472.000000,10481.000000,14381.000000,54977.000000
25384.000000,10354.000000,14422.000000,55084.000000
25334.000000,10424.000000,14459.000000,55024.000000
25341.000000,10402.000000,14298.000000,55052.000000
25336.000000,10362.000000,14452.000000,55008.000000
25384.000000,10358.000000,14304.000000,55001.000000
25398.000000,10348.000000,14373.000000,55032.000000
25381.000000,10327.000000,14297.000000,55062.000000
25400.000000,10458.000000,14301.000000,54898.000000
25373.000000,10407.000000,14271.000000,54996.000000
25248.000000,10368.000000,14361.000000,54979.000000
25353.000000,10347.000000,14330.000000,55034.000000
25236.000000,10320.000000,14282.000000,55010.000000
25312.000000,10335.000000,14324.000000,54989.000000
25250.000000,10294.000000,14238.000000,54941.000000
25349.000000,10365.000000,14194.000000,54898.000000
25250.000000,10441.000000,14360.000000,55030.000000
25307.000000,10320.000000,14215.000000,54838.000000
25166.000000,10275.000000,14233.000000,54914.000000
25193.000000,10396.000000,14239.000000,54951.000000
25203.000000,10230.000000,14230.000000,54929.000000
25284.000000,10214.000000,14233.000000,54941.000000
25287.000000,10203.000000,14280.000000,54925.000000
25126.000000,10233.000000,14110.000000,54788.000000
25221.000000,10248.000000,14179.000000,54964.000000
25197.000000,10267.000000,14162.000000,54943.000000
25282.000000,10269.000000,14189.000000,54898.000000
25213.000000,10303.000000,14181.000000,54835.000000
25225.000000,10181.000000,14172.000000,54920.000000
25162.000000,10089.000000,14221.000000,54816.000000
25175.000000,10334.000000,13994.000000,55075.000000
25155.000000,10133.000000,14116.000000,55103.000000
25152.000000,10106.000000,14171.000000,54917.000000
25177.000000,10236.000000,14155.000000,54843.000000
25107.000000,10151.000000,14159.000000,54858.000000
25130.000000,10167.000000,14127.000000,54786.000000
25135.000000,10251.000000,14016.000000,54906.000000
25142.000000,10190.000000,14071.000000,54931.000000
24998.000000,10231.000000,14014.000000,54877.000000
25116.000000,10134.000000,14040.000000,54851.000000
25065.000000,10098.000000,14055.000000,54919.000000
25145.000000,10218.000000,14067.000000,54855.000000
25079.000000,10228.000000,14024.000000,54845.000000
25063.000000,10259.000000,14026.000000,54844.000000
25079.000000,10040.000000,14063.000000,54794.000000
25065.000000,10293.000000,14169.000000,54899.000000
25201.000000,10135.000000,14043.000000,54836.000000
25059.000000,10149.000000,14019.000000,54824.000000
25160.000000,10140.000000,13986.000000,54884.000000
25089.000000,10075.000000,13994.000000,54879.000000
24960.000000,10171.000000,13953.000000,54921.000000
24953.000000,10257.000000,14016.000000,54922.000000
25112.000000,10090.000000,13991.000000,54801.000000
25081.000000,10149.000000,13978.000000,54873.000000
25047.000000,10126.000000,13964.000000,54872.000000
25031.000000,10124.000000,13977.000000,54787.000000
25043.000000,10117.000000,14010.000000,54803.000000
25055.000000,10094.000000,13876.000000,54800.000000
25004.000000,10176.000000,13923.000000,54724.000000
24985.000000,10076.000000,14008.000000,54758.000000
24926.000000,10034.000000,13841.000000,54813.000000
25018.000000,10010.000000,14026.000000,54765.000000
24947.000000,10030.000000,13886.000000,54704.000000
24881.000000,10035.000000,13870.000000,54731.000000
25065.000000,10024.000000,13822.000000,54733.000000
24873.000000,9999.000000,13870.000000,54723.000000
24902.000000,9976.000000,13873.000000,54684.000000
24937.000000,10060.000000,13842.000000,54719.000000
24937.000000,10057.000000,13846.000000,54763.000000
24889.000000,9997.000000,13791.000000,54649.000000
24908.000000,9928.000000,13858.000000,54684.000000
24815.000000,10079.000000,13863.000000,54821.000000
24884.000000,9982.000000,13702.000000,54684.000000
24869.000000,9978.000000,13861.000000,54736.000000
24846.000000,9970.000000,13878.000000,54736.000000
24833.000000,9889.000000,13881.000000,54694.000000
24872.000000,9998.000000,13771.000000,54710.000000
24857.000000,10031.000000,13743.000000,54757.000000
24820.000000,9966.000000,13856.000000,54661.000000
24891.000000,9973.000000,13823.000000,54763.000000
24877.000000,9966.000000,13832.000000,54740.000000
24856.000000,9943.000000,13927.000000,54688.000000
24884.000000,9995.000000,13894.000000,54735.000000
24879.000000,9906.000000,13795.000000,54697.000000
24880.000000,9976.000000,13867.000000,54722.000000
24938.000000,10014.000000,13886.000000,54724.000000
24898.000000,9985.000000,13896.000000,54735.000000
24858.000000,9962.000000,13950.000000,54750.000000
24958.000000,10018.000000,13978.000000,54726.000000
24947.000000,9994.000000,13923.000000,54787.000000
24983.000000,9919.000000,13944.000000,54847.000000
25010.000000,10072.000000,13945.000000,54732.000000
25092.000000,10135.000000,13998.000000,54810.000000
24954.000000,10040.000000,14016.000000,54743.000000
24995.000000,9937.000000,13965.000000,54793.000000
25032.000000,10084.000000,13987.000000,54875.000000
25127.000000,10058.000000,14034.000000,54862.000000
25118.000000,10088.000000,13992.000000,54835.000000
25109.000000,10107.000000,14147.000000,54889.000000
25146.000000,10131.000000,14155.000000,54906.000000
25187.000000,10184.000000,14128.000000,54970.000000
25137.000000,10167.000000,14181.000000,54983.000000
25256.000000,10242.000000,14196.000000,55062.000000
25240.000000,10245.000000,14289.000000,55010.000000
25354.000000,10314.000000,14343.000000,55067.000000
25310.000000,10289.000000,14323.000000,55094.000000
25438.000000,10386.000000,14436.000000,55066.000000
25430.000000,10438.000000,14471.000000,55133.000000
25471.000000,10481.000000,14529.000000,55123.000000
25496.000000,10446.000000,14560.000000,55142.000000
25517.000000,10433.000000,14580.000000,55164.000000
25542.000000,10432.000000,14619.000000,55179.000000
25470.000000,10445.000000,14598.000000,55198.000000
25560.000000,10457.000000,14572.000000,55127.000000
25621.000000,10590.000000,14592.000000,55198.000000
25535.000000,10488.000000,14619.000000,55070.000000
25605.000000,10439.000000,14591.000000,55222.000000
25484.000000,10442.000000,14570.000000,55164.000000
25599.000000,10582.000000,14423.000000,55222.000000
25559.000000,10431.000000,14562.000000,55117.000000
25476.000000,10452.000000,14560.000000,55142.000000
25554.000000,10452.000000,14656.000000,55128.000000
25526.000000,10355.000000,14581.000000,55176.000000
25533.000000,10426.000000,14504.000000,55175.000000
25478.000000,10395.000000,14516.000000,55033.000000
25476.000000,10397.000000,14603.000000,55123.000000
25514.000000,10458.000000,14505.000000,55234.000000
25577.000000,10414.000000,14494.000000,55089.000000
25501.000000,10499.000000,14472.000000,55173.000000
25504.000000,10428.000000,14475.000000,55143.000000
25489.000000,10348.000000,14491.000000,55066.000000
25499.000000,10440.000000,14480.000000,55201.000000
25439.000000,10412.000000,14498.000000,55166.000000
25450.000000,10276.000000,14541.000000,55076.000000
25454.000000,10386.000000,14447.000000,55127.000000
25409.000000,10437.000000,14517.000000,55088.000000
25435.000000,10447.000000,14431.000000,55135.000000
25545.000000,10419.000000,14519.000000,55114.000000
25425.000000,10401.000000,14411.000000,55041.000000
25458.000000,10375.000000,14524.000000,55053.000000
25407.000000,10343.000000,14410.000000,55198.000000
25415.000000,10276.000000,14406.000000,55206.000000
25439.000000,10314.000000,14430.000000,55067.000000
25473.000000,10345.000000,14427.000000,55095.000000
25289.000000,10260.000000,14468.000000,55100.000000
25478.000000,10312.000000,14479.000000,54975.000000
25326.000000,10394.000000,14506.000000,55171.000000
25334.000000,10226.000000,14337.000000,55075.000000
25469.000000,10327.000000,14369.000000,55034.000000
25367.000000,10297.000000,14382.000000,55034.000000
25359.000000,10355.000000,14413.000000,54992.000000
25325.000000,10229.000000,14448.000000,55072.000000
25343.000000,10297.000000,14328.000000,55032.000000
25345.000000,10299.000000,14401.000000,55062.000000
25341.000000,10320.000000,14327.000000,55067.000000
25359.000000,10280.000000,14351.000000,54961.000000
25316.000000,10283.000000,14339.000000,55017.000000
25309.000000,10218.000000,14350.000000,55069.000000
25354.000000,10206.000000,14312.000000,55020.000000
25297.000000,10430.000000,14268.000000,54980.000000
25295.000000,10255.000000,14276.000000,55031.000000
25361.000000,10252.000000,14254.000000,55010.000000
25315.000000,10249.000000,14282.000000,55020.000000
25301.000000,10227.000000,14269.000000,55048.000000
25264.000000,10218.000000,14315.000000,54989.000000
25167.000000,10225.000000,14206.000000,55102.000000
25282.000000,10236.000000,14352.000000,54974.000000
25320.000000,10232.000000,14296.000000,54953.000000
25218.000000,10184.000000,14296.000000,54990.000000
25230.000000,10180.000000,14267.000000,55018.000000
25260.000000,10229.000000,14242.000000,54949.000000
25217.000000,10400.000000,14229.000000,54959.000000
25301.000000,10352.000000,14237.000000,54905.000000
25242.000000,10236.000000,14249.000000,54948.000000
25307.000000,10268.000000,14224.000000,54955.000000
25224.000000,10158.000000,14147.000000,55035.000000
25191.000000,10148.000000,14170.000000,54992.000000
25168.000000,10134.000000,14206.000000,54937.000000
25221.000000,10192.000000,14188.000000,55008.000000
25136.000000,10104.000000,14281.000000,54955.000000
25142.000000,10203.000000,14270.000000,54981.000000
25139.000000,10114.000000,14210.000000,54935.000000
25192.000000,10070.000000,14176.000000,54957.000000
25123.000000,10192.000000,14199.000000,54899.000000
25177.000000,10089.000000,14181.000000,54952.000000
25098.000000,10109.000000,14148.000000,54929.000000
25180.000000,10151.000000,14079.000000,54955.000000
25125.000000,10029.000000,14109.000000,54870.000000
25094.000000,10054.000000,14076.000000,54867.000000
25027.000000,10105.000000,14128.000000,54884.000000
25163.000000,10094.000000,14080.000000,54915.000000
25004.000000,10018.000000,14130.000000,54884.000000
25104.000000,10140.000000,14010.000000,54872.000000
25108.000000,10056.000000,13992.000000,54848.000000
25171.000000,10111.000000,14125.000000,54846.000000
25063.000000,10089.000000,14107.000000,54889.000000
25144.000000,10030.000000,14104.000000,54819.000000
25089.000000,10069.000000,14091.000000,54890.000000
25134.000000,9995.000000,14041.000000,54926.000000
25132.000000,10062.000000,13971.000000,54743.000000
25052.000000,9965.000000,14028.000000,54881.000000
25005.000000,10039.000000,14012.000000,54841.000000
25040.000000,9992.000000,13990.000000,54841.000000
24894.000000,10005.000000,13959.000000,54849.000000
24926.000000,10007.000000,13998.000000,54803.000000
24940.000000,10005.000000,13922.000000,54846.000000
24940.000000,9994.000000,14192.000000,54683.000000
24940.000000,9994.000000,14001.000000,54784.000000
24949.000000,9960.000000,13926.000000,54786.000000
24945.000000,9917.000000,13989.000000,54845.000000
24965.000000,10028.000000,14028.000000,54744.000000
25042.000000,9981.000000,13936.000000,54794.000000
24956.000000,9972.000000,13944.000000,54717.000000
24988.000000,9954.000000,13989.000000,54817.000000
24861.000000,9924.000000,13858.000000,54807.000000
24939.000000,9892.000000,13931.000000,54822.000000
24945.000000,9960.000000,14043.000000,54786.000000
24981.000000,9925.000000,13979.000000,54863.000000
24916.000000,10183.000000,14006.000000,54699.000000
24996.000000,9962.000000,14071.000000,54883.000000
24948.000000,9942.000000,14100.000000,54789.000000
24947.000000,9964.000000,14117.000000,54954.000000
24971.000000,9961.000000,14018.000000,54815.000000
24930.000000,9996.000000,13976.000000,54757.000000
25003.000000,9848.000000,14007.000000,54778.000000
24995.000000,10108.000000,14058.000000,54920.000000
24947.000000,9994.000000,14087.000000,54832.000000
24995.000000,9899.000000,14101.000000,54900.000000
24984.000000,10105.000000,14110.000000,54784.000000
24998.000000,10139.000000,14068.000000,54894.000000
24905.000000,10115.000000,14119.000000,54924.000000
25033.000000,10032.000000,14189.000000,54965.000000
25006.000000,10087.000000,14175.000000,54933.000000
25125.000000,10134.000000,14154.000000,54900.000000
25116.000000,10102.000000,14163.000000,54929.000000
25145.000000,10081.000000,14228.000000,54890.000000
25097.000000,10171.000000,14168.000000,54966.000000
25180.000000,10202.000000,14271.000000,54971.000000
25187.000000,10201.000000,14292.000000,54979.000000
25233.000000,10173.000000,14333.000000,55046.000000
25192.000000,10227.000000,14324.000000,55067.000000
25290.000000,10321.000000,14317.000000,55065.000000
25281.000000,10258.000000,14459.000000,55061.000000
25309.000000,10274.000000,14460.000000,55085.000000
25403.000000,10387.000000,14532.000000,55127.000000
25421.000000,10381.000000,14604.000000,55174.000000
25410.000000,10350.000000,14584.000000,55334.000000
25485.000000,10390.000000,14605.000000,55124.000000
25536.000000,10550.000000,14653.000000,55264.000000
25607.000000,10569.000000,14727.000000,55227.000000
25603.000000,10528.000000,14842.000000,55324.000000
25605.000000,10606.000000,14788.000000,55316.000000
25699.000000,10531.000000,14878.000000,55401.000000
25620.000000,10664.000000,14776.000000,55460.000000
25766.000000,10530.000000,14836.000000,55269.000000
25679.000000,10685.000000,14892.000000,55332.000000
25646.000000,10623.000000,14843.000000,55357.000000
25671.000000,10556.000000,14792.000000,55305.000000
25678.000000,10495.000000,14872.000000,55349.000000
25628.000000,10516.000000,15014.000000,55312.000000
25693.000000,10542.000000,14738.000000,55304.000000
25601.000000,10561.000000,14866.000000,55327.000000
25628.000000,10535.000000,14824.000000,55310.000000
25657.000000,10578.000000,14844.000000,55412.000000
25667.000000,10572.000000,14892.000000,55296.000000
25677.000000,10572.000000,14831.000000,55280.000000
25620.000000,10506.000000,14782.000000,55144.000000
25676.000000,10547.000000,14712.000000,55303.000000
25567.000000,10601.000000,14861.000000,55242.000000
25572.000000,10537.000000,14691.000000,55343.000000
25670.000000,10559.000000,14714.000000,55183.000000
25599.000000,10578.000000,14772.000000,55336.000000
25533.000000,10557.000000,14579.000000,55222.000000
25537.000000,10491.000000,14783.000000,55302.000000
25599.000000,10530.000000,14793.000000,55282.000000
25604.000000,10495.000000,14665.000000,55278.000000
25583.000000,10510.000000,14761.000000,55180.000000
25548.000000,10460.000000,14688.000000,55217.000000
25658.000000,10585.000000,14748.000000,55215.000000
25567.000000,10509.000000,14678.000000,55193.000000
25590.000000,10479.000000,14783.000000,55254.000000
25521.000000,10541.000000,14589.000000,55277.000000
25519.000000,10452.000000,14617.000000,55280.000000
25513.000000,10440.000000,14669.000000,55265.000000
25578.000000,10404.000000,14614.000000,55180.000000
25511.000000,10426.000000,14646.000000,55198.000000
25503.000000,10469.000000,14652.000000,55238.000000
25454.000000,10307.000000,14644.000000,55214.000000
25460.000000,10506.000000,14615.000000,55150.000000
25481.000000,10337.000000,14609.000000,55124.000000
25575.000000,10417.000000,14619.000000,55098.000000
25482.000000,10396.000000,14585.000000,55198.000000
25420.000000,10417.000000,14600.000000,55033.000000
25503.000000,10345.000000,14621.000000,55146.000000
25421.000000,10404.000000,14450.000000,55184.000000
25392.000000,10460.000000,14558.000000,55172.000000
25391.000000,10336.000000,14510.000000,55196.000000
25454.000000,10332.000000,14522.000000,55212.000000
25561.000000,10402.000000,14527.000000,55237.000000
25504.000000,10434.000000,14557.000000,55138.000000
25419.000000,10346.000000,14572.000000,55139.000000
25400.000000,10341.000000,14469.000000,55127.000000
25428.000000,10352.000000,14524.000000,55043.000000
25434.000000,10361.000000,14510.000000,55162.000000
25343.000000,10355.000000,14505.000000,55163.000000
25320.000000,10370.000000,14547.000000,55065.000000
25224.000000,10357.000000,14438.000000,55065.000000
25358.000000,10394.000000,14638.000000,55096.000000
25375.000000,10346.000000,14456.000000,55229.000000
25412.000000,10375.000000,14503.000000,55149.000000
25312.000000,10298.000000,14390.000000,55112.000000
25302.000000,10302.000000,14536.000000,55129.000000
25352.000000,10322.000000,14566.000000,55192.000000
25188.000000,10282.000000,14379.000000,55135.000000
25243.000000,10302.000000,14510.000000,55096.000000
25362.000000,10267.000000,14427.000000,55152.000000
25293.000000,10270.000000,14458.000000,55155.000000
25281.000000,10307.000000,14403.000000,55088.000000
25436.000000,10408.000000,14450.000000,55113.000000
25245.000000,10266.000000,14523.000000,55033.000000
25264.000000,10298.000000,14454.000000,55024.000000
25256.000000,10357.000000,14407.000000,55064.000000
25248.000000,10268.000000,14457.000000,55081.000000
25323.000000,10226.000000,14492.000000,55127.000000
25327.000000,10218.000000,14413.000000,55061.000000
25299.000000,10308.000000,14331.000000,55100.000000
25292.000000,10281.000000,14446.000000,55052.000000
25259.000000,10314.000000,14426.000000,55126.000000
25361.000000,10282.000000,14450.000000,55082.000000
25276.000000,10267.000000,14479.000000,55102.000000
25350.000000,10174.000000,14330.000000,55068.000000
25268.000000,10266.000000,14375.000000,55080.000000
25320.000000,10212.000000,14452.000000,54944.000000
25193.000000,10346.000000,14418.000000,55067.000000
25231.000000,10204.000000,14353.000000,55082.000000
25210.000000,10253.000000,14334.000000,55061.000000
25243.000000,10253.000000,14357.000000,55084.000000
25195.000000,10258.000000,14387.000000,55141.000000
25265.000000,10299.000000,14438.000000,55124.000000
25156.000000,10258.000000,14356.000000,55083.000000
25251.000000,10172.000000,14366.000000,55047.000000
25244.000000,10237.000000,14274.000000,54985.000000
25212.000000,10176.000000,14311.000000,55037.000000
25235.000000,10253.000000,14378.000000,55012.000000
25217.000000,10193.000000,14227.000000,55007.000000
25056.000000,10138.000000,14229.000000,54864.000000
25031.000000,10099.000000,14284.000000,54846.000000
25052.000000,10115.000000,14310.000000,54992.000000
25130.000000,10121.000000,14221.000000,55015.000000
25131.000000,10184.000000,14264.000000,55045.000000
24993.000000,10158.000000,14244.000000,54994.000000
25097.000000,10167.000000,14249.000000,55053.000000
25217.000000,10148.000000,14250.000000,54959.000000
25083.000000,10172.000000,14222.000000,54897.000000
25110.000000,10095.000000,14287.000000,54940.000000
25069.000000,10116.000000,14273.000000,54996.000000
25065.000000,10239.000000,14370.000000,55003.000000
25015.000000,10050.000000,14254.000000,54928.000000
25109.000000,10088.000000,14225.000000,55032.000000
25082.000000,10133.000000,14298.000000,54950.000000
25190.000000,10289.000000,14212.000000,54962.000000
25097.000000,10149.000000,14258.000000,54950.000000
25125.000000,10152.000000,14285.000000,54976.000000
25097.000000,10180.000000,14342.000000,55055.000000
25101.000000,10170.000000,14288.000000,54995.000000
25108.000000,10211.000000,14336.000000,54959.000000
25169.000000,10241.000000,14273.000000,55112.000000
25166.000000,10236.000000,14309.000000,54935.000000
25232.000000,10226.000000,14349.000000,55056.000000
25226.000000,10151.000000,14371.000000,55120.000000
25162.000000,10193.000000,14409.000000,55055.000000
25200.000000,10157.000000,14387.000000,55044.000000
25191.000000,10282.000000,14432.000000,55057.000000
25270.000000,10292.000000,14495.000000,55062.000000
25326.000000,10422.000000,14505.000000,55150.000000
25329.000000,10354.000000,14570.000000,55187.000000
25438.000000,10407.000000,14643.000000,55181.000000
25381.000000,10370.000000,14655.000000,55142.000000
25501.000000,10456.000000,14639.000000,55245.000000
25535.000000,10489.000000,14732.000000,55261.000000
25572.000000,10527.000000,14798.000000,55176.000000
25556.000000,10516.000000,14805.000000,55281.000000
25579.000000,10490.000000,14963.000000,55387.000000
25764.000000,10529.000000,14888.000000,55329.000000
25630.000000,10636.000000,14883.000000,55375.000000
25654.000000,10583.000000,14986.000000,55426.000000
25697.000000,10660.000000,15046.000000,55405.000000
25861.000000,10740.000000,14933.000000,55392.000000
25733.000000,10643.000000,15068.000000,55525.000000
25760.000000,10705.000000,15017.000000,55477.000000
25795.000000,10697.000000,15050.000000,55506.000000
25729.000000,10771.000000,15013.000000,55498.000000
25781.000000,10587.000000,15170.000000,55458.000000
25722.000000,10655.000000,14829.000000,55346.000000
25746.000000,10722.000000,14959.000000,55435.000000
25825.000000,10709.000000,14976.000000,55362.000000
25747.000000,10699.000000,14972.000000,55449.000000
25625.000000,10651.000000,15003.000000,55496.000000
25698.000000,10688.000000,15052.000000,55404.000000
25728.000000,10775.000000,14920.000000,55395.000000
25632.000000,10621.000000,14908.000000,55426.000000
25775.000000,10669.000000,14956.000000,55364.000000
25679.000000,10622.000000,14979.000000,55449.000000
25758.000000,10667.000000,14917.000000,55391.000000
25573.000000,10729.000000,14960.000000,55389.000000
25548.000000,10622.000000,14996.000000,55344.000000
25663.000000,10566.000000,14926.000000,55325.000000
25619.000000,10634.000000,14917.000000,55436.000000
25659.000000,10645.000000,14903.000000,55346.000000
25609.000000,10586.000000,14881.000000,55367.000000
25490.000000,10545.000000,14967.000000,55337.000000
25574.000000,10591.000000,15014.000000,55402.000000
25566.000000,10545.000000,14816.000000,55321.000000
25644.000000,10603.000000,14978.000000,55295.000000
25585.000000,10536.000000,14816.000000,55347.000000
25600.000000,10617.000000,14905.000000,55217.000000
25581.000000,10591.000000,14823.000000,55236.000000
25616.000000,10570.000000,14825.000000,55278.000000
25532.000000,10549.000000,14916.000000,55299.000000
25534.000000,10460.000000,14773.000000,55372.000000
25495.000000,10525.000000,14962.000000,55314.000000
25532.000000,10580.000000,14846.000000,55258.000000
25530.000000,10530.000000,14845.000000,55301.000000
25581.000000,10519.000000,14787.000000,55308.000000
25566.000000,10532.000000,14808.000000,55310.000000
25452.000000,10495.000000,14737.000000,55312.000000
25526.000000,10418.000000,14695.000000,55293.000000
25608.000000,10524.000000,14733.000000,55288.000000
25576.000000,10504.000000,14724.000000,55264.000000
25452.000000,10444.000000,14804.000000,55366.000000
25503.000000,10425.000000,14732.000000,55202.000000
25526.000000,10529.000000,14657.000000,55268.000000
25499.000000,10403.000000,14698.000000,55309.000000
25504.000000,10555.000000,14675.000000,55244.000000
25592.000000,10462.000000,14702.000000,55250.000000
25397.000000,10448.000000,14715.000000,55282.000000
25432.000000,10450.000000,14740.000000,55304.000000
25473.000000,10480.000000,14702.000000,55244.000000
25584.000000,10470.000000,14590.000000,55273.000000
25435.000000,10397.000000,14642.000000,55380.000000
25412.000000,10512.000000,14784.000000,55241.000000
25442.000000,10391.000000,14675.000000,55247.000000
25407.000000,10411.000000,14683.000000,55196.000000
25506.000000,10427.000000,14572.000000,55201.000000
25412.000000,10409.000000,14606.000000,55305.000000
25350.000000,10418.000000,14607.000000,55193.000000
25390.000000,10466.000000,14576.000000,55195.000000
25334.000000,10386.000000,14570.000000,55191.000000
25393.000000,10414.000000,14628.000000,55215.000000
25353.000000,10346.000000,14553.000000,55160.000000
25347.000000,10362.000000,14571.000000,55167.000000
25279.000000,10308.000000,14564.000000,55173.000000
25355.000000,10408.000000,14589.000000,55163.000000
25322.000000,10394.000000,14593.000000,55233.000000
25404.000000,10304.000000,14503.000000,55249.000000
25366.000000,10325.000000,14518.000000,55144.000000
25268.000000,10339.000000,14508.000000,55190.000000
25257.000000,10377.000000,14492.000000,55147.000000
25368.000000,10254.000000,14460.000000,55202.000000
25311.000000,10427.000000,14617.000000,55127.000000
25273.000000,10358.000000,14464.000000,55117.000000
25323.000000,10320.000000,14420.000000,55123.000000
25242.000000,10321.000000,14465.000000,55171.000000
25240.000000,10250.000000,14466.000000,55110.000000
25273.000000,10281.000000,14521.000000,55161.000000
25278.000000,10297.000000,14458.000000,55115.000000
25242.000000,10331.000000,14332.000000,55112.000000
25258.000000,10255.000000,14471.000000,55083.000000
25171.000000,10315.000000,14357.000000,55082.000000
25250.000000,10274.000000,14411.000000,55079.000000
25201.000000,10303.000000,14452.000000,55005.000000
25272.000000,10317.000000,14414.000000,55139.000000
25173.000000,10263.000000,14438.000000,55157.000000
25293.000000,10206.000000,14511.000000,55049.000000
25165.000000,10233.000000,14458.000000,55054.000000
25247.000000,10226.000000,14408.000000,55132.000000
25243.000000,10282.000000,14385.000000,55092.000000
25183.000000,10252.000000,14419.000000,55020.000000
25137.000000,10231.000000,14370.000000,55043.000000
25153.000000,10285.000000,14398.000000,55073.000000
25161.000000,10197.000000,14446.000000,55028.000000
25117.000000,10045.000000,14238.000000,55072.000000
25137.000000,10183.000000,14280.000000,54987.000000
25015.000000,10130.000000,14297.000000,55053.000000
25077.000000,10169.000000,14296.000000,55027.000000
25165.000000,10248.000000,14279.000000,55025.000000
25072.000000,10084.000000,14390.000000,54966.000000
25000.000000,10058.000000,14172.000000,55144.000000
25079.000000,10076.000000,14320.000000,55010.000000
25036.000000,10168.000000,14325.000000,55038.000000
25081.000000,10155.000000,14297.000000,54950.000000
25130.000000,10179.000000,14301.000000,54953.000000
25077.000000,10155.000000,14288.000000,55004.000000
25123.000000,10103.000000,14249.000000,55007.000000
25070.000000,10006.000000,14299.000000,54921.000000
25008.000000,10137.000000,14264.000000,54983.000000
25080.000000,10027.000000,14288.000000,54990.000000
25010.000000,10207.000000,14389.000000,55020.000000
25066.000000,10108.000000,14271.000000,55063.000000
25070.000000,10130.000000,14294.000000,54891.000000
25099.000000,10126.000000,14290.000000,55029.000000
25122.000000,10136.000000,14303.000000,54929.000000
25024.000000,10164.000000,14315.000000,55078.000000
25054.000000,10228.000000,14292.000000,55055.000000
25052.000000,10233.000000,14289.000000,55043.000000
25116.000000,10134.000000,14298.000000,55006.000000
25076.000000,10144.000000,14175.000000,55008.000000
25102.000000,10168.000000,14320.000000,54979.000000
25190.000000,10170.000000,14269.000000,54849.000000
25164.000000,10170.000000,14305.000000,55078.000000
25148.000000,10211.000000,14316.000000,55055.000000
25117.000000,10142.000000,14371.000000,55053.000000
25289.000000,10251.000000,14439.000000,55097.000000
25179.000000,10258.000000,14435.000000,54940.000000
25255.000000,10419.000000,14499.000000,55043.000000
25250.000000,10339.000000,14552.000000,55125.000000
25329.000000,10410.000000,14577.000000,55164.000000
25347.000000,10382.000000,14599.000000,55271.000000
25416.000000,10385.000000,14633.000000,55215.000000
25554.000000,10414.000000,14607.000000,55189.000000
25407.000000,10387.000000,14693.000000,55393.000000
25650.000000,10442.000000,14833.000000,55392.000000
25563.000000,10574.000000,14810.000000,55301.000000
25535.000000,10537.000000,14869.000000,55417.000000
25691.000000,10604.000000,14893.000000,55385.000000
25616.000000,10585.000000,14912.000000,55352.000000
25796.000000,10600.000000,14904.000000,55404.000000
25703.000000,10661.000000,14836.000000,55279.000000
25728.000000,10519.000000,14925.000000,55391.000000
25830.000000,10654.000000,14865.000000,55412.000000
25746.000000,10634.000000,15008.000000,55392.000000
25699.000000,10601.000000,14894.000000,55427.000000
25644.000000,10605.000000,14937.000000,55337.000000
25691.000000,10431.000000,15083.000000,55343.000000
25644.000000,10575.000000,14875.000000,55514.000000
25643.000000,10591.000000,14881.000000,55382.000000
25647.000000,10647.000000,14972.000000,55362.000000
25698.000000,10565.000000,14884.000000,55340.000000
25727.000000,10591.000000,14941.000000,55386.000000
25704.000000,10587.000000,14858.000000,55343.000000
25626.000000,10574.000000,14874.000000,55317.000000
25579.000000,10580.000000,14868.000000,55499.000000
25716.000000,10536.000000,14820.000000,55341.000000
25635.000000,10539.000000,14845.000000,55328.000000
25587.000000,10547.000000,14743.000000,55281.000000
25669.000000,10477.000000,14790.000000,55322.000000
25578.000000,10527.000000,14818.000000,55309.000000
25640.000000,10587.000000,14816.000000,55295.000000
25550.000000,10500.000000,14691.000000,55267.000000
25630.000000,10552.000000,14804.000000,55331.000000
25588.000000,10571.000000,14773.000000,55260.000000
25550.000000,10538.000000,14797.000000,55337.000000
25553.000000,10474.000000,14754.000000,55323.000000
25607.000000,10476.000000,14794.000000,55310.000000
25520.000000,10501.000000,14810.000000,55228.000000
25606.000000,10488.000000,14774.000000,55321.000000
25615.000000,10441.000000,14728.000000,55273.000000
25508.000000,10542.000000,14774.000000,55264.000000
25479.000000,10417.000000,14708.000000,55306.000000
25569.000000,10429.000000,14830.000000,55395.000000
25597.000000,10373.000000,14814.000000,55292.000000
25540.000000,10438.000000,14795.000000,55284.000000
25505.000000,10617.000000,14763.000000,55231.000000
25525.000000,10473.000000,14756.000000,55271.000000
25507.000000,10369.000000,14742.000000,55254.000000
25444.000000,10459.000000,14706.000000,55278.000000
25476.000000,10439.000000,14708.000000,55197.000000
25450.000000,10311.000000,14775.000000,55307.000000
25502.000000,10436.000000,14682.000000,55214.000000
25465.000000,10446.000000,14606.000000,55197.000000
25412.000000,10456.000000,14645.000000,55266.000000
25514.000000,10560.000000,14558.000000,55200.000000
25394.000000,10389.000000,14616.000000,55203.000000
25365.000000,10387.000000,14619.000000,55186.000000
25444.000000,10447.000000,14568.000000,55129.000000
25517.000000,10375.000000,14564.000000,55261.000000
25409.000000,10371.000000,14552.000000,55205.000000
25402.000000,10327.000000,14515.000000,55172.000000
25350.000000,10337.000000,14606.000000,55227.000000
25468.000000,10309.000000,14626.000000,55291.000000
25354.000000,10338.000000,14424.000000,55098.000000
25471.000000,10366.000000,14538.000000,55127.000000
25358.000000,10294.000000,14462.000000,55173.000000
25428.000000,10337.000000,14590.000000,55154.000000
25311.000000,10277.000000,14585.000000,55120.000000
25281.000000,10353.000000,14552.000000,55124.000000
25264.000000,10330.000000,14521.000000,55145.000000
25286.000000,10147.000000,14518.000000,55126.000000
25313.000000,10374.000000,14509.000000,55153.000000
25233.000000,10269.000000,14541.000000,55096.000000
25337.000000,10295.000000,14418.000000,55099.000000
25257.000000,10241.000000,14410.000000,55140.000000
25280.000000,10324.000000,14451.000000,55101.000000
25319.000000,10294.000000,14525.000000,55116.000000
25346.000000,10315.000000,14443.000000,55146.000000
25108.000000,10186.000000,14356.000000,55136.000000
25290.000000,10252.000000,14424.000000,55086.000000
25299.000000,10264.000000,14383.000000,55062.000000
25281.000000,10230.000000,14472.000000,55088.000000
25267.000000,10245.000000,14432.000000,55120.000000
25290.000000,10263.000000,14494.000000,55053.000000
25263.000000,10280.000000,14460.000000,54974.000000
25348.000000,10206.000000,14396.000000,55090.000000
25225.000000,10250.000000,14444.000000,55190.000000
25120.000000,10179.000000,14429.000000,55028.000000
25260.000000,10208.000000,14444.000000,55140.000000
25219.000000,10247.000000,14349.000000,54982.000000
25208.000000,10192.000000,14450.000000,55109.000000
25313.000000,10177.000000,14249.000000,55036.000000
25237.000000,10300.000000,14370.000000,55093.000000
25163.000000,10271.000000,14447.000000,55029.000000
25183.000000,10231.000000,14349.000000,55060.000000
25136.000000,10173.000000,14372.000000,55088.000000
25189.000000,10186.000000,14345.000000,55073.000000
25237.000000,10248.000000,14406.000000,55044.000000
25191.000000,10334.000000,14433.000000,55009.000000
25222.000000,10180.000000,14480.000000,55028.000000
25209.000000,10216.000000,14389.000000,55033.000000
25158.000000,10195.000000,14421.000000,55079.000000
25198.000000,10167.000000,14359.000000,55075.000000
25211.000000,10168.000000,14318.000000,55000.000000
25150.000000,10198.000000,14377.000000,55056.000000
25218.000000,10222.000000,14403.000000,55191.000000
25113.000000,10144.000000,14225.000000,55081.000000
25153.000000,10210.000000,14347.000000,55032.000000
25049.000000,10140.000000,14346.000000,55037.000000
25134.000000,10170.000000,14250.000000,54997.000000
25209.000000,10148.000000,14270.000000,55068.000000
25088.000000,10109.000000,14253.000000,55053.000000
25074.000000,10076.000000,14242.000000,55019.000000
25092.000000,10113.000000,14209.000000,54954.000000
25010.000000,10033.000000,14175.000000,55057.000000
25048.000000,10134.000000,14221.000000,54947.000000
25052.000000,10098.000000,14235.000000,55038.000000
25020.000000,9978.000000,14180.000000,54949.000000
24981.000000,10024.000000,14336.000000,54981.000000
25027.000000,10076.000000,14187.000000,54936.000000
25026.000000,10067.000000,14193.000000,54941.000000
24928.000000,10101.000000,14198.000000,54929.000000
24953.000000,10060.000000,14131.000000,54895.000000
25052.000000,10087.000000,14077.000000,54981.000000
25017.000000,10032.000000,14196.000000,54866.000000
25066.000000,10093.000000,14135.000000,54835.000000
25082.000000,10206.000000,14179.000000,54964.000000
24981.000000,10131.000000,14243.000000,54930.000000
25045.000000,10096.000000,14182.000000,54955.000000
24985.000000,10028.000000,14163.000000,54976.000000
24905.000000,10104.000000,14097.000000,54965.000000
25066.000000,10145.000000,14178.000000,55022.000000
25179.000000,10213.000000,14290.000000,54932.000000
25011.000000,10092.000000,14242.000000,54982.000000
25031.000000,10064.000000,14219.000000,54940.000000
24986.000000,10168.000000,14162.000000,54944.000000
25157.000000,10136.000000,14290.000000,54967.000000
25018.000000,10145.000000,14239.000000,54891.000000
25093.000000,10238.000000,14342.000000,54970.000000
25059.000000,10037.000000,14306.000000,54955.000000
25115.000000,10194.000000,14205.000000,55043.000000
25029.000000,10185.000000,14319.000000,54982.000000
25087.000000,10185.000000,14244.000000,55045.000000
25195.000000,10284.000000,14301.000000,55020.000000
25253.000000,10238.000000,14374.000000,55073.000000
25199.000000,10184.000000,14371.000000,55084.000000
25185.000000,10279.000000,14400.000000,55147.000000
25302.000000,10301.000000,14444.000000,55109.000000
25256.000000,10351.000000,14528.000000,55147.000000
25316.000000,10324.000000,14563.000000,55177.000000
25376.000000,10408.000000,14610.000000,55198.000000
25414.000000,10512.000000,14726.000000,55252.000000
25488.000000,10381.000000,14751.000000,55309.000000
25441.000000,10441.000000,14745.000000,55322.000000
25696.000000,10576.000000,14698.000000,55359.000000
25613.000000,10543.000000,14870.000000,55367.000000
25605.000000,10585.000000,14989.000000,55414.000000
25666.000000,10585.000000,14955.000000,55413.000000
25693.000000,10657.000000,15001.000000,55441.000000
25719.000000,10641.000000,14967.000000,55257.000000
25786.000000,10700.000000,15064.000000,55397.000000
25708.000000,10571.000000,14999.000000,55414.000000
25685.000000,10622.000000,15015.000000,55435.000000
25714.000000,10673.000000,15014.000000,55420.000000
25852.000000,10663.000000,15014.000000,55394.000000
25715.000000,10634.000000,15018.000000,55396.000000
25659.000000,10441.000000,14937.000000,55552.000000
25712.000000,10624.000000,15009.000000,55381.000000
25616.000000,10608.000000,15006.000000,55425.000000
25695.000000,10671.000000,14988.000000,55478.000000
25635.000000,10616.000000,14995.000000,55410.000000
25652.000000,10599.000000,14969.000000,55459.000000
25622.000000,10599.000000,14994.000000,55414.000000
25655.000000,10567.000000,14927.000000,55410.000000
25600.000000,10559.000000,14975.000000,55436.000000
25638.000000,10621.000000,14939.000000,55392.000000
25623.000000,10483.000000,14840.000000,55422.000000
25662.000000,10548.000000,14869.000000,55385.000000
25653.000000,10594.000000,14977.000000,55372.000000
25641.000000,10577.000000,14852.000000,55251.000000
25525.000000,10564.000000,15012.000000,55459.000000
25568.000000,10566.000000,14972.000000,55461.000000
25582.000000,10527.000000,14917.000000,55363.000000
25632.000000,10541.000000,14921.000000,55380.000000
25511.000000,10573.000000,14952.000000,55418.000000
25606.000000,10442.000000,14892.000000,55449.000000
25496.000000,10414.000000,14784.000000,55342.000000
25641.000000,10562.000000,14873.000000,55339.000000
25586.000000,10509.000000,14834.000000,55371.000000
25581.000000,10552.000000,14776.000000,55346.000000
25616.000000,10552.000000,14846.000000,55294.000000
25551.000000,10584.000000,14757.000000,55331.000000
25563.000000,10476.000000,14862.000000,55233.000000
25564.000000,10518.000000,14811.000000,55289.000000
25481.000000,10515.000000,14862.000000,55374.000000
25499.000000,10473.000000,14837.000000,55330.000000
25503.000000,10513.000000,14838.000000,55343.000000
25511.000000,10428.000000,14756.000000,55308.000000
25407.000000,10507.000000,14775.000000,55330.000000
25498.000000,10579.000000,14877.000000,55272.000000
25506.000000,10418.000000,14831.000000,55233.000000
25390.000000,10379.000000,14782.000000,55327.000000
25577.000000,10473.000000,14747.000000,55237.000000
25442.000000,10453.000000,14762.000000,55221.000000
25430.000000,10466.000000,14790.000000,55271.000000
25459.000000,10420.000000,14706.000000,55213.000000
25447.000000,10424.000000,14721.000000,55251.000000
25439.000000,10437.000000,14747.000000,55153.000000
25423.000000,10412.000000,14659.000000,55234.000000
25488.000000,10389.000000,14668.000000,55249.000000
25429.000000,10435.000000,14729.000000,55283.000000
25431.000000,10385.000000,14651.000000,55241.000000
25463.000000,10559.000000,14671.000000,55205.000000
25356.000000,10355.000000,14659.000000,55244.000000
25444.000000,10380.000000,14705.000000,55189.000000
25366.000000,10347.000000,14652.000000,55279.000000
25360.000000,10377.000000,14652.000000,55281.000000
25422.000000,10333.000000,14637.000000,55193.000000
25459.000000,10376.000000,14654.000000,55232.000000
25391.000000,10408.000000,14575.000000,55234.000000
25439.000000,10440.000000,14447.000000,55283.000000
25381.000000,10349.000000,14624.000000,55159.000000
25349.000000,10354.000000,14639.000000,55334.000000
25337.000000,10367.000000,14620.000000,55179.000000
25361.000000,10278.000000,14630.000000,55197.000000
25405.000000,10447.000000,14602.000000,55271.000000
25296.000000,10355.000000,14500.000000,55136.000000
25236.000000,10328.000000,14599.000000,55102.000000
25281.000000,10354.000000,14559.000000,55191.000000
25273.000000,10355.000000,14512.000000,55226.000000
25256.000000,10281.000000,14571.000000,55186.000000
25319.000000,10255.000000,14537.000000,55147.000000
25241.000000,10305.000000,14501.000000,55075.000000
25307.000000,10353.000000,14533.000000,55069.000000
25197.000000,10269.000000,14479.000000,55209.000000
25211.000000,10265.000000,14516.000000,55111.000000
25247.000000,10286.000000,14415.000000,55090.000000
25131.000000,10281.000000,14397.000000,55186.000000
25139.000000,10249.000000,14392.000000,55153.000000
25200.000000,10318.000000,14458.000000,55068.000000
25177.000000,10196.000000,14337.000000,55096.000000
25202.000000,10172.000000,14480.000000,55152.000000
25147.000000,10195.000000,14490.000000,55156.000000
25136.000000,10168.000000,14471.000000,55060.000000
25186.000000,10275.000000,14437.000000,55067.000000
25214.000000,10186.000000,14416.000000,55150.000000
25245.000000,10228.000000,14475.000000,55093.000000
25161.000000,10222.000000,14467.000000,55103.000000
25191.000000,10184.000000,14461.000000,55076.000000
25159.000000,10194.000000,14519.000000,55095.000000
25093.000000,10213.000000,14435.000000,55072.000000
25165.000000,10233.000000,14442.000000,55079.000000
25092.000000,10175.000000,14612.000000,55135.000000
25153.000000,10204.000000,14460.000000,55078.000000
25084.000000,10220.000000,14443.000000,55213.000000
25019.000000,10232.000000,14396.000000,55120.000000
25169.000000,10144.000000,14334.000000,55139.000000
25103.000000,10119.000000,14408.000000,55099.000000
25069.000000,10248.000000,14390.000000,55042.000000
25146.000000,10332.000000,14310.000000,55075.000000
25087.000000,10285.000000,14371.000000,55005.000000
25181.000000,10250.000000,14411.000000,55224.000000
25105.000000,10105.000000,14350.000000,55067.000000
25112.000000,10188.000000,14339.000000,55001.000000
25121.000000,10131.000000,14412.000000,55002.000000
25059.000000,10093.000000,14322.000000,54992.000000
25018.000000,10087.000000,14304.000000,55029.000000
24978.000000,10227.000000,14376.000000,54964.000000
25140.000000,10116.000000,14268.000000,55030.000000
24991.000000,10118.000000,14360.000000,55081.000000
24988.000000,10131.000000,14218.000000,54983.000000
25053.000000,10120.000000,14235.000000,54940.000000
24861.000000,10157.000000,14287.000000,54895.000000
25101.000000,10062.000000,14313.000000,55054.000000
24947.000000,10073.000000,14278.000000,55068.000000
25000.000000,10122.000000,14264.000000,55015.000000
24994.000000,10019.000000,14213.000000,55049.000000
25001.000000,10136.000000,14231.000000,54947.000000
24962.000000,10094.000000,14202.000000,54923.000000
25075.000000,10205.000000,14271.000000,54973.000000
24991.000000,10155.000000,14232.000000,54999.000000
25060.000000,10183.000000,14189.000000,54889.000000
25018.000000,10100.000000,14226.000000,54934.000000
25037.000000,10133.000000,14250.000000,54983.000000
25115.000000,10097.000000,14181.000000,55010.000000
25022.000000,10151.000000,14247.000000,55018.000000
25026.000000,10062.000000,14273.000000,54974.000000
25086.000000,10031.000000,14230.000000,54970.000000
25084.000000,10048.000000,14342.000000,55054.000000
24995.000000,10192.000000,14334.000000,54925.000000
25016.000000,10141.000000,14281.000000,54973.000000
25033.000000,10185.000000,14336.000000,55048.000000
25048.000000,10076.000000,14320.000000,55096.000000
25050.000000,10143.000000,14322.000000,55002.000000
25109.000000,10192.000000,14405.000000,55031.000000
25125.000000,10205.000000,14369.000000,55047.000000
25204.000000,10230.000000,14391.000000,55106.000000
25187.000000,10257.000000,14510.000000,55009.000000
25184.000000,10279.000000,14440.000000,55137.000000
25240.000000,10269.000000,14458.000000,55152.000000
25201.000000,10327.000000,14638.000000,55229.000000
25310.000000,10457.000000,14608.000000,55077.000000
25293.000000,10395.000000,14609.000000,55175.000000
25388.000000,10363.000000,14743.000000,55203.000000
25535.000000,10399.000000,14702.000000,55282.000000
25516.000000,10438.000000,14864.000000,55422.000000
25549.000000,10616.000000,14942.000000,55420.000000
25605.000000,10539.000000,14997.000000,55378.000000
25655.000000,10650.000000,15051.000000,55429.000000
25708.000000,10679.000000,15063.000000,55384.000000
25671.000000,10589.000000,15056.000000,55492.000000
25640.000000,10655.000000,15023.000000,55629.000000
25740.000000,10717.000000,15136.000000,55509.000000
25663.000000,10647.000000,15022.000000,55321.000000
25653.000000,10682.000000,15054.000000,55418.000000
25616.000000,10650.000000,15059.000000,55457.000000
25719.000000,10677.000000,15078.000000,55442.000000
25655.000000,10739.000000,14985.000000,55440.000000
25636.000000,10616.000000,15038.000000,55443.000000
25657.000000,10687.000000,14981.000000,55438.000000
25670.000000,10547.000000,15094.000000,55411.000000
25696.000000,10641.000000,15014.000000,55441.000000
25692.000000,10622.000000,15057.000000,55436.000000
25620.000000,10609.000000,14987.000000,55405.000000
25649.000000,10611.000000,15034.000000,55504.000000
25636.000000,10726.000000,15087.000000,55542.000000
25696.000000,10621.000000,15000.000000,55575.000000
25533.000000,10623.000000,14979.000000,55429.000000
25711.000000,10538.000000,15025.000000,55428.000000
25656.000000,10642.000000,14890.000000,55378.000000
25592.000000,10553.000000,14929.000000,55386.000000
25611.000000,10619.000000,14909.000000,55418.000000
25666.000000,10590.000000,14943.000000,55281.000000
25571.000000,10626.000000,14987.000000,55372.000000
25535.000000,10550.000000,15039.000000,55398.000000
25605.000000,10571.000000,14962.000000,55395.000000
25672.000000,10582.000000,14934.000000,55423.000000
25499.000000,10586.000000,14929.000000,55351.000000
25606.000000,10570.000000,14928.000000,55369.000000
25489.000000,10506.000000,14900.000000,55361.000000
25620.000000,10414.000000,14885.000000,55481.000000
25568.000000,10527.000000,14902.000000,55397.000000
25589.000000,10518.000000,14896.000000,55343.000000
25549.000000,10460.000000,14881.000000,55400.000000
25642.000000,10401.000000,14927.000000,55313.000000
25630.000000,10495.000000,14902.000000,55359.000000
25475.000000,10505.000000,14903.000000,55343.000000
25552.000000,10480.000000,14918.000000,55337.000000
25486.000000,10482.000000,14886.000000,55367.000000
25530.000000,10560.000000,14812.000000,55397.000000
25466.000000,10522.000000,14905.000000,55369.000000
25472.000000,10479.000000,14802.000000,55346.000000
25456.000000,10565.000000,14874.000000,55244.000000
25451.000000,10509.000000,14916.000000,55306.000000
25445.000000,10524.000000,14885.000000,55339.000000
25535.000000,10492.000000,14836.000000,55291.000000
25435.000000,10522.000000,14810.000000,55302.000000
25365.000000,10480.000000,14817.000000,55298.000000
25462.000000,10591.000000,14852.000000,55355.000000
25469.000000,10533.000000,14822.000000,55249.000000
25509.000000,10567.000000,14786.000000,55249.000000
25449.000000,10539.000000,14747.000000,55274.000000
25514.000000,10427.000000,14814.000000,55223.000000
25455.000000,10425.000000,14755.000000,55297.000000
25413.000000,10400.000000,14701.000000,55391.000000
25356.000000,10404.000000,14715.000000,55393.000000
25494.000000,10499.000000,14845.000000,55134.000000
25331.000000,10339.000000,14762.000000,55331.000000
25366.000000,10378.000000,14741.000000,55241.000000
25313.000000,10405.000000,14687.000000,55209.000000
25310.000000,10401.000000,14759.000000,55264.000000
25214.000000,10380.000000,14792.000000,55146.000000
25370.000000,10372.000000,14592.000000,55302.000000
25350.000000,10428.000000,14799.000000,55118.000000
25340.000000,10342.000000,14716.000000,55226.000000
25333.000000,10403.000000,14696.000000,55243.000000
25311.000000,10402.000000,14686.000000,55209.000000
25398.000000,10344.000000,14614.000000,55146.000000
25303.000000,10351.000000,14695.000000,55239.000000
25275.000000,10462.000000,14658.000000,55265.000000
25357.000000,10352.000000,14645.000000,55249.000000
25382.000000,10415.000000,14666.000000,55105.000000
25244.000000,10336.000000,14633.000000,55151.000000
25198.000000,10422.000000,14615.000000,55178.000000
25246.000000,10345.000000,14593.000000,55159.000000
25234.000000,10255.000000,14674.000000,55174.000000
25191.000000,10243.000000,14620.000000,55203.000000
25284.000000,10446.000000,14632.000000,55135.000000
25175.000000,10309.000000,14817.000000,55187.000000
25120.000000,10381.000000,14568.000000,55118.000000
25218.000000,10301.000000,14621.000000,55112.000000
25209.000000,10249.000000,14593.000000,55228.000000
25222.000000,10235.000000,14623.000000,55177.000000
25163.000000,10230.000000,14586.000000,55171.000000
25086.000000,10247.000000,14553.000000,55148.000000
25124.000000,10340.000000,14530.000000,55060.000000
25140.000000,10341.000000,14484.000000,55115.000000
25166.000000,10373.000000,14543.000000,55076.000000
25143.000000,10281.000000,14569.000000,55121.000000
25171.000000,10292.000000,14502.000000,55185.000000
25115.000000,10279.000000,14470.000000,55068.000000
25125.000000,10396.000000,14549.000000,55134.000000
25186.000000,10342.000000,14570.000000,55103.000000
25148.000000,10425.000000,14616.000000,55172.000000
25252.000000,10287.000000,14620.000000,55108.000000
25203.000000,10307.000000,14491.000000,55004.000000
25228.000000,10358.000000,14506.000000,55057.000000
25034.000000,10225.000000,14437.000000,55083.000000
25091.000000,10239.000000,14518.000000,55077.000000
25062.000000,10266.000000,14374.000000,55143.000000
25116.000000,10142.000000,14428.000000,55060.000000
25106.000000,10223.000000,14354.000000,55170.000000
25106.000000,10189.000000,14569.000000,55124.000000
25042.000000,10294.000000,14383.000000,55007.000000
25071.000000,10232.000000,14372.000000,55012.000000
25004.000000,10122.000000,14425.000000,55011.000000
24885.000000,10247.000000,14455.000000,55182.000000
24974.000000,10152.000000,14425.000000,55085.000000
25071.000000,10105.000000,14335.000000,55012.000000
25012.000000,10167.000000,14312.000000,55053.000000
24956.000000,10173.000000,14391.000000,55011.000000
24986.000000,10217.000000,14459.000000,54997.000000
25069.000000,10170.000000,14357.000000,55072.000000
25043.000000,10230.000000,14396.000000,55032.000000
25025.000000,10177.000000,14453.000000,55145.000000
24932.000000,10201.000000,14460.000000,55021.000000
24880.000000,10173.000000,14379.000000,55024.000000
25014.000000,10231.000000,14395.000000,55004.000000
25001.000000,10191.000000,14278.000000,55021.000000
25045.000000,10219.000000,14366.000000,54982.000000
24938.000000,10143.000000,14442.000000,55013.000000
24885.000000,10206.000000,14385.000000,54963.000000
24996.000000,10156.000000,14319.000000,55106.000000
25027.000000,10155.000000,14439.000000,55021.000000
25031.000000,10185.000000,14403.000000,55107.000000
24966.000000,10248.000000,14448.000000,55020.000000
25050.000000,10258.000000,14423.000000,55040.000000
25053.000000,10284.000000,14468.000000,55215.000000
25011.000000,10200.000000,14419.000000,55023.000000
25071.000000,10239.000000,14393.000000,55119.000000
25027.000000,10255.000000,14463.000000,55127.000000
25022.000000,10253.000000,14570.000000,55077.000000
25073.000000,10289.000000,14457.000000,55043.000000
25128.000000,10388.000000,14491.000000,55133.000000
25096.000000,10336.000000,14620.000000,55202.000000
25212.000000,10318.000000,14628.000000,55267.000000
25219.000000,10312.000000,14644.000000,55218.000000
25321.000000,10409.000000,14715.000000,55138.000000
25298.000000,10427.000000,14700.000000,55204.000000
25286.000000,10529.000000,14802.000000,55290.000000
25408.000000,10508.000000,14734.000000,55237.000000
25389.000000,10509.000000,14913.000000,55332.000000
25491.000000,10469.000000,14951.000000,55359.000000
25444.000000,10610.000000,14972.000000,55458.000000
25523.000000,10610.000000,14986.000000,55480.000000
25567.000000,10677.000000,15030.000000,55452.000000
25669.000000,10711.000000,15102.000000,55466.000000
25658.000000,10667.000000,15142.000000,55437.000000
25628.000000,10749.000000,15206.000000,55467.000000
25659.000000,10704.000000,15143.000000,55507.000000
25676.000000,10742.000000,15229.000000,55500.000000
25614.000000,10806.000000,15201.000000,55488.000000
25628.000000,10762.000000,15107.000000,55503.000000
25696.000000,10708.000000,15159.000000,55577.000000
25764.000000,10745.000000,15168.000000,55487.000000
25732.000000,10728.000000,15097.000000,55481.000000
25638.000000,10615.000000,15146.000000,55465.000000
25674.000000,10835.000000,15121.000000,55534.000000
25578.000000,10773.000000,15168.000000,55476.000000
25606.000000,10717.000000,15136.000000,55489.000000
25551.000000,10678.000000,15173.000000,55540.000000
25693.000000,10703.000000,15056.000000,55472.000000
25585.000000,10625.000000,15113.000000,55488.000000
25608.000000,10619.000000,15092.000000,55444.000000
25601.000000,10692.000000,15050.000000,55510.000000
25586.000000,10679.000000,15048.000000,55417.000000
25625.000000,10634.000000,15030.000000,55436.000000
25511.000000,10640.000000,15103.000000,55405.000000
25555.000000,10674.000000,15055.000000,55358.000000
25601.000000,10671.000000,15071.000000,55410.000000
25600.000000,10665.000000,15091.000000,55378.000000
25568.000000,10607.000000,15044.000000,55460.000000
25599.000000,10723.000000,15087.000000,55457.000000
25562.000000,10620.000000,15036.000000,55500.000000
25563.000000,10672.000000,14961.000000,55419.000000
25601.000000,10602.000000,15034.000000,55396.000000
25525.000000,10623.000000,14966.000000,55428.000000
25572.000000,10590.000000,15037.000000,55446.000000
25539.000000,10579.000000,14991.000000,55354.000000
25520.000000,10615.000000,15033.000000,55465.000000
25354.000000,10661.000000,14994.000000,55443.000000
25529.000000,10557.000000,15032.000000,55451.000000
25579.000000,10672.000000,14958.000000,55395.000000
25481.000000,10695.000000,14996.000000,55377.000000
25501.000000,10524.000000,15062.000000,55401.000000
25424.000000,10612.000000,14968.000000,55402.000000
25509.000000,10645.000000,15006.000000,55372.000000
25522.000000,10626.000000,14951.000000,55359.000000
25471.000000,10483.000000,15000.000000,55359.000000
25424.000000,10576.000000,14929.000000,55316.000000
25489.000000,10566.000000,14859.000000,55366.000000
25439.000000,10570.000000,14865.000000,55386.000000
25447.000000,10571.000000,14937.000000,55362.000000
25434.000000,10584.000000,14900.000000,55356.000000
25481.000000,10528.000000,14962.000000,55306.000000
25495.000000,10537.000000,14876.000000,55338.000000
25283.000000,10541.000000,14867.000000,55375.000000
25382.000000,10613.000000,14787.000000,55316.000000
25363.000000,10504.000000,14751.000000,55340.000000
25445.000000,10502.000000,14845.000000,55248.000000
25352.000000,10398.000000,14851.000000,55264.000000
25362.000000,10517.000000,14841.000000,55340.000000
25397.000000,10452.000000,14731.000000,55314.000000
25383.000000,10465.000000,14781.000000,55305.000000
25300.000000,10441.000000,14741.000000,55341.000000
25421.000000,10467.000000,14695.000000,55238.000000
25413.000000,10454.000000,14622.000000,55314.000000
25336.000000,10533.000000,14853.000000,55314.000000
25295.000000,10419.000000,14749.000000,55247.000000
25346.000000,10472.000000,14739.000000,55182.000000
25313.000000,10494.000000,14798.000000,55293.000000
25333.000000,10483.000000,14730.000000,55277.000000
25241.000000,10414.000000,14727.000000,55257.000000
25356.000000,10409.000000,14764.000000,55212.000000
25272.000000,10462.000000,14707.000000,55379.000000
25307.000000,10426.000000,14718.000000,55209.000000
25200.000000,10406.000000,14752.000000,55157.000000
25261.000000,10347.000000,14790.000000,55244.000000
25279.000000,10377.000000,14754.000000,55224.000000
25226.000000,10417.000000,14666.000000,55318.000000
25225.000000,10392.000000,14724.000000,55253.000000
25189.000000,10460.000000,14685.000000,55228.000000
25164.000000,10323.000000,14659.000000,55256.000000
25263.000000,10449.000000,14673.000000,55297.000000
25106.000000,10329.000000,14686.000000,55198.000000
25171.000000,10304.000000,14667.000000,55220.000000
25198.000000,10253.000000,14688.000000,55266.000000
25251.000000,10355.000000,14536.000000,55244.000000
25259.000000,10454.000000,14719.000000,55054.000000
25240.000000,10421.000000,14535.000000,55323.000000
25224.000000,10462.000000,14681.000000,55178.000000
25276.000000,10279.000000,14636.000000,55193.000000
25163.000000,10370.000000,14616.000000,55238.000000
25272.000000,10333.000000,14723.000000,55215.000000
25181.000000,10361.000000,14638.000000,55209.000000
25220.000000,10266.000000,14627.000000,55230.000000
25202.000000,10370.000000,14653.000000,55172.000000
25089.000000,10317.000000,14633.000000,55282.000000
25270.000000,10384.000000,14654.000000,55167.000000
25185.000000,10370.000000,14627.000000,55200.000000
25105.000000,10468.000000,14662.000000,55177.000000
25177.000000,10331.000000,14634.000000,55270.000000
25136.000000,10372.000000,14522.000000,55151.000000
25114.000000,10294.000000,14626.000000,55156.000000
25154.000000,10282.000000,14584.000000,55149.000000
25132.000000,10253.000000,14573.000000,55175.000000
25014.000000,10243.000000,14549.000000,55315.000000
25098.000000,10329.000000,14556.000000,55107.000000
25001.000000,10308.000000,14546.000000,55045.000000
25028.000000,10220.000000,14518.000000,55140.000000
25042.000000,10234.000000,14522.000000,55123.000000
25031.000000,10217.000000,14506.000000,55095.000000
25058.000000,10283.000000,14551.000000,55153.000000
25079.000000,10215.000000,14505.000000,55132.000000
25055.000000,10202.000000,14504.000000,55178.000000
25016.000000,10220.000000,14497.000000,55065.000000
25053.000000,10332.000000,14516.000000,55139.000000
25072.000000,10266.000000,14528.000000,55092.000000
24999.000000,10164.000000,14504.000000,55118.000000
25050.000000,10281.000000,14561.000000,55137.000000
25108.000000,10248.000000,14546.000000,55135.000000
24883.000000,10279.000000,14531.000000,55203.000000
25085.000000,10262.000000,14538.000000,55127.000000
25153.000000,10346.000000,14419.000000,55040.000000
25018.000000,10234.000000,14570.000000,55064.000000
25070.000000,10316.000000,14568.000000,55128.000000
25111.000000,10311.000000,14537.000000,55158.000000
25112.000000,10288.000000,14442.000000,55200.000000
25122.000000,10336.000000,14591.000000,55111.000000
24903.000000,10338.000000,14585.000000,55124.000000
24990.000000,10236.000000,14543.000000,55134.000000
25061.000000,10292.000000,14654.000000,55120.000000
25055.000000,10321.000000,14640.000000,55156.000000
25070.000000,10269.000000,14661.000000,55179.000000
25121.000000,10288.000000,14655.000000,55171.000000
25073.000000,10350.000000,14795.000000,55216.000000
25181.000000,10380.000000,14672.000000,55111.000000
25155.000000,10338.000000,14682.000000,55208.000000
25300.000000,10370.000000,14628.000000,55168.000000
25256.000000,10419.000000,14748.000000,55233.000000
25254.000000,10504.000000,14744.000000,55221.000000
25294.000000,10527.000000,14856.000000,55276.000000
25318.000000,10329.000000,14888.000000,55257.000000
25306.000000,10508.000000,14909.000000,55362.000000
25431.000000,10562.000000,15000.000000,55368.000000
25454.000000,10591.000000,15029.000000,55387.000000
25516.000000,10634.000000,15085.000000,55485.000000
25547.000000,10641.000000,15110.000000,55505.000000
25642.000000,10729.000000,15194.000000,55584.000000
25577.000000,10743.000000,15217.000000,55629.000000
25681.000000,10684.000000,15251.000000,55507.000000
25713.000000,10781.000000,15319.000000,55560.000000
25810.000000,10781.000000,15311.000000,55548.000000
25805.000000,10894.000000,15284.000000,55590.000000
25693.000000,10823.000000,15300.000000,55549.000000
25701.000000,10784.000000,15469.000000,55714.000000
25797.000000,10829.000000,15455.000000,55650.000000
25758.000000,10852.000000,15393.000000,55587.000000
25821.000000,10840.000000,15325.000000,55444.000000
25756.000000,10781.000000,15399.000000,55529.000000
25734.000000,10807.000000,15334.000000,55566.000000
25837.000000,10710.000000,15317.000000,55495.000000
25683.000000,10722.000000,15322.000000,55600.000000
25645.000000,10758.000000,15339.000000,55588.000000
25655.000000,10776.000000,15294.000000,55525.000000
25763.000000,10814.000000,15297.000000,55539.000000
25655.000000,10674.000000,15204.000000,55440.000000
25650.000000,10786.000000,15258.000000,55569.000000
25646.000000,10721.000000,15312.000000,55506.000000
25678.000000,10796.000000,15207.000000,55462.000000
25656.000000,10773.000000,15248.000000,55530.000000
25635.000000,10722.000000,15198.000000,55497.000000
25620.000000,10672.000000,15240.000000,55502.000000
25606.000000,10691.000000,15229.000000,55365.000000
25701.000000,10659.000000,15307.000000,55532.000000
25611.000000,10678.000000,15215.000000,55542.000000
25651.000000,10728.000000,15183.000000,55569.000000
25649.000000,10580.000000,15228.000000,55456.000000
25642.000000,10711.000000,15237.000000,55400.000000
25640.000000,10714.000000,15203.000000,55577.000000
25651.000000,10671.000000,15217.000000,55456.000000
25593.000000,10612.000000,15176.000000,55605.000000
25622.000000,10690.000000,15204.000000,55463.000000
25719.000000,10681.000000,15235.000000,55477.000000
25575.000000,10660.000000,15211.000000,55496.000000
25629.000000,10625.000000,15245.000000,55459.000000
25512.000000,10669.000000,15178.000000,55474.000000
25547.000000,10572.000000,15174.000000,55587.000000
25559.000000,10690.000000,15111.000000,55415.000000
25624.000000,10665.000000,15176.000000,55392.000000
25608.000000,10725.000000,15100.000000,55394.000000
25507.000000,10663.000000,15139.000000,55446.000000
25420.000000,10635.000000,15163.000000,55462.000000
25655.000000,10617.000000,15177.000000,55405.000000
25555.000000,10669.000000,15200.000000,55527.000000
25555.000000,10628.000000,15158.000000,55449.000000
25529.000000,10692.000000,15092.000000,55404.000000
25492.000000,10608.000000,15098.000000,55304.000000
25554.000000,10629.000000,15133.000000,55386.000000
25496.000000,10529.000000,15025.000000,55451.000000
25572.000000,10651.000000,15084.000000,55405.000000
25509.000000,10584.000000,15058.000000,55567.000000
25463.000000,10529.000000,15055.000000,55352.000000
25456.000000,10613.000000,15040.000000,55318.000000
25489.000000,10563.000000,15070.000000,55394.000000
25437.000000,10524.000000,15009.000000,55380.000000
25432.000000,10511.000000,15042.000000,55367.000000
25531.000000,10524.000000,14944.000000,55427.000000
25448.000000,10535.000000,14859.000000,55438.000000
25416.000000,10582.000000,14981.000000,55299.000000
25426.000000,10495.000000,14934.000000,55338.000000
25424.000000,10493.000000,14986.000000,55310.000000
25383.000000,10470.000000,15008.000000,55361.000000
25294.000000,10426.000000,14984.000000,55353.000000
25323.000000,10501.000000,15047.000000,55411.000000
25390.000000,10530.000000,14937.000000,55439.000000
25382.000000,10420.000000,14853.000000,55343.000000
25235.000000,10432.000000,14948.000000,55335.000000
25424.000000,10470.000000,14876.000000,55292.000000
25365.000000,10459.000000,14833.000000,55327.000000
25307.000000,10482.000000,14880.000000,55328.000000
25378.000000,10448.000000,14952.000000,55115.000000
25336.000000,10420.000000,14868.000000,55350.000000
25351.000000,10443.000000,14888.000000,55263.000000
25318.000000,10405.000000,14832.000000,55368.000000
25275.000000,10394.000000,14874.000000,55310.000000
25305.000000,10511.000000,14954.000000,55310.000000
25272.000000,10455.000000,14774.000000,55285.000000
25245.000000,10381.000000,14850.000000,55553.000000
25258.000000,10361.000000,14860.000000,55279.000000
25271.000000,10402.000000,14733.000000,55249.000000
25164.000000,10341.000000,14819.000000,55261.000000
25309.000000,10387.000000,14807.000000,55326.000000
25355.000000,10447.000000,14867.000000,55273.000000
25261.000000,10371.000000,14825.000000,55246.000000
25233.000000,10286.000000,14832.000000,55295.000000
25248.000000,10349.000000,14803.000000,55257.000000
25296.000000,10266.000000,14749.000000,55183.000000
25203.000000,10374.000000,14853.000000,55200.000000
25358.000000,10460.000000,14778.000000,55240.000000
25161.000000,10388.000000,14859.000000,55325.000000
25289.000000,10362.000000,14808.000000,55266.000000
25283.000000,10445.000000,14750.000000,55238.000000
25243.000000,10366.000000,14754.000000,55272.000000
25354.000000,10287.000000,14758.000000,55189.000000
25152.000000,10342.000000,14787.000000,55218.000000
25203.000000,10257.000000,14711.000000,55235.000000
25289.000000,10244.000000,14724.000000,55182.000000
25215.000000,10171.000000,14689.000000,55172.000000
25200.000000,10246.000000,14666.000000,55096.000000
25136.000000,10253.000000,14644.000000,55157.000000
25104.000000,10286.000000,14600.000000,55215.000000
25137.000000,10190.000000,14664.000000,55140.000000
25120.000000,10196.000000,14524.000000,55132.000000
25072.000000,10196.000000,14567.000000,55162.000000
25144.000000,10162.000000,14565.000000,55202.000000
25070.000000,10140.000000,14514.000000,55108.000000
25066.000000,10161.000000,14533.000000,55067.000000
25059.000000,10170.000000,14555.000000,55099.000000
24937.000000,10116.000000,14446.000000,55133.000000
25057.000000,10074.000000,14494.000000,55137.000000
25047.000000,10178.000000,14447.000000,55196.000000
25081.000000,10098.000000,14453.000000,55052.000000
25121.000000,10147.000000,14429.000000,55060.000000
25036.000000,10169.000000,14515.000000,55098.000000
25137.000000,10256.000000,14507.000000,55059.000000
25020.000000,10134.000000,14530.000000,55120.000000
25009.000000,10187.000000,14506.000000,55155.000000
25013.000000,10098.000000,14540.000000,55073.000000
25052.000000,10140.000000,14424.000000,55021.000000
25047.000000,10101.000000,14490.000000,55131.000000
24979.000000,10158.000000,14451.000000,55093.000000
25097.000000,10116.000000,14457.000000,55156.000000
25078.000000,10212.000000,14463.000000,55064.000000
25152.000000,10154.000000,14468.000000,55174.000000
25022.000000,10121.000000,14640.000000,55147.000000
25161.000000,10109.000000,14531.000000,55259.000000
25071.000000,10196.000000,14574.000000,55222.000000
25141.000000,10237.000000,14650.000000,55119.000000
25104.000000,10214.000000,14645.000000,55125.000000
25081.000000,10232.000000,14614.000000,55155.000000
25208.000000,10198.000000,14490.000000,55104.000000
25249.000000,10200.000000,14619.000000,55252.000000
25183.000000,10239.000000,14611.000000,55219.000000
25229.000000,10163.000000,14676.000000,55238.000000
25244.000000,10298.000000,14767.000000,55317.000000
25238.000000,10361.000000,14755.000000,55242.000000
25347.000000,10381.000000,14810.000000,55270.000000
25328.000000,10445.000000,14849.000000,55326.000000
25409.000000,10432.000000,14978.000000,55356.000000
25391.000000,10414.000000,14988.000000,55429.000000
25457.000000,10570.000000,14916.000000,55366.000000
25531.000000,10486.000000,15033.000000,55494.000000
25600.000000,10495.000000,15036.000000,55480.000000
25642.000000,10595.000000,15110.000000,55524.000000
25618.000000,10591.000000,15165.000000,55431.000000
25767.000000,10609.000000,15235.000000,55502.000000
25700.000000,10631.000000,15244.000000,55570.000000
25688.000000,10702.000000,15233.000000,55583.000000
25684.000000,10662.000000,15296.000000,55600.000000
25703.000000,10636.000000,15231.000000,55556.000000
25748.000000,10705.000000,15235.000000,55561.000000
25724.000000,10718.000000,15321.000000,55643.000000
25733.000000,10698.000000,15291.000000,55470.000000
25714.000000,10629.000000,15216.000000,55646.000000
25721.000000,10659.000000,15252.000000,55561.000000
25817.000000,10616.000000,15304.000000,55578.000000
25643.000000,10610.000000,15242.000000,55586.000000
25711.000000,10653.000000,15171.000000,55621.000000
25804.000000,10628.000000,15228.000000,55582.000000
25659.000000,10616.000000,15195.000000,55580.000000
25692.000000,10612.000000,15216.000000,55570.000000
25734.000000,10700.000000,15183.000000,55519.000000
25727.000000,10516.000000,15184.000000,55514.000000
25668.000000,10633.000000,15117.000000,55547.000000
25685.000000,10565.000000,15247.000000,55525.000000
25640.000000,10576.000000,15190.000000,55509.000000
25580.000000,10615.000000,15252.000000,55637.000000
25721.000000,10480.000000,15016.000000,55528.000000
25599.000000,10454.000000,15292.000000,55477.000000
25564.000000,10614.000000,15060.000000,55492.000000
25640.000000,10538.000000,15104.000000,55493.000000
25487.000000,10544.000000,15135.000000,55514.000000
25477.000000,10534.000000,15177.000000,55475.000000
25553.000000,10618.000000,15122.000000,55478.000000
25611.000000,10510.000000,15129.000000,55535.000000
25607.000000,10534.000000,15080.000000,55483.000000
25536.000000,10528.000000,15013.000000,55575.000000
25518.000000,10531.000000,15115.000000,55495.000000
25505.000000,10466.000000,14894.000000,55477.000000
25563.000000,10530.000000,15018.000000,55477.000000
25553.000000,10393.000000,15029.000000,55509.000000
25578.000000,10587.000000,15036.000000,55482.000000
25541.000000,10373.000000,15067.000000,55489.000000
25526.000000,10507.000000,15008.000000,55466.000000
25517.000000,10495.000000,15072.000000,55412.000000
25613.000000,10531.000000,14873.000000,55517.000000
25522.000000,10477.000000,14997.000000,55505.000000
25500.000000,10483.000000,15002.000000,55353.000000
25531.000000,10509.000000,14998.000000,55419.000000
25448.000000,10410.000000,15071.000000,55404.000000
25533.000000,10523.000000,14858.000000,55411.000000
25556.000000,10571.000000,15001.000000,55433.000000
25539.000000,10516.000000,14998.000000,55390.000000
25447.000000,10510.000000,15051.000000,55458.000000
25499.000000,10443.000000,14958.000000,55499.000000
25507.000000,10503.000000,15006.000000,55432.000000
25573.000000,10405.000000,15059.000000,55383.000000
25537.000000,10370.000000,14909.000000,55248.000000
25443.000000,10538.000000,14935.000000,55352.000000
25443.000000,10466.000000,14897.000000,55393.000000
25528.000000,10512.000000,15003.000000,55376.000000
25491.000000,10410.000000,15010.000000,55443.000000
25527.000000,10579.000000,14973.000000,55301.000000
25436.000000,10554.000000,14992.000000,55378.000000
25437.000000,10330.000000,14972.000000,55219.000000
25451.000000,10467.000000,15035.000000,55358.000000
25441.000000,10423.000000,14944.000000,55376.000000
25410.000000,10525.000000,14940.000000,55366.000000
25394.000000,10450.000000,15033.000000,55458.000000
25442.000000,10515.000000,15046.000000,55419.000000
25361.000000,10457.000000,14994.000000,55409.000000
25407.000000,10435.000000,14891.000000,55278.000000
25427.000000,10466.000000,14923.000000,55346.000000
25452.000000,10395.000000,14856.000000,55247.000000
25401.000000,10442.000000,14941.000000,55377.000000
25489.000000,10426.000000,14945.000000,55366.000000
25378.000000,10454.000000,15037.000000,55405.000000
25484.000000,10462.000000,14980.000000,55472.000000
25345.000000,10402.000000,15019.000000,55380.000000
25429.000000,10483.000000,14983.000000,55421.000000
25392.000000,10448.000000,15038.000000,55415.000000
25335.000000,10447.000000,15021.000000,55341.000000
25299.000000,10415.000000,14801.000000,55405.000000
25377.000000,10519.000000,14894.000000,55412.000000
25516.000000,10307.000000,14966.000000,55515.000000
25343.000000,10503.000000,15038.000000,55380.000000
25420.000000,10424.000000,14933.000000,55398.000000
25375.000000,10456.000000,14963.000000,55345.000000
25306.000000,10368.000000,14974.000000,55337.000000
25320.000000,10391.000000,14975.000000,55393.000000
25365.000000,10470.000000,14906.000000,55478.000000
25382.000000,10533.000000,14897.000000,55452.000000
25306.000000,10439.000000,15045.000000,55327.000000
25417.000000,10418.000000,14931.000000,55406.000000
25309.000000,10398.000000,14899.000000,55406.000000
25358.000000,10321.000000,14888.000000,55374.000000
25330.000000,10402.000000,14924.000000,55386.000000
25374.000000,10396.000000,14990.000000,55439.000000
25320.000000,10500.000000,14905.000000,55348.000000
25382.000000,10429.000000,14966.000000,55348.000000
25302.000000,10443.000000,14942.000000,55302.000000
25267.000000,10360.000000,14957.000000,55357.000000
25250.000000,10427.000000,14947.000000,55338.000000
25179.000000,10284.000000,14854.000000,55281.000000
25336.000000,10370.000000,14923.000000,55234.000000
25301.000000,10417.000000,14980.000000,55267.000000
25256.000000,10406.000000,14911.000000,55295.000000
25324.000000,10350.000000,14856.000000,55332.000000
25209.000000,10333.000000,14791.000000,55330.000000
25250.000000,10288.000000,14889.000000,55310.000000
25290.000000,10328.000000,14842.000000,55293.000000
25214.000000,10441.000000,14860.000000,55432.000000
25258.000000,10390.000000,14874.000000,55301.000000
25219.000000,10363.000000,14891.000000,55315.000000
25154.000000,10402.000000,14880.000000,55322.000000
25265.000000,10338.000000,14870.000000,55343.000000
25223.000000,10357.000000,14860.000000,55301.000000
25290.000000,10246.000000,14817.000000,55240.000000
25286.000000,10402.000000,14926.000000,55307.000000
25198.000000,10362.000000,14834.000000,55299.000000
25247.000000,10405.000000,14864.000000,55243.000000
25254.000000,10382.000000,14857.000000,55325.000000
25292.000000,10369.000000,14835.000000,55248.000000
25213.000000,10377.000000,14841.000000,55315.000000
25215.000000,10336.000000,14833.000000,55394.000000
25245.000000,10429.000000,14910.000000,55328.000000
25236.000000,10348.000000,14893.000000,55315.000000
25189.000000,10401.000000,14956.000000,55326.000000
25187.000000,10405.000000,14899.000000,55277.000000
25245.000000,10409.000000,14937.000000,55277.000000
25384.000000,10585.000000,14930.000000,55333.000000
25393.000000,10491.000000,15128.000000,55283.000000
25360.000000,10479.000000,14966.000000,55394.000000
25432.000000,10574.000000,15018.000000,55441.000000
25455.000000,10486.000000,15076.000000,55427.000000
25432.000000,10507.000000,15236.000000,55466.000000
25430.000000,10559.000000,15117.000000,55449.000000
25456.000000,10538.000000,15219.000000,55544.000000
25564.000000,10519.000000,15187.000000,55551.000000
25563.000000,10727.000000,15279.000000,55581.000000
25675.000000,10666.000000,15378.000000,55576.000000
25689.000000,10769.000000,15473.000000,55668.000000
25813.000000,10777.000000,15504.000000,55681.000000
25777.000000,10803.000000,15561.000000,55711.000000
25776.000000,10857.000000,15560.000000,55693.000000
25871.000000,10851.000000,15522.000000,55700.000000
25805.000000,10934.000000,15692.000000,55728.000000
25856.000000,10888.000000,15655.000000,55785.000000
25796.000000,10780.000000,15627.000000,55710.000000
25919.000000,10845.000000,15659.000000,55698.000000
25837.000000,10895.000000,15621.000000,55740.000000
25807.000000,10898.000000,15579.000000,55748.000000
25727.000000,10832.000000,15564.000000,55774.000000
25826.000000,10768.000000,15558.000000,55743.000000
25790.000000,10891.000000,15608.000000,55748.000000
25781.000000,10854.000000,15589.000000,55702.000000
25781.000000,10919.000000,15576.000000,55850.000000
25805.000000,10852.000000,15618.000000,55778.000000
25736.000000,10865.000000,15584.000000,55714.000000
25765.000000,10861.000000,15554.000000,55731.000000
25780.000000,10818.000000,15585.000000,55725.000000
25847.000000,10843.000000,15603.000000,55770.000000
25796.000000,10832.000000,15529.000000,55723.000000
25724.000000,10802.000000,15683.000000,55717.000000
25781.000000,10859.000000,15560.000000,55699.000000
25784.000000,10830.000000,15600.000000,55666.000000
25729.000000,10792.000000,15650.000000,55679.000000
25758.000000,10931.000000,15591.000000,55728.000000
25817.000000,10866.000000,15543.000000,55811.000000
25843.000000,10762.000000,15557.000000,55702.000000
25760.000000,10913.000000,15625.000000,55724.000000
25691.000000,10878.000000,15563.000000,55867.000000
25725.000000,10785.000000,15458.000000,55687.000000
25779.000000,10832.000000,15563.000000,55789.000000
25690.000000,10833.000000,15634.000000,55694.000000
25743.000000,10798.000000,15515.000000,55671.000000
25749.000000,10690.000000,15461.000000,55605.000000
25693.000000,10828.000000,15521.000000,55606.000000
25708.000000,10799.000000,15483.000000,55655.000000
25689.000000,10811.000000,15469.000000,55736.000000
25675.000000,10775.000000,15563.000000,55605.000000
25695.000000,10768.000000,15456.000000,55644.000000
25714.000000,10790.000000,15439.000000,55623.000000
25628.000000,10783.000000,15497.000000,55612.000000
25718.000000,10711.000000,15461.000000,55615.000000
25674.000000,10721.000000,15409.000000,55680.000000
25538.000000,10733.000000,15456.000000,55651.000000
25696.000000,10732.000000,15452.000000,55584.000000
25700.000000,10677.000000,15459.000000,55592.000000
25698.000000,10822.000000,15468.000000,55586.000000
25655.000000,10791.000000,15400.000000,55572.000000
25585.000000,10716.000000,15426.000000,55578.000000
25589.000000,10708.000000,15416.000000,55568.000000
25572.000000,10720.000000,15408.000000,55582.000000
25607.000000,10660.000000,15430.000000,55603.000000
25611.000000,10664.000000,15377.000000,55519.000000
25682.000000,10718.000000,15373.000000,55663.000000
25605.000000,10676.000000,15413.000000,55600.000000
25588.000000,10670.000000,15361.000000,55632.000000
25546.000000,10655.000000,15349.000000,55594.000000
25552.000000,10697.000000,15316.000000,55607.000000
25576.000000,10662.000000,15393.000000,55581.000000
25611.000000,10615.000000,15288.000000,55559.000000
25640.000000,10709.000000,15349.000000,55441.000000
25488.000000,10618.000000,15345.000000,55499.000000
25519.000000,10671.000000,15285.000000,55539.000000
25449.000000,10634.000000,15272.000000,55499.000000
25517.000000,10677.000000,15262.000000,55451.000000
25551.000000,10631.000000,15252.000000,55555.000000
25470.000000,10574.000000,15259.000000,55479.000000
25543.000000,10550.000000,15178.000000,55610.000000
25340.000000,10620.000000,15155.000000,55515.000000
25403.000000,10575.000000,15223.000000,55519.000000
25458.000000,10567.000000,15190.000000,55475.000000
25451.000000,10563.000000,15173.000000,55502.000000
25536.000000,10553.000000,15144.000000,55502.000000
25376.000000,10506.000000,15146.000000,55490.000000
25419.000000,10583.000000,15113.000000,55522.000000
25487.000000,10658.000000,15112.000000,55711.000000
25372.000000,10544.000000,15123.000000,55460.000000
25354.000000,10594.000000,15183.000000,55522.000000
25369.000000,10536.000000,15138.000000,55495.000000
25384.000000,10567.000000,15031.000000,55499.000000
25379.000000,10499.000000,15135.000000,55458.000000
25412.000000,10556.000000,15024.000000,55492.000000
25428.000000,10558.000000,15082.000000,55521.000000
25359.000000,10518.000000,15162.000000,55455.000000
25366.000000,10543.000000,15131.000000,55475.000000
25446.000000,10544.000000,15147.000000,55488.000000
25446.000000,10553.000000,15079.000000,55518.000000
25391.000000,10632.000000,14987.000000,55562.000000
25381.000000,10438.000000,15040.000000,55458.000000
25416.000000,10527.000000,15089.000000,55493.000000
25384.000000,10514.000000,15044.000000,55396.000000
25332.000000,10498.000000,15063.000000,55341.000000
25278.000000,10513.000000,14997.000000,55463.000000
25337.000000,10550.000000,14981.000000,55536.000000
25272.000000,10549.000000,15017.000000,55567.000000
25298.000000,10536.000000,14926.000000,55488.000000
25313.000000,10467.000000,15003.000000,55383.000000
25331.000000,10469.000000,14913.000000,55335.000000
25336.000000,10431.000000,14895.000000,55385.000000
25211.000000,10431.000000,14883.000000,55372.000000
25244.000000,10373.000000,14910.000000,55208.000000
25273.000000,10383.000000,14894.000000,55463.000000
25211.000000,10336.000000,14851.000000,55425.000000
25144.000000,10339.000000,14886.000000,55282.000000
25212.000000,10360.000000,14884.000000,55326.000000
25323.000000,10449.000000,14845.000000,55391.000000
25224.000000,10354.000000,14818.000000,55414.000000
25182.000000,10336.000000,14827.000000,55474.000000
25202.000000,10410.000000,14862.000000,55311.000000
25326.000000,10370.000000,14838.000000,55410.000000
25190.000000,10345.000000,14842.000000,55315.000000
25187.000000,10331.000000,14860.000000,55333.000000
25188.000000,10297.000000,14841.000000,55349.000000
25167.000000,10387.000000,14875.000000,55349.000000
25278.000000,10374.000000,14980.000000,55390.000000
25204.000000,10292.000000,14919.000000,55449.000000
25141.000000,10388.000000,14853.000000,55324.000000
25205.000000,10344.000000,14898.000000,55299.000000
25229.000000,10389.000000,14905.000000,55399.000000
25190.000000,10311.000000,14915.000000,55405.000000
25214.000000,10341.000000,14887.000000,55382.000000
25198.000000,10294.000000,14957.000000,55394.000000
25244.000000,10483.000000,14893.000000,55401.000000
25193.000000,10394.000000,14845.000000,55362.000000
25153.000000,10353.000000,14876.000000,55351.000000
25234.000000,10388.000000,14893.000000,55332.000000
25147.000000,10342.000000,14896.000000,55378.000000
25181.000000,10389.000000,14958.000000,55417.000000
25261.000000,10450.000000,15097.000000,55550.000000
25321.000000,10407.000000,15020.000000,55399.000000
25296.000000,10586.000000,14939.000000,55445.000000
25306.000000,10462.000000,15042.000000,55389.000000
25416.000000,10434.000000,15087.000000,55508.000000
25264.000000,10438.000000,15053.000000,55500.000000
25386.000000,10532.000000,15235.000000,55506.000000
25470.000000,10638.000000,15232.000000,55530.000000
25431.000000,10599.000000,15362.000000,55553.000000
25590.000000,10679.000000,15351.000000,55633.000000
25592.000000,10687.000000,15328.000000,55537.000000
25657.000000,10689.000000,15499.000000,55694.000000
25636.000000,10650.000000,15432.000000,55669.000000
25715.000000,10759.000000,15604.000000,55727.000000
25703.000000,10869.000000,15555.000000,55834.000000
25836.000000,10824.000000,15527.000000,55754.000000
25905.000000,10827.000000,15627.000000,55798.000000
25890.000000,10878.000000,15644.000000,55794.000000
25816.000000,10850.000000,15568.000000,55681.000000
25943.000000,10785.000000,15523.000000,55794.000000
25810.000000,10808.000000,15657.000000,55791.000000
25917.000000,10944.000000,15764.000000,55752.000000
25885.000000,10804.000000,15661.000000,55833.000000
25868.000000,10893.000000,15647.000000,55822.000000
25883.000000,10831.000000,15603.000000,55781.000000
25884.000000,10906.000000,15620.000000,55794.000000
25827.000000,10875.000000,15595.000000,55776.000000
25871.000000,10882.000000,15620.000000,55822.000000
25810.000000,10840.000000,15581.000000,55876.000000
25865.000000,10858.000000,15623.000000,55802.000000
25796.000000,10733.000000,15594.000000,55784.000000
25737.000000,10843.000000,15560.000000,55815.000000
25799.000000,10739.000000,15531.000000,55707.000000
25795.000000,10793.000000,15724.000000,55806.000000
25786.000000,10753.000000,15515.000000,55781.000000
25849.000000,10769.000000,15574.000000,55834.000000
25799.000000,10742.000000,15548.000000,55807.000000
25813.000000,10771.000000,15528.000000,55738.000000
25768.000000,10773.000000,15524.000000,55685.000000
25818.000000,10746.000000,15439.000000,55573.000000
25796.000000,10748.000000,15557.000000,55661.000000
25680.000000,10736.000000,15467.000000,55710.000000
25739.000000,10677.000000,15477.000000,55756.000000
25781.000000,10698.000000,15508.000000,55662.000000
25702.000000,10740.000000,15459.000000,55691.000000
25823.000000,10720.000000,15412.000000,55644.000000
25739.000000,10584.000000,15503.000000,55659.000000
25722.000000,10702.000000,15453.000000,55636.000000
25732.000000,10652.000000,15391.000000,55650.000000
25600.000000,10647.000000,15402.000000,55735.000000
25724.000000,10712.000000,15407.000000,55660.000000
25630.000000,10732.000000,15352.000000,55656.000000
25510.000000,10620.000000,15442.000000,55645.000000
25706.000000,10651.000000,15266.000000,55591.000000
25625.000000,10653.000000,15329.000000,55744.000000
25744.000000,10659.000000,15291.000000,55614.000000
25700.000000,10677.000000,15324.000000,55614.000000
25674.000000,10660.000000,15348.000000,55566.000000
25643.000000,10579.000000,15321.000000,55595.000000
25630.000000,10673.000000,15359.000000,55691.000000
25602.000000,10678.000000,15338.000000,55701.000000
25573.000000,10617.000000,15219.000000,55655.000000
25627.000000,10585.000000,15228.000000,55545.000000
25680.000000,10553.000000,15292.000000,55656.000000
25676.000000,10687.000000,15155.000000,55584.000000
25621.000000,10551.000000,15230.000000,55698.000000
25586.000000,10509.000000,15195.000000,55559.000000
25667.000000,10580.000000,15224.000000,55629.000000
25712.000000,10589.000000,15134.000000,55549.000000
25609.000000,10578.000000,15247.000000,55536.000000
25544.000000,10519.000000,15175.000000,55613.000000
25524.000000,10582.000000,15104.000000,55557.000000
25485.000000,10501.000000,15200.000000,55523.000000
25561.000000,10514.000000,15193.000000,55471.000000
25661.000000,10556.000000,15189.000000,55546.000000
25577.000000,10509.000000,15188.000000,55583.000000
25503.000000,10527.000000,15219.000000,55517.000000
25593.000000,10545.000000,15199.000000,55531.000000
25474.000000,10516.000000,15204.000000,55569.000000
25529.000000,10576.000000,15098.000000,55579.000000
25531.000000,10558.000000,15126.000000,55557.000000
25568.000000,10479.000000,15152.000000,55500.000000
25523.000000,10613.000000,15168.000000,55539.000000
25577.000000,10561.000000,15112.000000,55543.000000
25527.000000,10475.000000,15235.000000,55571.000000
25487.000000,10541.000000,15075.000000,55545.000000
25554.000000,10661.000000,15138.000000,55540.000000
25532.000000,10443.000000,15048.000000,55544.000000
25496.000000,10615.000000,15156.000000,55492.000000
25492.000000,10575.000000,15097.000000,55453.000000
25423.000000,10512.000000,15091.000000,55488.000000
25403.000000,10484.000000,15058.000000,55518.000000
25438.000000,10499.000000,15040.000000,55457.000000
25382.000000,10441.000000,15063.000000,55505.000000
25375.000000,10442.000000,14999.000000,55641.000000
25375.000000,10643.000000,15064.000000,55302.000000
25303.000000,10464.000000,15094.000000,55442.000000
25442.000000,10471.000000,15104.000000,55459.000000
25407.000000,10425.000000,15043.000000,55392.000000
25377.000000,10525.000000,14994.000000,55407.000000
25298.000000,10423.000000,15051.000000,55385.000000
25345.000000,10512.000000,15004.000000,55527.000000
25405.000000,10470.000000,14914.000000,55512.000000
25395.000000,10456.000000,14961.000000,55384.000000
25380.000000,10383.000000,14917.000000,55424.000000
25340.000000,10445.000000,14876.000000,55422.000000
25333.000000,10434.000000,14949.000000,55392.000000
25289.000000,10391.000000,14901.000000,55340.000000
25332.000000,10323.000000,14888.000000,55421.000000
25291.000000,10379.000000,14944.000000,55429.000000
25336.000000,10323.000000,14969.000000,55357.000000
25310.000000,10390.000000,14796.000000,55360.000000
25214.000000,10361.000000,14832.000000,55379.000000
25237.000000,10410.000000,14760.000000,55277.000000
25236.000000,10301.000000,14758.000000,55377.000000
25251.000000,10288.000000,14755.000000,55368.000000
25176.000000,10143.000000,14732.000000,55381.000000
25137.000000,10304.000000,14748.000000,55299.000000
25228.000000,10246.000000,14700.000000,55264.000000
25153.000000,10405.000000,14650.000000,55261.000000
25122.000000,10251.000000,14675.000000,55284.000000
25116.000000,10132.000000,14666.000000,55210.000000
25110.000000,10146.000000,14565.000000,55262.000000
24968.000000,10140.000000,14652.000000,55273.000000
25046.000000,10140.000000,14535.000000,55203.000000
24995.000000,10094.000000,14479.000000,55213.000000
24970.000000,10116.000000,14568.000000,55194.000000
25082.000000,10053.000000,14330.000000,55221.000000
25021.000000,10096.000000,14497.000000,55082.000000
25013.000000,10083.000000,14485.000000,55165.000000
25079.000000,10077.000000,14477.000000,55148.000000
25014.000000,10011.000000,14431.000000,55195.000000
24949.000000,10093.000000,14448.000000,55193.000000
25052.000000,10087.000000,14504.000000,55096.000000
24947.000000,10159.000000,14461.000000,55099.000000
24966.000000,9975.000000,14446.000000,55155.000000
24967.000000,10038.000000,14526.000000,55182.000000
25065.000000,10103.000000,14482.000000,55092.000000
25019.000000,10102.000000,14475.000000,55169.000000
24992.000000,10138.000000,14504.000000,55080.000000
25134.000000,10164.000000,14560.000000,55303.000000
25038.000000,10203.000000,14626.000000,55135.000000
25156.000000,10111.000000,14521.000000,55229.000000
24978.000000,10141.000000,14602.000000,55190.000000
25114.000000,10141.000000,14548.000000,55202.000000
25081.000000,10143.000000,14592.000000,55181.000000
25100.000000,10133.000000,14654.000000,55239.000000
25086.000000,10133.000000,14574.000000,55244.000000
25187.000000,10196.000000,14608.000000,55253.000000
25132.000000,10246.000000,14607.000000,55327.000000
25190.000000,10319.000000,14704.000000,55232.000000
25212.000000,10197.000000,14678.000000,55335.000000
25158.000000,10250.000000,14752.000000,55298.000000
25257.000000,10203.000000,14879.000000,55244.000000
25253.000000,10327.000000,14784.000000,55328.000000
25218.000000,10294.000000,14801.000000,55394.000000
25295.000000,10339.000000,14890.000000,55363.000000
25277.000000,10309.000000,14939.000000,55457.000000
25354.000000,10457.000000,14896.000000,55481.000000
25488.000000,10425.000000,15054.000000,55390.000000
25431.000000,10500.000000,15103.000000,55476.000000
25531.000000,10450.000000,15256.000000,55469.000000
25568.000000,10712.000000,15351.000000,55684.000000
25575.000000,10590.000000,15278.000000,55631.000000
25687.000000,10687.000000,15344.000000,55651.000000
25712.000000,10685.000000,15400.000000,55667.000000
25758.000000,10696.000000,15332.000000,55711.000000
25734.000000,10740.000000,15497.000000,55763.000000
25801.000000,10827.000000,15509.000000,55729.000000
25881.000000,10850.000000,15571.000000,55682.000000
25832.000000,10737.000000,15592.000000,55858.000000
25887.000000,10827.000000,15602.000000,55795.000000
25936.000000,10858.000000,15483.000000,55810.000000
25876.000000,10812.000000,15593.000000,55845.000000
25878.000000,10823.000000,15559.000000,55889.000000
25829.000000,10870.000000,15652.000000,55817.000000
25828.000000,10861.000000,15581.000000,55727.000000
25815.000000,10784.000000,15624.000000,55875.000000
25804.000000,10838.000000,15508.000000,55743.000000
25839.000000,10843.000000,15585.000000,55787.000000
25881.000000,10848.000000,15582.000000,55765.000000
25819.000000,10818.000000,15482.000000,55766.000000
25892.000000,10831.000000,15593.000000,55715.000000
26005.000000,10773.000000,15534.000000,55736.000000
25842.000000,10825.000000,15565.000000,55753.000000
25781.000000,10785.000000,15618.000000,55700.000000
25781.000000,10870.000000,15513.000000,55767.000000
25837.000000,10810.000000,15538.000000,55741.000000
25777.000000,10777.000000,15529.000000,55797.000000
25792.000000,10805.000000,15528.000000,55836.000000
25672.000000,10751.000000,15554.000000,55788.000000
25789.000000,10827.000000,15522.000000,55738.000000
25749.000000,10783.000000,15492.000000,55780.000000
25800.000000,10767.000000,15567.000000,55747.000000
25734.000000,10770.000000,15505.000000,55727.000000
25839.000000,10778.000000,15381.000000,55875.000000
25850.000000,10817.000000,15399.000000,55625.000000
25738.000000,10755.000000,15554.000000,55834.000000
25814.000000,10728.000000,15520.000000,55713.000000
25724.000000,10813.000000,15439.000000,55750.000000
25715.000000,10748.000000,15483.000000,55801.000000
25633.000000,10806.000000,15488.000000,55723.000000
25773.000000,10746.000000,15485.000000,55714.000000
25687.000000,10729.000000,15573.000000,55670.000000
25750.000000,10693.000000,15441.000000,55770.000000
25768.000000,10722.000000,15536.000000,55703.000000
25744.000000,10677.000000,15450.000000,55685.000000
25686.000000,10748.000000,15423.000000,55658.000000
25734.000000,10751.000000,15454.000000,55721.000000
25672.000000,10682.000000,15630.000000,55769.000000
25699.000000,10672.000000,15401.000000,55625.000000
25614.000000,10664.000000,15396.000000,55579.000000
25824.000000,10763.000000,15382.000000,55677.000000
25721.000000,10687.000000,15457.000000,55690.000000
25640.000000,10614.000000,15413.000000,55674.000000
25750.000000,10789.000000,15290.000000,55721.000000
25647.000000,10683.000000,15377.000000,55740.000000
25671.000000,10702.000000,15342.000000,55683.000000
25684.000000,10672.000000,15417.000000,55652.000000
25771.000000,10632.000000,15390.000000,55660.000000
25660.000000,10732.000000,15335.000000,55635.000000
25586.000000,10585.000000,15285.000000,55617.000000
25583.000000,10665.000000,15370.000000,55733.000000
25547.000000,10713.000000,15264.000000,55557.000000
25654.000000,10598.000000,15281.000000,55643.000000
25533.000000,10567.000000,15282.000000,55652.000000
25590.000000,10586.000000,15214.000000,55589.000000
25611.000000,10640.000000,15272.000000,55570.000000
25570.000000,10572.000000,15253.000000,55611.000000
25559.000000,10502.000000,15363.000000,55670.000000
25573.000000,10665.000000,15275.000000,55609.000000
25560.000000,10638.000000,15265.000000,55573.000000
25565.000000,10588.000000,15318.000000,55613.000000
25518.000000,10596.000000,15335.000000,55608.000000
25425.000000,10737.000000,15265.000000,55611.000000
25529.000000,10739.000000,15275.000000,55474.000000
25516.000000,10744.000000,15220.000000,55589.000000
25620.000000,10727.000000,15217.000000,55592.000000
25608.000000,10647.000000,15260.000000,55538.000000
25429.000000,10644.000000,15158.000000,55547.000000
25466.000000,10596.000000,15294.000000,55575.000000
25552.000000,10620.000000,15244.000000,55531.000000
25569.000000,10522.000000,15228.000000,55578.000000
25457.000000,10676.000000,15242.000000,55551.000000
25563.000000,10633.000000,15223.000000,55595.000000
25482.000000,10693.000000,15178.000000,55465.000000
25371.000000,10586.000000,15139.000000,55517.000000
25479.000000,10568.000000,15121.000000,55512.000000
25447.000000,10613.000000,15046.000000,55458.000000
25485.000000,10541.000000,15122.000000,55526.000000
25473.000000,10565.000000,15087.000000,55416.000000
25462.000000,10596.000000,15007.000000,55475.000000
25392.000000,10687.000000,15019.000000,55536.000000
25551.000000,10559.000000,15100.000000,55459.000000
25254.000000,10466.000000,15002.000000,55483.000000
25364.000000,10474.000000,15133.000000,55427.000000
25314.000000,10482.000000,14992.000000,55453.000000
25352.000000,10463.000000,14954.000000,55454.000000
25345.000000,10555.000000,14884.000000,55314.000000
25384.000000,10459.000000,14937.000000,55404.000000
25371.000000,10516.000000,14985.000000,55433.000000
25259.000000,10521.000000,15038.000000,55443.000000
25368.000000,10448.000000,14816.000000,55379.000000
25279.000000,10386.000000,14939.000000,55434.000000
25301.000000,10474.000000,14903.000000,55518.000000
25315.000000,10488.000000,14930.000000,55337.000000
25408.000000,10478.000000,14881.000000,55426.000000
25185.000000,10377.000000,14897.000000,55376.000000
25309.000000,10479.000000,14855.000000,55301.000000
25256.000000,10427.000000,14869.000000,55387.000000
25165.000000,10313.000000,14845.000000,55348.000000
25158.000000,10350.000000,14804.000000,55354.000000
25173.000000,10353.000000,14719.000000,55345.000000
25158.000000,10296.000000,14769.000000,55358.000000
25138.000000,10324.000000,14884.000000,55310.000000
25097.000000,10435.000000,14795.000000,55280.000000
25068.000000,10310.000000,14792.000000,55290.000000
25112.000000,10321.000000,14731.000000,55265.000000
25051.000000,10319.000000,14740.000000,55239.000000
25070.000000,10261.000000,14700.000000,55268.000000
25106.000000,10269.000000,14682.000000,55207.000000
25068.000000,10379.000000,14757.000000,55328.000000
25112.000000,10225.000000,14630.000000,55254.000000
25217.000000,10222.000000,14661.000000,55186.000000
25099.000000,10226.000000,14759.000000,55235.000000
25127.000000,10288.000000,14731.000000,55330.000000
25134.000000,10297.000000,14758.000000,55220.000000
25069.000000,10257.000000,14712.000000,55395.000000
25113.000000,10339.000000,14840.000000,55330.000000
25079.000000,10150.000000,14728.000000,55360.000000
25089.000000,10321.000000,14789.000000,55292.000000
25137.000000,10415.000000,14745.000000,55244.000000
25137.000000,10269.000000,14743.000000,55296.000000
25120.000000,10277.000000,14845.000000,55321.000000
25113.000000,10349.000000,14736.000000,55344.000000
25233.000000,10360.000000,14849.000000,55426.000000
25224.000000,10372.000000,14824.000000,55331.000000
25104.000000,10410.000000,14839.000000,55347.000000
25102.000000,10294.000000,14831.000000,55330.000000
25262.000000,10301.000000,14840.000000,55374.000000
25239.000000,10468.000000,14837.000000,55413.000000
25215.000000,10389.000000,14753.000000,55320.000000
25323.000000,10446.000000,14809.000000,55410.000000
25346.000000,10483.000000,14893.000000,55337.000000
25421.000000,10422.000000,14917.000000,55432.000000
25264.000000,10465.000000,14994.000000,55415.000000
25281.000000,10528.000000,15085.000000,55458.000000
25404.000000,10533.000000,14878.000000,55448.000000
25284.000000,10503.000000,15045.000000,55511.000000
25450.000000,10590.000000,14984.000000,55396.000000
25465.000000,10587.000000,15173.000000,55556.000000
25493.000000,10617.000000,15253.000000,55480.000000
25635.000000,10691.000000,15221.000000,55512.000000
25502.000000,10815.000000,15370.000000,55621.000000
25580.000000,10668.000000,15401.000000,55583.000000
25660.000000,10738.000000,15351.000000,55678.000000
25789.000000,10764.000000,15390.000000,55690.000000
25637.000000,10833.000000,15526.000000,55701.000000
25724.000000,10874.000000,15501.000000,55747.000000
25737.000000,10939.000000,15624.000000,55804.000000
25837.000000,11038.000000,15611.000000,55788.000000
25922.000000,10970.000000,15639.000000,55828.000000
25908.000000,10886.000000,15631.000000,55760.000000
25825.000000,10924.000000,15721.000000,55801.000000
25915.000000,10916.000000,15652.000000,55876.000000
25840.000000,10964.000000,15677.000000,55768.000000
25826.000000,10948.000000,15647.000000,55817.000000
25882.000000,10805.000000,15679.000000,55817.000000
25884.000000,11055.000000,15550.000000,55665.000000
25891.000000,11038.000000,15569.000000,55791.000000
25866.000000,10947.000000,15692.000000,55798.000000
25887.000000,10975.000000,15682.000000,55808.000000
25915.000000,10963.000000,15675.000000,55837.000000
25763.000000,10902.000000,15661.000000,55812.000000
25815.000000,10888.000000,15683.000000,55757.000000
25879.000000,11003.000000,15672.000000,55814.000000
25877.000000,10840.000000,15675.000000,55769.000000
25775.000000,10885.000000,15576.000000,55795.000000
25818.000000,10833.000000,15643.000000,55755.000000
25870.000000,10972.000000,15600.000000,55803.000000
25833.000000,10875.000000,15575.000000,55841.000000
25839.000000,10934.000000,15652.000000,55784.000000
25803.000000,11016.000000,15599.000000,55681.000000
25870.000000,10887.000000,15554.000000,55765.000000
25752.000000,10833.000000,15641.000000,55680.000000
25775.000000,10953.000000,15554.000000,55769.000000
25714.000000,10857.000000,15640.000000,55795.000000
25707.000000,10866.000000,15522.000000,55900.000000
25768.000000,10866.000000,15579.000000,55758.000000
25798.000000,10886.000000,15443.000000,55768.000000
25780.000000,10891.000000,15489.000000,55771.000000
25729.000000,10895.000000,15565.000000,55693.000000
25748.000000,10765.000000,15492.000000,55799.000000
25755.000000,10875.000000,15506.000000,55808.000000
25617.000000,10885.000000,15587.000000,55708.000000
25693.000000,10846.000000,15608.000000,55749.000000
25713.000000,10812.000000,15427.000000,55721.000000
25763.000000,10968.000000,15525.000000,55761.000000
25708.000000,10811.000000,15534.000000,55717.000000
25785.000000,10781.000000,15488.000000,55796.000000
25711.000000,10794.000000,15481.000000,55725.000000
25767.000000,10764.000000,15530.000000,55678.000000
25716.000000,10832.000000,15415.000000,55683.000000
25625.000000,10794.000000,15487.000000,55712.000000
25657.000000,10731.000000,15524.000000,55714.000000
25732.000000,10759.000000,15478.000000,55735.000000
25782.000000,10744.000000,15499.000000,55756.000000
25631.000000,10752.000000,15491.000000,55672.000000
25710.000000,10687.000000,15403.000000,55643.000000
25620.000000,10755.000000,15373.000000,55624.000000
25608.000000,10769.000000,15442.000000,55719.000000
25578.000000,10681.000000,15394.000000,55635.000000
25576.000000,10774.000000,15340.000000,55669.000000
25755.000000,10717.000000,15414.000000,55671.000000
25605.000000,10705.000000,15378.000000,55637.000000
25716.000000,10657.000000,15335.000000,55697.000000
25728.000000,10763.000000,15413.000000,55516.000000
25559.000000,10740.000000,15305.000000,55638.000000
25625.000000,10765.000000,15316.000000,55690.000000
25603.000000,10690.000000,15358.000000,55626.000000
25582.000000,10714.000000,15331.000000,55614.000000
25504.000000,10718.000000,15321.000000,55569.000000
25614.000000,10611.000000,15313.000000,55672.000000
25474.000000,10745.000000,15355.000000,55582.000000
25598.000000,10632.000000,15386.000000,55565.000000
25535.000000,10652.000000,15345.000000,55649.000000
25561.000000,10652.000000,15262.000000,55627.000000
25455.000000,10717.000000,15285.000000,55495.000000
25458.000000,10579.000000,15230.000000,55628.000000
25561.000000,10585.000000,15160.000000,55710.000000
25558.000000,10655.000000,15207.000000,55593.000000
25429.000000,10640.000000,15277.000000,55626.000000
25581.000000,10587.000000,15272.000000,55576.000000
25439.000000,10589.000000,15231.000000,55508.000000
25538.000000,10608.000000,15224.000000,55586.000000
25509.000000,10698.000000,15247.000000,55637.000000
25515.000000,10641.000000,15213.000000,55556.000000
25419.000000,10629.000000,15226.000000,55548.000000
25470.000000,10680.000000,15224.000000,55523.000000
25346.000000,10638.000000,15208.000000,55542.000000
25412.000000,10546.000000,15179.000000,55581.000000
25375.000000,10569.000000,15254.000000,55558.000000
25406.000000,10589.000000,15175.000000,55484.000000
25400.000000,10630.000000,15311.000000,55532.000000
25479.000000,10663.000000,15223.000000,55621.000000
25456.000000,10615.000000,15224.000000,55486.000000
25518.000000,10607.000000,15190.000000,55563.000000
25477.000000,10550.000000,15178.000000,55540.000000
25448.000000,10640.000000,15298.000000,55568.000000
25519.000000,10635.000000,15182.000000,55495.000000
25261.000000,10639.000000,15254.000000,55501.000000
25414.000000,10653.000000,15158.000000,55512.000000
25380.000000,10540.000000,15128.000000,55601.000000
25398.000000,10559.000000,15129.000000,55503.000000
25316.000000,10590.000000,15103.000000,55452.000000
25288.000000,10519.000000,15139.000000,55316.000000
25448.000000,10624.000000,15094.000000,55401.000000
25391.000000,10528.000000,15147.000000,55444.000000
25406.000000,10506.000000,15067.000000,55359.000000
25299.000000,10444.000000,15102.000000,55459.000000
25341.000000,10529.000000,14939.000000,55518.000000
25249.000000,10412.000000,15045.000000,55407.000000
25215.000000,10504.000000,15028.000000,55388.000000
25308.000000,10563.000000,15017.000000,55449.000000
25305.000000,10464.000000,14934.000000,55368.000000
25186.000000,10412.000000,15058.000000,55396.000000
25206.000000,10395.000000,15051.000000,55473.000000
25323.000000,10420.000000,14911.000000,55471.000000
25231.000000,10438.000000,15001.000000,55448.000000
25306.000000,10428.000000,15041.000000,55435.000000
25210.000000,10499.000000,15031.000000,55398.000000
25226.000000,10438.000000,15059.000000,55464.000000
25261.000000,10505.000000,15024.000000,55521.000000
25284.000000,10467.000000,15105.000000,55396.000000
25272.000000,10397.000000,15047.000000,55399.000000
25219.000000,10436.000000,14969.000000,55423.000000
25263.000000,10484.000000,15000.000000,55446.000000
25503.000000,10497.000000,14986.000000,55534.000000
25227.000000,10502.000000,15028.000000,55456.000000
25276.000000,10507.000000,15098.000000,55387.000000
25258.000000,10525.000000,15045.000000,55453.000000
25274.000000,10466.000000,15188.000000,55477.000000
25224.000000,10491.000000,15013.000000,55395.000000
25310.000000,10464.000000,15123.000000,55305.000000
25220.000000,10520.000000,15091.000000,55631.000000
25259.000000,10412.000000,15180.000000,55478.000000
25272.000000,10481.000000,15131.000000,55583.000000
25313.000000,10549.000000,15115.000000,55499.000000
25368.000000,10547.000000,15144.000000,55469.000000
25419.000000,10590.000000,15074.000000,55552.000000
25395.000000,10545.000000,15190.000000,55454.000000
25361.000000,10542.000000,15219.000000,55580.000000
25388.000000,10562.000000,15228.000000,55577.000000
25475.000000,10615.000000,15321.000000,55591.000000
25475.000000,10623.000000,15252.000000,55622.000000
25485.000000,10596.000000,15381.000000,55595.000000
25614.000000,10680.000000,15418.000000,55602.000000
25624.000000,10703.000000,15365.000000,55614.000000
25609.000000,10744.000000,15413.000000,55773.000000
25666.000000,10805.000000,15496.000000,55693.000000
25750.000000,10877.000000,15593.000000,55786.000000
25778.000000,10924.000000,15599.000000,55809.000000
25934.000000,10881.000000,15643.000000,55825.000000
25828.000000,10810.000000,15754.000000,55853.000000
25941.000000,11011.000000,15838.000000,55809.000000
25840.000000,10902.000000,15728.000000,55910.000000
25937.000000,10890.000000,15693.000000,55918.000000
26014.000000,10935.000000,15741.000000,55917.000000
25994.000000,11055.000000,15801.000000,55983.000000
25899.000000,10966.000000,15754.000000,55822.000000
25945.000000,11030.000000,15817.000000,55767.000000
26004.000000,10911.000000,15801.000000,55960.000000
25898.000000,10965.000000,15761.000000,55906.000000
25998.000000,10922.000000,15703.000000,55887.000000
25992.000000,10960.000000,15793.000000,55968.000000
25903.000000,11036.000000,15773.000000,55913.000000
25919.000000,10880.000000,15808.000000,55961.000000
25798.000000,10882.000000,15715.000000,55777.000000
25949.000000,10959.000000,15758.000000,55912.000000
25917.000000,10906.000000,15704.000000,55879.000000
25979.000000,10889.000000,15780.000000,55820.000000
25820.000000,10853.000000,15728.000000,55767.000000
25788.000000,10987.000000,15673.000000,55797.000000
25861.000000,10891.000000,15702.000000,55884.000000
25984.000000,10929.000000,15676.000000,55863.000000
25846.000000,10914.000000,15677.000000,55820.000000
25923.000000,10918.000000,15732.000000,55791.000000
25816.000000,10925.000000,15734.000000,55814.000000
25805.000000,10886.000000,15607.000000,55803.000000
25839.000000,10846.000000,15623.000000,55809.000000
25846.000000,10826.000000,15682.000000,55844.000000
25819.000000,10819.000000,15648.000000,55821.000000
25807.000000,10971.000000,15693.000000,55824.000000
25836.000000,10822.000000,15576.000000,55796.000000
25815.000000,10867.000000,15577.000000,55773.000000
25812.000000,10891.000000,15728.000000,55855.000000
25793.000000,10932.000000,15620.000000,55759.000000
25777.000000,10793.000000,15531.000000,55848.000000
25795.000000,10810.000000,15620.000000,55667.000000
25753.000000,10857.000000,15612.000000,55753.000000
25754.000000,10803.000000,15655.000000,55722.000000
25808.000000,10826.000000,15602.000000,55759.000000
25724.000000,10938.000000,15683.000000,55774.000000
25691.000000,10708.000000,15581.000000,55773.000000
25728.000000,10757.000000,15577.000000,55760.000000
25696.000000,10787.000000,15562.000000,55812.000000
25811.000000,10781.000000,15524.000000,55747.000000
25792.000000,10799.000000,15556.000000,55771.000000
25670.000000,10757.000000,15620.000000,55780.000000
25720.000000,10836.000000,15475.000000,55794.000000
25566.000000,10786.000000,15567.000000,55714.000000
25663.000000,10880.000000,15487.000000,55765.000000
25658.000000,10793.000000,15428.000000,55706.000000
25693.000000,10738.000000,15430.000000,55663.000000
25637.000000,10779.000000,15507.000000,55654.000000
25588.000000,10607.000000,15393.000000,55683.000000
25650.000000,10733.000000,15470.000000,55704.000000
25667.000000,10742.000000,15481.000000,55658.000000
25681.000000,10702.000000,15483.000000,55771.000000
25643.000000,10744.000000,15483.000000,55667.000000
25561.000000,10660.000000,15368.000000,55604.000000
25598.000000,10670.000000,15393.000000,55694.000000
25556.000000,10655.000000,15370.000000,55635.000000
25585.000000,10720.000000,15325.000000,55700.000000
25586.000000,10656.000000,15461.000000,55629.000000
25566.000000,10729.000000,15329.000000,55770.000000
25602.000000,10617.000000,15370.000000,55684.000000
25518.000000,10594.000000,15454.000000,55664.000000
25520.000000,10665.000000,15379.000000,55662.000000
25516.000000,10611.000000,15328.000000,55674.000000
25529.000000,10552.000000,15274.000000,55598.000000
25521.000000,10702.000000,15344.000000,55642.000000
25509.000000,10599.000000,15356.000000,55591.000000
25511.000000,10680.000000,15271.000000,55615.000000
25427.000000,10603.000000,15257.000000,55674.000000
25452.000000,10586.000000,15320.000000,55602.000000
25559.000000,10561.000000,15235.000000,55574.000000
25372.000000,10621.000000,15195.000000,55561.000000
25551.000000,10573.000000,15251.000000,55546.000000
25492.000000,10565.000000,15274.000000,55559.000000
25466.000000,10593.000000,15269.000000,55603.000000
25472.000000,10515.000000,15233.000000,55618.000000
25471.000000,10584.000000,15226.000000,55610.000000
25504.000000,10547.000000,15223.000000,55535.000000
25523.000000,10611.000000,15250.000000,55594.000000
25499.000000,10618.000000,15052.000000,55662.000000
25450.000000,10621.000000,15285.000000,55524.000000
25436.000000,10505.000000,15209.000000,55620.000000
25556.000000,10561.000000,15252.000000,55520.000000
25458.000000,10583.000000,15248.000000,55578.000000
25484.000000,10586.000000,15276.000000,55609.000000
25418.000000,10553.000000,15152.000000,55465.000000
25419.000000,10624.000000,15191.000000,55446.000000
25413.000000,10577.000000,15168.000000,55510.000000
25460.000000,10475.000000,15130.000000,55526.000000
25391.000000,10531.000000,15135.000000,55484.000000
25401.000000,10580.000000,15181.000000,55517.000000
25357.000000,10481.000000,15140.000000,55548.000000
25269.000000,10529.000000,15100.000000,55499.000000
25312.000000,10383.000000,15007.000000,55449.000000
25298.000000,10488.000000,15076.000000,55467.000000
25343.000000,10505.000000,15036.000000,55521.000000
25301.000000,10483.000000,15096.000000,55501.000000
25281.000000,10363.000000,15033.000000,55464.000000
25332.000000,10381.000000,15031.000000,55481.000000
25255.000000,10454.000000,15076.000000,55465.000000
25270.000000,10457.000000,15037.000000,55506.000000
25385.000000,10443.000000,15042.000000,55437.000000
25368.000000,10478.000000,14996.000000,55378.000000
25350.000000,10488.000000,15025.000000,55411.000000
25127.000000,10427.000000,15086.000000,55472.000000
25223.000000,10370.000000,15089.000000,55558.000000
25261.000000,10489.000000,15018.000000,55593.000000
25201.000000,10487.000000,15134.000000,55358.000000
25308.000000,10444.000000,15086.000000,55455.000000
25315.000000,10461.000000,15139.000000,55453.000000
25306.000000,10582.000000,15064.000000,55549.000000
25299.000000,10474.000000,15068.000000,55461.000000
25342.000000,10428.000000,15090.000000,55514.000000
25358.000000,10465.000000,15120.000000,55512.000000
25294.000000,10481.000000,15132.000000,55458.000000
25279.000000,10475.000000,15133.000000,55531.000000
25287.000000,10509.000000,15144.000000,55532.000000
25348.000000,10388.000000,15131.000000,55526.000000
25356.000000,10595.000000,15148.000000,55495.000000
25262.000000,10415.000000,15144.000000,55520.000000
25394.000000,10668.000000,15181.000000,55544.000000
25393.000000,10596.000000,15225.000000,55601.000000
25374.000000,10468.000000,15287.000000,55488.000000
25441.000000,10625.000000,15282.000000,55705.000000
25546.000000,10617.000000,15243.000000,55619.000000
25551.000000,10639.000000,15331.000000,55652.000000
25464.000000,10710.000000,15447.000000,55698.000000
25645.000000,10751.000000,15475.000000,55735.000000
25675.000000,10722.000000,15543.000000,55780.000000
25854.000000,10751.000000,15507.000000,55698.000000
25791.000000,10791.000000,15593.000000,55874.000000
25754.000000,10888.000000,15645.000000,55889.000000
25909.000000,10928.000000,15605.000000,55846.000000
25823.000000,10892.000000,15716.000000,55824.000000
25879.000000,10869.000000,15741.000000,55917.000000
