660nm,730nm,850nm,940nm
19209.000000,6982.000000,9650.000000,48904.000000
19337.000000,6871.000000,9675.000000,48958.000000
19236.000000,6868.000000,9602.000000,49014.000000
19298.000000,6990.000000,9786.000000,49101.000000
19302.000000,6986.000000,9755.000000,49120.000000
19278.000000,7123.000000,9868.000000,49149.000000
19420.000000,7032.000000,9999.000000,49237.000000
19273.000000,7237.000000,9951.000000,49189.000000
19428.000000,7096.000000,10035.000000,49016.000000
19586.000000,7122.000000,10021.000000,49180.000000
19560.000000,7186.000000,10060.000000,49260.000000
19652.000000,7228.000000,10127.000000,49183.000000
19522.000000,7199.000000,10335.000000,49245.000000
19550.000000,7218.000000,10061.000000,49176.000000
19606.000000,7199.000000,9990.000000,49227.000000
19619.000000,7271.000000,10005.000000,49254.000000
19519.000000,7072.000000,9988.000000,49109.000000
19553.000000,7151.000000,10009.000000,49260.000000
19491.000000,7338.000000,10096.000000,49347.000000
19493.000000,7144.000000,9980.000000,49253.000000
19534.000000,7195.000000,9941.000000,49203.000000
19522.000000,7112.000000,9968.000000,49173.000000
19625.000000,7076.000000,10050.000000,49199.000000
19490.000000,7108.000000,9960.000000,49173.000000
19361.000000,7121.000000,9875.000000,49084.000000
19395.000000,7222.000000,10088.000000,49252.000000
19513.000000,7175.000000,9965.000000,49135.000000
19442.000000,7302.000000,9932.000000,49010.000000
19363.000000,6997.000000,9859.000000,49140.000000
19491.000000,7141.000000,9836.000000,49119.000000
19459.000000,7103.000000,9864.000000,49164.000000
19413.000000,7107.000000,9842.000000,49163.000000
19394.000000,6921.000000,9815.000000,49163.000000
19375.000000,6962.000000,9733.000000,49105.000000
19381.000000,6979.000000,9748.000000,49195.000000
19450.000000,7059.000000,9650.000000,49147.000000
19284.000000,6947.000000,9778.000000,49048.000000
19207.000000,7023.000000,9702.000000,49099.000000
19171.000000,7147.000000,9709.000000,49147.000000
19247.000000,6885.000000,9797.000000,49022.000000
19228.000000,6935.000000,9771.000000,49074.000000
19285.000000,6850.000000,9714.000000,49041.000000
19290.000000,7096.000000,9727.000000,49079.000000
19184.000000,6903.000000,9716.000000,49045.000000
19167.000000,6903.000000,9563.000000,49017.000000
19155.000000,6886.000000,9714.000000,49054.000000
19248.000000,6959.000000,9670.000000,48967.000000
19204.000000,6884.000000,9562.000000,48914.000000
19025.000000,6966.000000,9617.000000,49008.000000
19214.000000,6843.000000,9631.000000,49025.000000
19277.000000,6857.000000,9521.000000,48978.000000
19095.000000,6614.000000,9400.000000,49054.000000
19141.000000,6846.000000,9553.000000,49054.000000
19157.000000,6804.000000,9594.000000,48942.000000
19099.000000,6871.000000,9587.000000,48985.000000
18976.000000,6705.000000,9445.000000,48970.000000
19106.000000,6764.000000,9488.000000,48838.000000
19088.000000,6760.000000,9494.000000,48915.000000
19088.000000,6813.000000,9563.000000,48836.000000
18905.000000,6650.000000,9404.000000,49005.000000
19098.000000,6758.000000,9451.000000,48888.000000
18955.000000,6756.000000,9484.000000,48957.000000
19117.000000,6775.000000,9475.000000,48904.000000
18935.000000,6749.000000,9378.000000,48902.000000
19074.000000,6777.000000,9294.000000,48690.000000
18999.000000,6646.000000,9156.000000,48798.000000
18986.000000,6787.000000,9415.000000,48826.000000
18946.000000,6704.000000,9201.000000,48982.000000
18880.000000,6738.000000,9351.000000,48852.000000
18977.000000,6717.000000,9340.000000,48833.000000
18826.000000,6722.000000,9367.000000,48809.000000
18946.000000,6607.000000,9203.000000,48777.000000
18947.000000,6565.000000,9297.000000,48847.000000
18937.000000,6655.000000,9237.000000,48786.000000
18875.000000,6647.000000,9069.000000,48580.000000
18672.000000,6664.000000,9382.000000,48748.000000
18987.000000,6598.000000,9349.000000,48974.000000
18668.000000,6593.000000,9262.000000,48714.000000
18892.000000,6649.000000,9293.000000,48708.000000
18822.000000,6579.000000,9183.000000,48671.000000
18778.000000,6636.000000,9207.000000,48737.000000
18777.000000,6547.000000,9032.000000,48695.000000
18789.000000,6526.000000,9173.000000,48783.000000
18942.000000,6560.000000,9293.000000,48765.000000
18728.000000,6538.000000,9145.000000,48708.000000
18713.000000,6459.000000,9133.000000,48897.000000
18776.000000,6613.000000,9340.000000,48820.000000
18755.000000,6573.000000,9280.000000,48730.000000
18642.000000,6538.000000,9227.000000,48790.000000
18731.000000,6544.000000,9157.000000,48701.000000
18851.000000,6533.000000,9184.000000,48663.000000
18694.000000,6489.000000,9219.000000,48689.000000
18566.000000,6411.000000,9121.000000,48575.000000
18728.000000,6445.000000,9188.000000,48697.000000
18707.000000,6619.000000,9029.000000,48679.000000
18682.000000,6556.000000,9093.000000,48717.000000
18603.000000,6495.000000,9082.000000,48669.000000
18747.000000,6496.000000,8997.000000,48701.000000
18673.000000,6506.000000,9154.000000,48697.000000
18621.000000,6572.000000,9129.000000,48696.000000
18601.000000,6332.000000,8947.000000,48641.000000
18785.000000,6495.000000,9128.000000,48645.000000
18620.000000,6453.000000,9059.000000,48693.000000
18610.000000,6525.000000,9054.000000,48655.000000
18449.000000,6519.000000,8717.000000,48860.000000
18719.000000,6521.000000,9008.000000,48613.000000
18582.000000,6495.000000,8978.000000,48611.000000
18566.000000,6511.000000,9025.000000,48643.000000
18606.000000,6351.000000,8912.000000,48595.000000
18667.000000,6468.000000,8979.000000,48512.000000
18731.000000,6381.000000,8920.000000,48557.000000
18658.000000,6423.000000,8855.000000,48602.000000
18530.000000,6410.000000,8852.000000,48612.000000
18628.000000,6364.000000,8934.000000,48578.000000
18557.000000,6404.000000,8961.000000,48610.000000
18594.000000,6395.000000,8881.000000,48619.000000
18481.000000,6356.000000,8895.000000,48536.000000
18607.000000,6453.000000,9075.000000,48711.000000
18611.000000,6302.000000,9021.000000,48633.000000
18514.000000,6404.000000,8959.000000,48506.000000
18446.000000,6407.000000,8877.000000,48566.000000
18469.000000,6328.000000,8949.000000,48593.000000
18586.000000,6454.000000,8915.000000,48612.000000
18433.000000,6336.000000,8946.000000,48608.000000
18397.000000,6299.000000,8913.000000,48588.000000
18557.000000,6293.000000,8960.000000,48544.000000
18543.000000,6369.000000,8996.000000,48636.000000
18520.000000,6434.000000,9002.000000,48545.000000
18524.000000,6471.000000,8994.000000,48570.000000
18636.000000,6371.000000,8953.000000,48658.000000
18476.000000,6420.000000,9109.000000,48625.000000
18534.000000,6406.000000,9000.000000,48647.000000
18498.000000,6416.000000,8972.000000,48672.000000
18782.000000,6502.000000,9059.000000,48639.000000
18629.000000,6550.000000,8904.000000,48708.000000
18581.000000,6506.000000,9030.000000,48658.000000
18626.000000,6521.000000,9153.000000,48646.000000
18927.000000,6474.000000,9151.000000,48680.000000
18733.000000,6502.000000,9204.000000,48815.000000
18629.000000,6460.000000,9141.000000,48697.000000
18720.000000,6531.000000,9186.000000,48641.000000
18967.000000,6592.000000,9125.000000,48678.000000
18757.000000,6546.000000,9294.000000,48712.000000
18540.000000,6603.000000,9312.000000,48750.000000
18784.000000,6598.000000,9382.000000,48840.000000
18864.000000,6666.000000,9315.000000,48820.000000
18904.000000,6647.000000,9388.000000,48885.000000
18852.000000,6862.000000,9350.000000,48900.000000
19096.000000,6816.000000,9351.000000,48916.000000
19054.000000,6812.000000,9474.000000,48947.000000
19199.000000,6817.000000,9622.000000,48833.000000
19073.000000,6846.000000,9641.000000,49016.000000
19176.000000,6968.000000,9636.000000,49045.000000
19213.000000,7002.000000,9670.000000,49135.000000
19347.000000,6984.000000,10009.000000,48962.000000
19183.000000,7039.000000,9786.000000,49080.000000
19363.000000,7209.000000,9868.000000,49068.000000
19078.000000,6995.000000,9908.000000,49191.000000
19366.000000,7071.000000,9934.000000,49141.000000
19420.000000,7113.000000,9900.000000,49255.000000
19349.000000,7065.000000,9908.000000,49214.000000
19315.000000,7233.000000,10037.000000,49193.000000
19391.000000,7120.000000,9997.000000,49072.000000
19376.000000,7078.000000,9990.000000,49025.000000
19376.000000,7159.000000,9987.000000,49154.000000
19372.000000,7062.000000,9929.000000,49213.000000
19518.000000,7073.000000,9991.000000,49236.000000
19311.000000,7105.000000,9821.000000,49093.000000
19324.000000,7057.000000,10075.000000,49178.000000
19475.000000,7096.000000,9877.000000,49136.000000
19305.000000,7047.000000,9882.000000,49146.000000
19327.000000,7090.000000,9960.000000,49127.000000
19386.000000,7085.000000,9899.000000,49155.000000
19260.000000,7043.000000,9905.000000,49190.000000
19339.000000,6806.000000,9850.000000,48948.000000
19228.000000,6954.000000,9805.000000,49076.000000
19293.000000,6987.000000,9831.000000,48988.000000
19282.000000,6956.000000,9795.000000,49103.000000
19192.000000,6915.000000,9813.000000,49106.000000
19296.000000,7006.000000,9702.000000,49100.000000
19214.000000,6950.000000,9547.000000,49274.000000
19291.000000,6989.000000,9771.000000,49043.000000
19197.000000,7003.000000,9712.000000,48980.000000
19183.000000,6937.000000,9757.000000,49097.000000
19271.000000,7011.000000,9693.000000,49069.000000
19223.000000,6985.000000,9699.000000,49016.000000
19144.000000,6859.000000,9745.000000,48950.000000
19154.000000,6872.000000,9752.000000,49035.000000
19088.000000,7043.000000,9575.000000,49047.000000
19108.000000,6981.000000,9620.000000,48992.000000
19091.000000,6876.000000,9729.000000,48995.000000
19193.000000,6898.000000,9639.000000,48888.000000
19168.000000,7051.000000,9783.000000,48922.000000
19104.000000,6944.000000,9599.000000,48992.000000
18988.000000,6870.000000,9556.000000,49041.000000
19149.000000,6873.000000,9464.000000,49069.000000
19075.000000,6835.000000,9610.000000,48913.000000
19191.000000,6848.000000,9503.000000,48993.000000
18908.000000,6754.000000,9610.000000,48974.000000
19117.000000,6797.000000,9540.000000,48962.000000
19040.000000,6811.000000,9545.000000,48904.000000
19053.000000,6766.000000,9642.000000,48814.000000
18906.000000,6739.000000,9513.000000,48907.000000
19036.000000,6746.000000,9512.000000,48957.000000
18970.000000,6729.000000,9512.000000,48958.000000
18869.000000,6663.000000,9394.000000,48761.000000
18829.000000,6713.000000,9408.000000,48883.000000
18944.000000,6659.000000,9442.000000,48993.000000
18922.000000,6727.000000,9430.000000,48886.000000
18833.000000,6657.000000,9395.000000,48831.000000
18813.000000,6728.000000,9398.000000,48824.000000
18896.000000,6695.000000,9448.000000,48887.000000
18812.000000,6752.000000,9546.000000,48818.000000
18763.000000,6686.000000,9389.000000,48852.000000
18864.000000,6658.000000,9300.000000,48907.000000
18846.000000,6703.000000,9312.000000,48910.000000
18839.000000,6662.000000,9313.000000,48862.000000
18758.000000,6615.000000,9324.000000,48850.000000
18729.000000,6594.000000,9137.000000,48602.000000
18872.000000,6661.000000,9338.000000,48838.000000
18747.000000,6654.000000,9265.000000,48811.000000
18671.000000,6643.000000,9241.000000,48714.000000
18767.000000,6622.000000,9247.000000,48754.000000
18703.000000,6640.000000,9351.000000,48789.000000
18861.000000,6640.000000,9304.000000,48788.000000
18716.000000,6542.000000,9266.000000,48757.000000
18718.000000,6619.000000,9279.000000,48815.000000
18745.000000,6592.000000,9267.000000,48869.000000
18665.000000,6602.000000,9248.000000,48799.000000
18639.000000,6573.000000,9130.000000,48743.000000
18674.000000,6568.000000,9232.000000,48750.000000
18783.000000,6465.000000,8968.000000,48541.000000
18625.000000,6555.000000,9134.000000,48746.000000
18786.000000,6481.000000,9174.000000,48776.000000
18824.000000,6544.000000,9218.000000,48792.000000
18679.000000,6628.000000,9152.000000,48946.000000
18777.000000,6495.000000,9175.000000,48802.000000
18553.000000,6466.000000,9184.000000,48679.000000
18592.000000,6471.000000,9147.000000,48681.000000
18678.000000,6481.000000,9113.000000,48692.000000
18667.000000,6536.000000,9103.000000,48718.000000
18536.000000,6446.000000,9222.000000,48763.000000
18568.000000,6527.000000,9106.000000,48767.000000
18601.000000,6457.000000,9099.000000,48778.000000
18781.000000,6486.000000,9013.000000,48682.000000
18441.000000,6548.000000,9095.000000,48702.000000
18573.000000,6565.000000,9105.000000,48644.000000
18667.000000,6482.000000,9152.000000,48757.000000
18725.000000,6474.000000,9059.000000,48667.000000
18660.000000,6458.000000,9094.000000,48657.000000
18618.000000,6503.000000,9069.000000,48730.000000
18625.000000,6426.000000,9030.000000,48741.000000
18462.000000,6432.000000,9035.000000,48595.000000
18384.000000,6453.000000,9091.000000,48692.000000
18643.000000,6533.000000,9072.000000,48649.000000
18677.000000,6425.000000,8964.000000,48468.000000
18491.000000,6439.000000,9169.000000,48569.000000
18483.000000,6400.000000,9098.000000,48650.000000
18550.000000,6443.000000,8971.000000,48656.000000
18467.000000,6399.000000,8966.000000,48670.000000
18516.000000,6257.000000,8955.000000,48683.000000
18409.000000,6445.000000,8969.000000,48648.000000
18465.000000,6282.000000,8785.000000,48873.000000
18429.000000,6375.000000,9048.000000,48629.000000
18317.000000,6286.000000,8802.000000,48629.000000
18504.000000,6415.000000,8991.000000,48621.000000
18353.000000,6404.000000,9021.000000,48549.000000
18564.000000,6446.000000,8999.000000,48626.000000
18434.000000,6490.000000,8999.000000,48497.000000
18504.000000,6381.000000,8956.000000,48652.000000
18451.000000,6532.000000,8855.000000,48606.000000
18559.000000,6357.000000,8986.000000,48639.000000
18422.000000,6361.000000,8945.000000,48673.000000
18541.000000,6344.000000,9019.000000,48625.000000
18596.000000,6385.000000,8966.000000,48599.000000
18537.000000,6629.000000,9125.000000,48534.000000
18482.000000,6368.000000,9004.000000,48569.000000
18569.000000,6548.000000,9058.000000,48607.000000
18562.000000,6380.000000,9060.000000,48708.000000
18480.000000,6499.000000,9165.000000,48700.000000
18520.000000,6401.000000,8990.000000,48846.000000
18561.000000,6555.000000,9157.000000,48636.000000
18660.000000,6524.000000,9031.000000,48757.000000
18549.000000,6496.000000,9106.000000,48671.000000
18590.000000,6407.000000,9050.000000,48799.000000
18694.000000,6567.000000,9243.000000,48734.000000
18653.000000,6494.000000,9225.000000,48864.000000
18554.000000,6516.000000,9147.000000,48786.000000
18547.000000,6492.000000,9249.000000,48787.000000
18740.000000,6551.000000,9232.000000,48785.000000
18682.000000,6570.000000,9319.000000,48834.000000
18681.000000,6536.000000,9338.000000,48830.000000
18746.000000,6435.000000,9398.000000,48817.000000
18768.000000,6850.000000,9329.000000,48915.000000
18704.000000,6742.000000,9343.000000,48781.000000
18835.000000,6681.000000,9421.000000,48806.000000
18925.000000,6700.000000,9489.000000,48948.000000
19011.000000,6752.000000,9452.000000,48925.000000
19029.000000,6794.000000,9663.000000,49078.000000
18930.000000,6756.000000,9652.000000,49002.000000
19067.000000,6805.000000,9673.000000,49029.000000
19169.000000,7127.000000,9777.000000,49217.000000
19125.000000,6920.000000,9763.000000,49037.000000
19152.000000,6961.000000,9796.000000,49281.000000
19256.000000,7054.000000,9805.000000,49181.000000
19159.000000,6950.000000,9967.000000,49209.000000
19395.000000,7109.000000,9883.000000,49154.000000
19409.000000,7118.000000,9979.000000,49165.000000
19340.000000,7122.000000,9992.000000,49262.000000
19304.000000,7139.000000,10096.000000,49202.000000
19422.000000,7139.000000,10136.000000,49232.000000
19285.000000,6948.000000,10016.000000,49277.000000
19421.000000,7207.000000,10045.000000,49220.000000
19438.000000,7176.000000,10078.000000,49157.000000
19424.000000,7176.000000,10080.000000,49222.000000
19323.000000,6967.000000,10016.000000,49232.000000
19316.000000,7294.000000,9960.000000,49291.000000
19363.000000,7100.000000,10093.000000,49246.000000
19348.000000,7204.000000,10007.000000,49220.000000
19138.000000,6840.000000,9762.000000,49239.000000
19218.000000,7033.000000,9852.000000,49084.000000
19271.000000,7087.000000,10014.000000,49173.000000
19206.000000,7023.000000,9997.000000,49226.000000
19252.000000,7022.000000,9873.000000,49105.000000
19252.000000,7056.000000,9907.000000,49184.000000
19318.000000,7093.000000,10003.000000,49179.000000
19245.000000,6990.000000,9966.000000,49103.000000
19310.000000,6997.000000,9930.000000,49168.000000
19210.000000,6994.000000,9870.000000,49094.000000
19289.000000,6890.000000,9975.000000,49044.000000
19087.000000,7001.000000,9843.000000,49047.000000
19148.000000,7029.000000,9807.000000,49113.000000
19072.000000,6821.000000,10034.000000,49061.000000
19116.000000,6941.000000,9801.000000,49146.000000
19074.000000,6979.000000,9735.000000,49111.000000
19067.000000,7019.000000,9755.000000,49055.000000
19140.000000,6953.000000,9786.000000,49072.000000
19046.000000,6874.000000,9788.000000,49246.000000
19144.000000,6781.000000,9771.000000,49092.000000
19106.000000,6931.000000,9830.000000,49040.000000
19075.000000,6932.000000,9784.000000,49094.000000
19079.000000,7003.000000,9758.000000,49016.000000
18992.000000,6875.000000,9692.000000,49146.000000
19089.000000,6899.000000,9632.000000,48981.000000
19045.000000,6860.000000,9625.000000,49011.000000
18992.000000,7009.000000,9510.000000,49205.000000
19003.000000,6842.000000,9682.000000,48984.000000
19043.000000,6874.000000,9637.000000,48983.000000
19009.000000,6788.000000,9603.000000,49154.000000
18930.000000,6787.000000,9631.000000,49038.000000
19034.000000,6660.000000,9639.000000,49001.000000
18961.000000,6801.000000,9562.000000,48974.000000
18975.000000,6760.000000,9530.000000,48977.000000
18992.000000,6811.000000,9573.000000,48987.000000
18855.000000,6693.000000,9504.000000,48890.000000
18749.000000,6813.000000,9675.000000,48989.000000
18945.000000,6742.000000,9463.000000,49030.000000
18874.000000,6748.000000,9433.000000,48806.000000
18776.000000,6643.000000,9451.000000,48947.000000
18815.000000,6759.000000,9519.000000,48850.000000
18874.000000,6692.000000,9472.000000,48760.000000
18927.000000,6723.000000,9482.000000,48895.000000
18778.000000,6566.000000,9572.000000,48945.000000
18780.000000,6721.000000,9376.000000,48807.000000
18902.000000,6672.000000,9344.000000,48864.000000
18769.000000,6602.000000,9458.000000,48873.000000
18744.000000,6386.000000,9441.000000,48855.000000
18794.000000,6633.000000,9351.000000,48895.000000
18784.000000,6642.000000,9341.000000,48858.000000
18888.000000,6732.000000,9254.000000,48782.000000
18833.000000,6585.000000,9310.000000,48872.000000
18810.000000,6699.000000,9359.000000,48808.000000
18782.000000,6841.000000,9320.000000,48926.000000
18599.000000,6680.000000,9313.000000,48882.000000
18576.000000,6603.000000,9433.000000,48770.000000
18676.000000,6583.000000,9312.000000,48820.000000
18832.000000,6603.000000,9247.000000,48778.000000
18689.000000,6523.000000,9302.000000,48709.000000
18659.000000,6606.000000,9256.000000,48796.000000
18734.000000,6632.000000,9238.000000,48750.000000
18633.000000,6676.000000,9148.000000,48799.000000
18560.000000,6570.000000,9223.000000,49013.000000
18611.000000,6690.000000,9162.000000,48722.000000
18571.000000,6587.000000,9244.000000,48784.000000
18564.000000,6561.000000,9265.000000,48819.000000
18511.000000,6556.000000,9244.000000,48764.000000
18588.000000,6534.000000,9228.000000,48785.000000
18574.000000,6536.000000,9234.000000,48760.000000
18700.000000,6545.000000,9212.000000,48670.000000
18709.000000,6660.000000,9231.000000,48989.000000
18531.000000,6501.000000,9268.000000,48759.000000
18625.000000,6521.000000,9122.000000,48714.000000
18545.000000,6561.000000,9220.000000,48753.000000
18528.000000,6500.000000,9158.000000,48789.000000
18556.000000,6533.000000,9177.000000,48836.000000
18673.000000,6647.000000,9272.000000,48640.000000
18705.000000,6567.000000,9275.000000,48781.000000
18515.000000,6515.000000,9089.000000,48798.000000
18633.000000,6571.000000,9149.000000,48681.000000
18535.000000,6496.000000,9168.000000,48757.000000
18419.000000,6367.000000,9121.000000,48710.000000
18435.000000,6479.000000,9195.000000,48650.000000
18527.000000,6437.000000,9151.000000,48743.000000
18569.000000,6497.000000,9230.000000,48720.000000
18446.000000,6470.000000,9137.000000,48678.000000
18431.000000,6396.000000,9147.000000,48667.000000
18433.000000,6433.000000,9131.000000,48704.000000
18478.000000,6421.000000,9070.000000,48696.000000
18424.000000,6407.000000,9069.000000,48736.000000
18354.000000,6287.000000,9126.000000,48616.000000
18432.000000,6465.000000,9081.000000,48673.000000
18429.000000,6469.000000,9046.000000,48628.000000
18314.000000,6263.000000,9037.000000,48736.000000
18289.000000,6409.000000,8980.000000,48678.000000
18432.000000,6424.000000,9038.000000,48693.000000
18511.000000,6415.000000,9075.000000,48776.000000
18378.000000,6397.000000,8997.000000,48660.000000
18473.000000,6379.000000,9134.000000,48647.000000
18413.000000,6355.000000,9007.000000,48620.000000
18507.000000,6380.000000,9036.000000,48654.000000
18327.000000,6408.000000,9017.000000,48872.000000
18380.000000,6362.000000,9104.000000,48675.000000
18452.000000,6410.000000,9130.000000,48698.000000
18404.000000,6376.000000,9045.000000,48684.000000
18233.000000,6240.000000,9169.000000,48780.000000
18443.000000,6384.000000,9153.000000,48673.000000
18420.000000,6583.000000,9133.000000,48753.000000
18501.000000,6435.000000,9249.000000,48765.000000
18477.000000,6438.000000,9108.000000,48714.000000
18477.000000,6538.000000,9219.000000,48730.000000
18460.000000,6493.000000,9158.000000,48775.000000
18500.000000,6516.000000,9174.000000,48751.000000
18386.000000,6553.000000,9184.000000,48677.000000
18531.000000,6481.000000,9168.000000,48787.000000
18561.000000,6542.000000,9296.000000,48766.000000
18613.000000,6574.000000,9294.000000,48844.000000
18485.000000,6702.000000,9287.000000,48797.000000
18590.000000,6561.000000,9329.000000,48794.000000
18672.000000,6579.000000,9387.000000,48900.000000
18612.000000,6654.000000,9472.000000,48999.000000
18637.000000,6477.000000,9429.000000,48759.000000
18709.000000,6671.000000,9455.000000,48858.000000
18703.000000,6494.000000,9635.000000,48875.000000
18672.000000,6737.000000,9588.000000,48912.000000
18723.000000,6534.000000,9446.000000,49060.000000
19038.000000,6658.000000,9769.000000,49001.000000
18903.000000,6895.000000,9702.000000,49123.000000
18868.000000,6741.000000,9638.000000,48998.000000
18895.000000,6769.000000,9628.000000,49107.000000
18869.000000,6819.000000,9602.000000,49078.000000
19004.000000,6824.000000,9691.000000,49218.000000
19014.000000,6845.000000,9836.000000,49134.000000
19003.000000,6844.000000,9748.000000,49133.000000
19157.000000,6928.000000,9984.000000,49214.000000
19263.000000,7018.000000,9854.000000,49310.000000
19212.000000,7089.000000,10068.000000,49244.000000
19219.000000,7013.000000,10084.000000,49402.000000
19385.000000,7239.000000,10043.000000,49275.000000
19247.000000,7047.000000,10031.000000,49247.000000
19162.000000,7077.000000,9966.000000,49357.000000
19293.000000,7170.000000,10109.000000,49274.000000
19350.000000,7048.000000,10025.000000,49247.000000
19188.000000,7151.000000,10048.000000,49216.000000
19335.000000,7214.000000,10276.000000,49223.000000
19217.000000,7098.000000,10036.000000,49138.000000
19308.000000,7153.000000,10186.000000,49279.000000
19340.000000,7124.000000,10010.000000,49343.000000
19156.000000,7076.000000,10155.000000,49270.000000
19204.000000,7094.000000,10138.000000,49233.000000
19208.000000,7082.000000,9965.000000,49246.000000
19276.000000,7200.000000,10001.000000,49324.000000
19140.000000,7067.000000,10020.000000,49495.000000
19198.000000,7008.000000,10051.000000,49413.000000
19282.000000,7017.000000,9978.000000,49254.000000
19169.000000,7045.000000,9938.000000,49235.000000
19027.000000,6932.000000,9826.000000,49253.000000
19260.000000,7051.000000,9994.000000,49256.000000
19197.000000,6888.000000,9752.000000,49149.000000
19129.000000,7100.000000,9949.000000,49247.000000
19048.000000,7010.000000,9989.000000,49156.000000
19119.000000,7010.000000,9906.000000,49239.000000
19020.000000,6967.000000,9927.000000,49254.000000
19143.000000,6989.000000,9938.000000,49141.000000
19265.000000,6978.000000,9854.000000,49157.000000
19117.000000,7012.000000,9922.000000,49105.000000
18949.000000,7097.000000,9880.000000,49179.000000
19098.000000,6960.000000,9891.000000,49122.000000
19048.000000,6893.000000,9843.000000,49009.000000
19097.000000,6940.000000,9646.000000,49289.000000
19016.000000,7004.000000,9686.000000,49034.000000
19003.000000,6896.000000,9779.000000,49020.000000
19012.000000,6871.000000,9937.000000,49006.000000
18993.000000,6892.000000,9732.000000,49113.000000
19046.000000,6945.000000,9821.000000,49088.000000
18896.000000,6871.000000,9770.000000,49154.000000
18909.000000,6826.000000,9689.000000,49046.000000
19012.000000,6739.000000,9718.000000,49129.000000
18898.000000,6790.000000,9663.000000,49114.000000
18884.000000,6801.000000,9667.000000,49109.000000
18988.000000,6822.000000,9729.000000,49092.000000
18931.000000,6833.000000,9677.000000,49039.000000
18746.000000,6913.000000,9648.000000,49086.000000
18847.000000,6791.000000,9593.000000,49040.000000
18873.000000,6851.000000,9648.000000,49034.000000
18947.000000,6868.000000,9594.000000,48913.000000
18819.000000,6939.000000,9524.000000,48917.000000
18795.000000,6734.000000,9542.000000,48983.000000
18817.000000,6704.000000,9526.000000,49027.000000
18700.000000,6755.000000,9592.000000,49044.000000
18763.000000,6827.000000,9613.000000,49012.000000
18647.000000,6783.000000,9461.000000,49023.000000
18774.000000,6730.000000,9509.000000,48933.000000
18776.000000,6743.000000,9409.000000,49020.000000
18800.000000,6682.000000,9484.000000,48921.000000
18447.000000,6729.000000,9702.000000,48829.000000
18747.000000,6733.000000,9551.000000,48935.000000
18724.000000,6719.000000,9522.000000,48895.000000
18717.000000,6711.000000,9463.000000,48875.000000
18591.000000,6695.000000,9450.000000,48928.000000
18632.000000,6743.000000,9443.000000,48959.000000
18516.000000,6954.000000,9474.000000,48949.000000
18705.000000,6578.000000,9476.000000,48901.000000
18561.000000,6658.000000,9565.000000,48844.000000
18609.000000,6699.000000,9479.000000,48994.000000
18626.000000,6664.000000,9478.000000,48950.000000
18578.000000,6630.000000,9380.000000,48897.000000
18639.000000,6479.000000,9436.000000,48872.000000
18542.000000,6504.000000,9421.000000,48861.000000
18622.000000,6557.000000,9456.000000,48775.000000
18503.000000,6642.000000,9550.000000,48908.000000
18555.000000,6647.000000,9382.000000,48887.000000
18598.000000,6642.000000,9358.000000,48892.000000
18623.000000,6560.000000,9447.000000,48821.000000
18504.000000,6658.000000,9409.000000,48900.000000
18529.000000,6571.000000,9321.000000,48881.000000
18637.000000,6609.000000,9331.000000,48828.000000
18573.000000,6618.000000,9339.000000,48849.000000
18594.000000,6700.000000,9462.000000,48783.000000
18557.000000,6435.000000,9489.000000,48889.000000
18563.000000,6588.000000,9408.000000,48909.000000
18507.000000,6515.000000,9594.000000,48752.000000
18475.000000,6744.000000,9430.000000,48849.000000
18618.000000,6529.000000,9384.000000,48822.000000
18602.000000,6610.000000,9438.000000,48901.000000
18658.000000,6666.000000,9409.000000,48697.000000
18476.000000,6518.000000,9365.000000,48876.000000
18630.000000,6495.000000,9268.000000,48815.000000
18624.000000,6571.000000,9348.000000,48814.000000
18571.000000,6616.000000,9297.000000,48862.000000
18453.000000,6443.000000,9296.000000,48785.000000
18415.000000,6506.000000,9283.000000,48900.000000
18659.000000,6535.000000,9322.000000,48954.000000
18534.000000,6570.000000,9272.000000,48836.000000
18227.000000,6322.000000,9291.000000,48798.000000
18474.000000,6502.000000,9221.000000,48851.000000
18529.000000,6557.000000,9253.000000,48799.000000
18435.000000,6507.000000,9219.000000,48831.000000
18387.000000,6499.000000,9230.000000,48915.000000
18384.000000,6445.000000,9163.000000,48778.000000
18435.000000,6451.000000,9265.000000,48772.000000
18382.000000,6434.000000,9226.000000,48811.000000
18404.000000,6460.000000,9230.000000,48827.000000
18388.000000,6451.000000,9212.000000,48796.000000
18458.000000,6444.000000,9247.000000,48784.000000
18458.000000,6366.000000,9400.000000,48766.000000
18536.000000,6409.000000,9176.000000,48730.000000
18484.000000,6459.000000,9222.000000,48836.000000
18452.000000,6512.000000,9272.000000,48832.000000
18417.000000,6469.000000,9307.000000,48853.000000
18387.000000,6542.000000,9329.000000,48920.000000
18498.000000,6523.000000,9337.000000,48866.000000
18463.000000,6497.000000,9435.000000,48862.000000
18410.000000,6651.000000,9357.000000,48807.000000
18372.000000,6549.000000,9203.000000,48923.000000
18523.000000,6597.000000,9371.000000,48903.000000
18555.000000,6579.000000,9405.000000,48871.000000
18411.000000,6470.000000,9384.000000,48748.000000
18466.000000,6511.000000,9415.000000,48847.000000
18535.000000,6628.000000,9456.000000,48925.000000
18620.000000,6648.000000,9408.000000,48943.000000
18520.000000,6590.000000,9324.000000,48816.000000
18395.000000,6564.000000,9441.000000,48988.000000
18711.000000,6606.000000,9393.000000,48937.000000
18586.000000,6689.000000,9501.000000,48995.000000
18628.000000,6567.000000,9534.000000,48966.000000
18518.000000,6574.000000,9608.000000,48865.000000
18671.000000,6692.000000,9527.000000,49020.000000
18706.000000,6662.000000,9590.000000,49044.000000
18629.000000,6724.000000,9655.000000,49037.000000
18662.000000,6513.000000,9455.000000,49092.000000
18769.000000,6766.000000,9740.000000,49121.000000
18816.000000,6717.000000,9755.000000,49076.000000
18798.000000,6885.000000,9718.000000,49263.000000
18744.000000,6775.000000,9841.000000,49099.000000
18858.000000,6779.000000,9836.000000,49172.000000
18927.000000,6877.000000,9912.000000,49159.000000
19053.000000,6972.000000,9976.000000,49229.000000
18965.000000,7010.000000,10008.000000,49225.000000
19040.000000,7217.000000,10007.000000,49332.000000
19110.000000,7067.000000,10087.000000,49323.000000
19125.000000,7068.000000,10095.000000,49264.000000
19166.000000,7146.000000,10144.000000,49348.000000
19266.000000,7078.000000,10296.000000,49329.000000
19156.000000,7136.000000,10202.000000,49414.000000
19183.000000,7132.000000,10258.000000,49290.000000
19331.000000,7214.000000,10498.000000,49427.000000
19313.000000,7201.000000,10395.000000,49607.000000
19314.000000,7113.000000,10336.000000,49499.000000
19323.000000,7219.000000,10380.000000,49434.000000
19392.000000,7339.000000,10383.000000,49462.000000
19255.000000,7314.000000,10454.000000,49495.000000
19209.000000,7145.000000,10338.000000,49536.000000
19278.000000,7239.000000,10431.000000,49386.000000
19300.000000,7350.000000,10432.000000,49430.000000
19333.000000,7282.000000,10363.000000,49384.000000
19187.000000,7243.000000,10342.000000,49573.000000
19315.000000,7191.000000,10408.000000,49354.000000
19282.000000,7268.000000,10201.000000,49355.000000
19235.000000,7255.000000,10334.000000,49313.000000
19280.000000,7188.000000,10342.000000,49210.000000
19369.000000,7202.000000,10214.000000,49354.000000
19193.000000,7074.000000,10233.000000,49382.000000
19254.000000,7224.000000,10177.000000,49324.000000
19186.000000,7164.000000,10333.000000,49377.000000
19250.000000,7094.000000,10150.000000,49345.000000
19207.000000,7245.000000,10177.000000,49315.000000
19238.000000,7029.000000,10179.000000,49326.000000
19122.000000,7089.000000,10217.000000,49393.000000
19364.000000,7054.000000,10411.000000,49139.000000
19141.000000,7077.000000,10190.000000,49338.000000
19113.000000,7114.000000,10157.000000,49317.000000
19096.000000,7139.000000,10183.000000,49477.000000
19023.000000,7039.000000,10384.000000,49168.000000
19119.000000,7008.000000,10155.000000,49314.000000
19064.000000,7119.000000,10088.000000,49336.000000
19091.000000,7160.000000,10067.000000,49310.000000
19059.000000,7078.000000,10105.000000,49275.000000
19074.000000,7064.000000,10238.000000,49332.000000
19103.000000,7102.000000,10109.000000,49348.000000
19014.000000,7050.000000,9931.000000,49368.000000
19055.000000,7073.000000,10081.000000,49222.000000
19029.000000,6800.000000,10034.000000,49195.000000
19139.000000,7044.000000,10044.000000,49295.000000
18947.000000,6905.000000,10114.000000,49203.000000
18972.000000,7004.000000,10009.000000,49234.000000
19069.000000,6969.000000,9952.000000,49323.000000
19000.000000,7052.000000,9917.000000,49340.000000
18848.000000,6982.000000,9939.000000,49217.000000
18977.000000,7015.000000,10010.000000,49314.000000
19204.000000,7044.000000,9836.000000,49314.000000
18830.000000,7040.000000,10007.000000,49210.000000
18852.000000,6898.000000,10073.000000,49240.000000
18870.000000,6925.000000,10096.000000,49153.000000
18936.000000,6971.000000,10019.000000,49235.000000
18977.000000,6981.000000,10033.000000,49277.000000
18721.000000,6950.000000,9992.000000,49173.000000
18960.000000,7007.000000,9887.000000,49072.000000
18938.000000,6941.000000,9938.000000,49147.000000
18905.000000,6898.000000,9890.000000,49279.000000
18711.000000,7049.000000,9805.000000,49220.000000
18913.000000,6923.000000,9935.000000,49223.000000
18863.000000,7003.000000,9872.000000,49143.000000
18838.000000,6800.000000,9763.000000,49177.000000
18830.000000,6864.000000,9794.000000,49122.000000
18904.000000,6766.000000,9825.000000,49191.000000
18959.000000,6971.000000,9804.000000,49180.000000
18710.000000,6850.000000,9836.000000,49159.000000
18867.000000,6777.000000,9859.000000,49045.000000
18929.000000,6986.000000,9790.000000,49196.000000
18859.000000,6788.000000,9800.000000,49186.000000
18694.000000,6829.000000,9815.000000,49020.000000
18861.000000,6832.000000,9871.000000,49197.000000
18896.000000,6781.000000,9730.000000,49129.000000
18736.000000,6835.000000,9788.000000,49148.000000
18734.000000,6787.000000,9831.000000,49089.000000
18830.000000,6920.000000,9718.000000,48889.000000
18809.000000,6855.000000,9797.000000,49125.000000
18758.000000,6876.000000,9790.000000,49232.000000
18579.000000,6587.000000,9684.000000,48985.000000
18768.000000,6813.000000,9741.000000,49106.000000
18839.000000,6875.000000,9782.000000,49059.000000
18731.000000,6738.000000,9801.000000,49041.000000
18787.000000,6742.000000,9795.000000,49016.000000
18876.000000,6833.000000,9788.000000,49043.000000
18762.000000,6825.000000,9793.000000,49121.000000
18743.000000,6857.000000,9780.000000,49097.000000
18621.000000,6698.000000,9579.000000,49198.000000
18647.000000,6802.000000,9822.000000,49123.000000
18739.000000,6875.000000,9763.000000,49089.000000
18725.000000,6814.000000,9767.000000,49113.000000
18754.000000,6764.000000,9659.000000,48797.000000
18744.000000,6900.000000,9796.000000,49072.000000
18702.000000,6748.000000,9709.000000,49030.000000
18713.000000,6788.000000,9831.000000,49085.000000
18666.000000,6697.000000,9698.000000,49011.000000
18698.000000,6785.000000,9707.000000,49012.000000
18726.000000,6745.000000,9715.000000,49134.000000
18702.000000,6826.000000,9674.000000,49081.000000
18727.000000,6725.000000,9660.000000,49119.000000
18704.000000,6741.000000,9684.000000,48911.000000
18760.000000,6857.000000,9755.000000,49167.000000
18583.000000,6671.000000,9615.000000,49051.000000
18619.000000,6730.000000,9655.000000,49010.000000
18686.000000,6830.000000,9797.000000,49090.000000
18543.000000,6694.000000,9719.000000,49052.000000
18630.000000,6680.000000,9599.000000,49026.000000
18599.000000,6700.000000,9625.000000,49090.000000
18596.000000,6528.000000,9642.000000,49007.000000
18661.000000,6724.000000,9642.000000,49004.000000
18539.000000,6641.000000,9691.000000,49042.000000
18582.000000,6659.000000,9755.000000,49174.000000
18669.000000,6728.000000,9722.000000,49070.000000
18670.000000,6768.000000,9668.000000,49069.000000
18708.000000,6676.000000,9735.000000,48963.000000
18716.000000,6704.000000,9702.000000,49015.000000
18836.000000,6818.000000,9818.000000,49128.000000
18683.000000,6731.000000,9660.000000,49132.000000
18655.000000,6817.000000,9714.000000,49100.000000
18665.000000,6772.000000,9754.000000,49028.000000
18738.000000,6921.000000,9685.000000,48990.000000
18763.000000,6823.000000,9741.000000,49126.000000
18692.000000,6714.000000,9798.000000,49148.000000
18897.000000,6749.000000,9830.000000,49110.000000
18600.000000,6813.000000,9792.000000,49122.000000
18735.000000,6828.000000,9813.000000,49146.000000
18765.000000,6742.000000,9801.000000,49138.000000
18740.000000,6929.000000,9906.000000,49206.000000
18804.000000,6729.000000,9887.000000,49105.000000
18889.000000,6852.000000,9883.000000,49209.000000
18788.000000,6756.000000,10002.000000,49136.000000
18865.000000,6885.000000,9982.000000,49276.000000
18860.000000,6911.000000,9997.000000,49339.000000
18917.000000,6871.000000,10044.000000,49352.000000
18773.000000,6829.000000,9993.000000,49224.000000
18998.000000,6988.000000,9956.000000,49209.000000
19033.000000,6989.000000,10093.000000,49326.000000
18979.000000,7029.000000,10054.000000,49354.000000
18977.000000,7066.000000,10070.000000,49287.000000
19095.000000,7024.000000,10122.000000,49327.000000
19130.000000,7095.000000,10256.000000,49290.000000
19025.000000,7049.000000,10310.000000,49367.000000
19046.000000,7078.000000,10289.000000,49348.000000
19047.000000,7018.000000,10364.000000,49418.000000
19210.000000,7291.000000,10397.000000,49408.000000
19165.000000,7224.000000,10346.000000,49420.000000
19254.000000,7217.000000,10374.000000,49497.000000
19400.000000,7184.000000,10343.000000,49575.000000
19375.000000,7213.000000,10575.000000,49464.000000
19376.000000,7299.000000,10539.000000,49644.000000
19546.000000,7398.000000,10791.000000,49447.000000
19484.000000,7448.000000,10629.000000,49556.000000
19403.000000,7406.000000,10840.000000,49624.000000
19489.000000,7440.000000,10743.000000,49604.000000
19591.000000,7514.000000,10792.000000,49677.000000
19588.000000,7473.000000,10807.000000,49680.000000
19572.000000,7472.000000,10967.000000,49645.000000
19525.000000,7458.000000,10799.000000,49696.000000
19567.000000,7523.000000,10831.000000,49716.000000
19793.000000,7349.000000,10848.000000,49621.000000
19549.000000,7479.000000,10823.000000,49685.000000
19521.000000,7367.000000,10932.000000,49733.000000
19573.000000,7471.000000,10770.000000,49661.000000
19430.000000,7508.000000,10816.000000,49714.000000
19487.000000,7444.000000,10765.000000,49713.000000
19455.000000,7405.000000,10755.000000,49720.000000
19562.000000,7434.000000,10709.000000,49671.000000
19569.000000,7457.000000,10794.000000,49440.000000
19563.000000,7550.000000,10732.000000,49634.000000
19473.000000,7345.000000,10727.000000,49623.000000
19557.000000,7485.000000,10787.000000,49572.000000
19563.000000,7426.000000,10769.000000,49780.000000
19367.000000,7520.000000,10782.000000,49595.000000
19399.000000,7389.000000,10694.000000,49628.000000
19489.000000,7442.000000,10709.000000,49697.000000
19523.000000,7488.000000,10654.000000,49528.000000
19454.000000,7448.000000,10647.000000,49602.000000
19380.000000,7247.000000,10637.000000,49573.000000
19427.000000,7386.000000,10645.000000,49547.000000
19428.000000,7395.000000,10609.000000,49512.000000
19439.000000,7437.000000,10599.000000,49605.000000
19542.000000,7199.000000,10575.000000,49627.000000
19442.000000,7335.000000,10649.000000,49493.000000
19385.000000,7324.000000,10494.000000,49491.000000
19342.000000,7279.000000,10531.000000,49530.000000
19388.000000,7072.000000,10481.000000,49594.000000
19280.000000,7356.000000,10508.000000,49450.000000
19408.000000,7331.000000,10487.000000,49539.000000
19296.000000,7189.000000,10675.000000,49429.000000
19251.000000,7205.000000,10655.000000,49522.000000
19283.000000,7315.000000,10463.000000,49542.000000
19340.000000,7220.000000,10535.000000,49474.000000
19063.000000,7234.000000,10595.000000,49377.000000
19311.000000,7223.000000,10484.000000,49524.000000
19317.000000,7379.000000,10494.000000,49415.000000
19221.000000,7322.000000,10398.000000,49535.000000
19211.000000,7194.000000,10478.000000,49474.000000
19142.000000,7202.000000,10393.000000,49440.000000
19319.000000,7304.000000,10392.000000,49541.000000
19150.000000,7222.000000,10327.000000,49462.000000
19059.000000,7092.000000,10370.000000,49384.000000
19200.000000,7123.000000,10548.000000,49397.000000
19256.000000,7132.000000,10315.000000,49467.000000
19127.000000,7220.000000,10299.000000,49466.000000
19053.000000,7092.000000,10307.000000,49405.000000
19118.000000,7163.000000,10305.000000,49393.000000
19134.000000,7265.000000,10240.000000,49411.000000
19031.000000,7214.000000,10303.000000,49408.000000
18968.000000,6970.000000,10277.000000,49429.000000
19159.000000,7187.000000,10239.000000,49409.000000
19207.000000,7126.000000,10090.000000,49334.000000
19107.000000,7211.000000,10027.000000,49369.000000
18957.000000,7095.000000,10300.000000,49374.000000
19006.000000,7131.000000,10275.000000,49339.000000
19061.000000,7153.000000,10227.000000,49371.000000
19062.000000,7132.000000,10054.000000,49564.000000
19049.000000,6999.000000,10213.000000,49317.000000
19078.000000,7124.000000,10130.000000,49357.000000
19057.000000,7052.000000,10068.000000,49534.000000
19089.000000,7031.000000,10075.000000,49367.000000
19028.000000,7084.000000,10258.000000,49367.000000
19024.000000,7049.000000,10166.000000,49338.000000
19101.000000,7123.000000,10092.000000,49295.000000
18936.000000,7005.000000,10311.000000,49480.000000
18960.000000,7028.000000,10246.000000,49284.000000
19105.000000,7062.000000,10160.000000,49330.000000
19060.000000,7079.000000,10287.000000,49300.000000
19031.000000,7067.000000,10179.000000,49407.000000
19008.000000,7031.000000,10159.000000,49467.000000
18994.000000,7078.000000,10208.000000,49383.000000
18982.000000,7064.000000,10161.000000,49272.000000
18910.000000,7031.000000,10145.000000,49197.000000
18930.000000,7094.000000,10128.000000,49265.000000
19086.000000,7041.000000,10089.000000,49372.000000
18939.000000,7123.000000,10131.000000,49315.000000
18887.000000,6987.000000,10097.000000,49276.000000
19034.000000,7011.000000,10166.000000,49340.000000
19033.000000,7051.000000,10189.000000,49390.000000
19055.000000,7069.000000,10177.000000,49386.000000
18808.000000,6820.000000,10036.000000,49092.000000
18966.000000,7015.000000,10161.000000,49282.000000
18960.000000,7210.000000,10119.000000,49326.000000
19045.000000,7054.000000,10176.000000,49273.000000
18876.000000,7017.000000,10177.000000,49290.000000
18959.000000,7039.000000,10259.000000,49165.000000
19009.000000,7068.000000,10013.000000,49385.000000
18913.000000,7041.000000,10138.000000,49283.000000
18786.000000,6834.000000,10244.000000,49226.000000
18989.000000,7012.000000,10085.000000,49296.000000
19044.000000,6908.000000,10068.000000,49360.000000
18943.000000,6936.000000,10067.000000,49317.000000
18857.000000,7011.000000,10033.000000,49530.000000
19032.000000,6796.000000,10200.000000,49363.000000
18948.000000,7015.000000,10120.000000,49265.000000
18847.000000,6947.000000,10060.000000,49341.000000
18739.000000,7100.000000,10083.000000,49333.000000
18994.000000,6936.000000,10100.000000,49238.000000
18879.000000,7073.000000,10172.000000,49282.000000
18892.000000,6992.000000,10062.000000,49234.000000
18921.000000,7006.000000,10165.000000,49317.000000
18877.000000,7170.000000,10090.000000,49376.000000
18961.000000,7002.000000,10152.000000,49339.000000
18851.000000,7231.000000,9996.000000,49289.000000
18856.000000,7106.000000,10182.000000,49319.000000
19030.000000,7034.000000,10046.000000,49349.000000
18922.000000,7035.000000,10140.000000,49289.000000
18900.000000,6987.000000,10169.000000,49333.000000
18868.000000,6915.000000,10153.000000,49338.000000
18820.000000,7030.000000,10130.000000,49367.000000
19074.000000,7004.000000,10244.000000,49368.000000
18936.000000,7174.000000,10123.000000,49313.000000
19005.000000,7030.000000,10143.000000,49410.000000
19037.000000,7038.000000,10233.000000,49382.000000
18888.000000,7041.000000,10131.000000,49466.000000
18950.000000,7022.000000,10248.000000,49434.000000
18913.000000,7085.000000,10114.000000,49232.000000
19061.000000,7162.000000,10322.000000,49455.000000
19043.000000,7081.000000,10219.000000,49467.000000
18987.000000,7050.000000,10326.000000,49323.000000
19039.000000,7108.000000,10170.000000,49441.000000
19060.000000,7102.000000,10257.000000,49456.000000
19208.000000,7115.000000,10289.000000,49403.000000
18989.000000,7166.000000,10304.000000,49432.000000
19081.000000,7096.000000,10337.000000,49442.000000
19093.000000,7252.000000,10392.000000,49458.000000
19272.000000,7245.000000,10420.000000,49490.000000
19250.000000,7265.000000,10431.000000,49376.000000
19280.000000,7196.000000,10466.000000,49557.000000
19260.000000,7296.000000,10551.000000,49496.000000
19329.000000,7364.000000,10569.000000,49585.000000
19435.000000,7353.000000,10422.000000,49506.000000
19361.000000,7388.000000,10743.000000,49587.000000
19513.000000,7535.000000,10783.000000,49723.000000
19404.000000,7404.000000,10766.000000,49623.000000
19387.000000,7477.000000,10782.000000,49760.000000
19606.000000,7530.000000,10846.000000,49606.000000
19682.000000,7594.000000,10949.000000,49734.000000
19519.000000,7705.000000,10961.000000,49763.000000
19656.000000,7567.000000,10951.000000,49811.000000
19573.000000,7625.000000,11026.000000,50020.000000
19719.000000,7715.000000,11030.000000,49777.000000
19727.000000,7645.000000,11082.000000,49800.000000
19786.000000,7822.000000,11052.000000,49916.000000
19845.000000,7620.000000,11030.000000,49887.000000
19740.000000,7738.000000,10946.000000,49860.000000
19799.000000,7740.000000,11083.000000,49864.000000
19872.000000,7628.000000,11056.000000,49878.000000
19787.000000,7640.000000,11134.000000,49866.000000
19750.000000,7770.000000,11088.000000,49822.000000
19664.000000,7643.000000,11083.000000,49887.000000
19657.000000,7600.000000,11041.000000,49880.000000
19776.000000,7580.000000,11032.000000,49771.000000
19585.000000,7851.000000,10896.000000,49681.000000
19626.000000,7624.000000,11070.000000,49713.000000
19663.000000,7638.000000,11009.000000,49876.000000
19830.000000,7540.000000,11041.000000,49765.000000
19763.000000,7624.000000,11077.000000,49819.000000
19673.000000,7555.000000,11058.000000,49840.000000
19580.000000,7701.000000,10985.000000,49802.000000
19701.000000,7670.000000,10974.000000,49844.000000
19693.000000,7595.000000,10984.000000,49871.000000
19659.000000,7566.000000,10940.000000,49695.000000
19628.000000,7560.000000,10945.000000,49740.000000
19813.000000,7605.000000,10999.000000,49732.000000
19717.000000,7591.000000,10884.000000,49698.000000
19501.000000,7524.000000,10990.000000,49790.000000
19614.000000,7533.000000,10966.000000,49748.000000
19647.000000,7510.000000,10969.000000,49590.000000
19614.000000,7623.000000,10888.000000,49708.000000
19603.000000,7479.000000,10797.000000,49857.000000
19542.000000,7544.000000,10928.000000,49703.000000
19706.000000,7612.000000,10885.000000,49720.000000
19476.000000,7507.000000,10828.000000,49707.000000
19442.000000,7453.000000,10820.000000,49723.000000
19557.000000,7536.000000,10822.000000,49678.000000
19656.000000,7451.000000,10693.000000,49640.000000
19528.000000,7606.000000,10721.000000,49672.000000
19527.000000,7443.000000,10795.000000,49715.000000
19550.000000,7524.000000,10734.000000,49625.000000
19515.000000,7447.000000,10815.000000,49702.000000
19501.000000,7447.000000,10765.000000,49602.000000
19452.000000,7411.000000,10781.000000,49636.000000
19545.000000,7407.000000,10861.000000,49627.000000
19475.000000,7562.000000,10725.000000,49715.000000
19498.000000,7423.000000,10604.000000,49712.000000
19489.000000,7381.000000,10565.000000,49599.000000
19434.000000,7494.000000,10706.000000,49535.000000
19373.000000,7423.000000,10714.000000,49612.000000
19223.000000,7279.000000,10712.000000,49553.000000
19329.000000,7230.000000,10640.000000,49490.000000
19420.000000,7374.000000,10532.000000,49819.000000
19319.000000,7505.000000,10588.000000,49632.000000
19310.000000,7363.000000,10629.000000,49565.000000
19393.000000,7284.000000,10580.000000,49656.000000
19418.000000,7396.000000,10603.000000,49544.000000
19297.000000,7414.000000,10590.000000,49548.000000
19328.000000,7215.000000,10555.000000,49738.000000
19188.000000,7281.000000,10779.000000,49603.000000
19290.000000,7168.000000,10544.000000,49635.000000
19314.000000,7295.000000,10576.000000,49550.000000
19282.000000,7321.000000,10589.000000,49497.000000
19082.000000,7118.000000,10584.000000,49605.000000
19147.000000,7298.000000,10503.000000,49529.000000
19386.000000,7336.000000,10466.000000,49691.000000
19189.000000,7279.000000,10505.000000,49553.000000
19211.000000,7224.000000,10451.000000,49457.000000
19352.000000,7208.000000,10537.000000,49519.000000
19293.000000,7333.000000,10478.000000,49567.000000
19147.000000,7275.000000,10542.000000,49512.000000
19257.000000,7244.000000,10492.000000,49584.000000
19350.000000,7303.000000,10434.000000,49605.000000
19273.000000,7264.000000,10509.000000,49534.000000
19152.000000,7221.000000,10558.000000,49441.000000
19369.000000,7294.000000,10488.000000,49497.000000
19480.000000,7307.000000,10484.000000,49471.000000
19081.000000,7319.000000,10509.000000,49552.000000
19154.000000,7196.000000,10380.000000,49540.000000
19301.000000,7210.000000,10599.000000,49403.000000
19267.000000,7376.000000,10512.000000,49481.000000
19191.000000,7353.000000,10480.000000,49502.000000
19190.000000,7170.000000,10418.000000,49519.000000
19190.000000,7352.000000,10526.000000,49522.000000
19283.000000,7288.000000,10541.000000,49478.000000
19244.000000,7205.000000,10599.000000,49576.000000
19148.000000,7218.000000,10402.000000,49553.000000
19308.000000,7173.000000,10445.000000,49513.000000
19304.000000,7264.000000,10459.000000,49477.000000
19439.000000,7254.000000,10303.000000,49356.000000
19095.000000,7200.000000,10453.000000,49481.000000
19176.000000,7300.000000,10380.000000,49469.000000
19236.000000,7221.000000,10449.000000,49472.000000
19170.000000,7337.000000,10433.000000,49488.000000
19162.000000,7187.000000,10387.000000,49407.000000
19344.000000,7257.000000,10445.000000,49498.000000
19220.000000,7294.000000,10390.000000,49472.000000
19106.000000,7182.000000,10406.000000,49609.000000
19114.000000,7212.000000,10470.000000,49547.000000
19170.000000,7187.000000,10502.000000,49472.000000
19116.000000,7194.000000,10560.000000,49401.000000
19137.000000,7294.000000,10341.000000,49484.000000
19096.000000,7392.000000,10345.000000,49579.000000
19119.000000,7175.000000,10308.000000,49467.000000
19128.000000,7211.000000,10348.000000,49414.000000
19179.000000,6929.000000,10221.000000,49494.000000
19016.000000,7051.000000,10263.000000,49449.000000
19142.000000,7148.000000,10354.000000,49386.000000
19053.000000,7114.000000,10364.000000,49403.000000
19096.000000,7087.000000,10325.000000,49430.000000
19102.000000,7153.000000,10314.000000,49461.000000
19110.000000,7143.000000,10313.000000,49369.000000
19163.000000,7247.000000,10325.000000,49483.000000
19076.000000,7119.000000,10300.000000,49302.000000
19147.000000,7167.000000,10293.000000,49460.000000
19025.000000,6968.000000,10227.000000,49574.000000
19126.000000,7195.000000,10334.000000,49419.000000
19118.000000,7117.000000,10411.000000,49441.000000
19196.000000,7178.000000,10291.000000,49457.000000
19180.000000,7256.000000,10562.000000,49576.000000
19210.000000,7213.000000,10453.000000,49371.000000
19020.000000,7291.000000,10315.000000,49575.000000
19151.000000,7189.000000,10396.000000,49393.000000
19162.000000,7333.000000,10372.000000,49452.000000
19250.000000,7263.000000,10445.000000,49509.000000
19104.000000,7049.000000,10304.000000,49505.000000
19173.000000,7378.000000,10445.000000,49509.000000
19199.000000,7243.000000,10473.000000,49483.000000
19287.000000,7292.000000,10385.000000,49551.000000
19185.000000,7206.000000,10474.000000,49627.000000
19335.000000,7233.000000,10497.000000,49551.000000
19274.000000,7328.000000,10576.000000,49496.000000
19245.000000,7253.000000,10690.000000,49580.000000
19143.000000,7270.000000,10686.000000,49707.000000
19340.000000,7378.000000,10662.000000,49623.000000
19319.000000,7300.000000,10670.000000,49678.000000
19366.000000,7286.000000,10701.000000,49714.000000
19376.000000,7373.000000,10866.000000,49655.000000
19538.000000,7442.000000,10806.000000,49682.000000
19489.000000,7522.000000,10848.000000,49656.000000
19444.000000,7477.000000,10938.000000,49899.000000
19737.000000,7539.000000,11180.000000,49743.000000
19624.000000,7657.000000,11079.000000,49841.000000
19745.000000,7788.000000,11281.000000,49894.000000
19721.000000,7745.000000,11086.000000,49884.000000
19891.000000,7779.000000,11081.000000,49877.000000
19866.000000,7724.000000,11208.000000,49832.000000
19787.000000,7892.000000,11260.000000,49892.000000
19838.000000,7679.000000,11227.000000,49946.000000
19851.000000,7756.000000,11202.000000,49928.000000
19881.000000,7736.000000,11262.000000,49922.000000
19866.000000,7672.000000,11181.000000,49867.000000
19769.000000,7771.000000,11146.000000,49865.000000
19869.000000,7686.000000,11307.000000,49901.000000
19775.000000,7751.000000,11330.000000,49791.000000
19729.000000,7731.000000,11178.000000,49876.000000
19569.000000,7787.000000,11112.000000,49815.000000
20025.000000,7683.000000,11092.000000,49856.000000
19718.000000,7684.000000,11269.000000,49829.000000
19760.000000,7683.000000,11136.000000,49898.000000
19750.000000,7601.000000,11118.000000,49671.000000
19786.000000,7646.000000,10934.000000,49760.000000
19689.000000,7746.000000,11026.000000,49755.000000
19739.000000,7543.000000,11056.000000,49867.000000
19664.000000,7757.000000,10927.000000,49694.000000
19729.000000,7605.000000,10942.000000,49854.000000
19711.000000,7632.000000,11070.000000,49798.000000
19682.000000,7635.000000,11097.000000,49948.000000
19518.000000,7555.000000,11030.000000,49613.000000
19649.000000,7572.000000,11141.000000,49739.000000
19653.000000,7635.000000,10975.000000,49734.000000
19570.000000,7607.000000,10999.000000,49701.000000
19619.000000,7593.000000,10917.000000,49753.000000
19577.000000,7523.000000,10807.000000,49720.000000
19655.000000,7539.000000,10859.000000,49698.000000
19547.000000,7531.000000,10905.000000,49722.000000
19488.000000,7497.000000,10833.000000,49631.000000
19645.000000,7467.000000,11035.000000,49863.000000
19561.000000,7521.000000,10799.000000,49790.000000
19564.000000,7496.000000,10997.000000,49862.000000
19346.000000,7444.000000,10827.000000,49811.000000
19647.000000,7582.000000,10833.000000,49701.000000
19505.000000,7470.000000,10842.000000,49748.000000
19599.000000,7458.000000,10770.000000,49737.000000
19505.000000,7459.000000,10754.000000,49687.000000
19568.000000,7484.000000,10820.000000,49630.000000
19456.000000,7532.000000,10712.000000,49692.000000
19385.000000,7383.000000,10755.000000,49624.000000
19376.000000,7518.000000,10805.000000,49669.000000
19568.000000,7465.000000,10702.000000,49634.000000
19515.000000,7434.000000,10718.000000,49704.000000
19393.000000,7362.000000,10637.000000,49584.000000
19478.000000,7436.000000,10667.000000,49595.000000
19468.000000,7397.000000,10651.000000,49660.000000
19441.000000,7465.000000,10637.000000,49532.000000
19290.000000,7353.000000,10706.000000,49544.000000
19435.000000,7412.000000,10599.000000,49593.000000
19333.000000,7453.000000,10658.000000,49596.000000
19404.000000,7359.000000,10599.000000,49613.000000
19261.000000,7300.000000,10600.000000,49617.000000
19365.000000,7311.000000,10631.000000,49586.000000
19355.000000,7369.000000,10533.000000,49587.000000
19418.000000,7272.000000,10561.000000,49598.000000
19432.000000,7443.000000,10436.000000,49397.000000
19262.000000,7358.000000,10484.000000,49502.000000
19334.000000,7425.000000,10568.000000,49615.000000
19296.000000,7364.000000,10546.000000,49529.000000
19271.000000,7362.000000,10236.000000,49450.000000
19291.000000,7219.000000,10465.000000,49343.000000
19255.000000,7334.000000,10495.000000,49589.000000
19359.000000,7340.000000,10538.000000,49510.000000
19180.000000,7269.000000,10444.000000,49503.000000
19286.000000,7360.000000,10398.000000,49525.000000
19292.000000,7165.000000,10544.000000,49469.000000
19235.000000,7119.000000,10415.000000,49434.000000
19165.000000,7202.000000,10441.000000,49528.000000
19151.000000,7231.000000,10490.000000,49647.000000
19307.000000,7281.000000,10388.000000,49565.000000
19129.000000,7286.000000,10455.000000,49424.000000
19098.000000,7240.000000,10436.000000,49505.000000
19255.000000,7224.000000,10466.000000,49500.000000
19188.000000,7363.000000,10496.000000,49533.000000
19059.000000,7259.000000,10420.000000,49388.000000
19121.000000,7302.000000,10527.000000,49453.000000
19330.000000,7180.000000,10367.000000,49534.000000
19220.000000,7201.000000,10433.000000,49445.000000
19131.000000,7172.000000,10372.000000,49441.000000
19251.000000,7093.000000,10432.000000,49305.000000
19201.000000,7164.000000,10438.000000,49574.000000
19094.000000,7291.000000,10565.000000,49421.000000
19268.000000,7222.000000,10368.000000,49402.000000
19152.000000,7235.000000,10306.000000,49406.000000
19157.000000,7275.000000,10337.000000,49431.000000
19204.000000,7267.000000,10381.000000,49373.000000
19070.000000,7246.000000,10255.000000,49662.000000
19253.000000,7169.000000,10338.000000,49490.000000
19186.000000,7203.000000,10370.000000,49426.000000
19219.000000,7213.000000,10344.000000,49422.000000
19200.000000,7188.000000,10385.000000,49444.000000
19215.000000,7170.000000,10344.000000,49423.000000
19129.000000,7466.000000,10310.000000,49499.000000
19193.000000,7105.000000,10287.000000,49423.000000
19192.000000,7344.000000,10299.000000,49379.000000
19082.000000,7164.000000,10302.000000,49432.000000
19125.000000,7104.000000,10244.000000,49431.000000
19260.000000,6995.000000,10254.000000,49455.000000
19106.000000,7165.000000,10288.000000,49362.000000
19184.000000,7146.000000,10297.000000,49463.000000
19150.000000,7136.000000,10277.000000,49240.000000
19140.000000,7095.000000,10210.000000,49352.000000
19092.000000,7038.000000,10176.000000,49418.000000
19035.000000,7152.000000,10167.000000,49394.000000
19074.000000,7012.000000,10169.000000,49432.000000
19125.000000,7030.000000,10205.000000,49326.000000
18948.000000,6960.000000,10445.000000,49519.000000
19027.000000,7033.000000,10115.000000,49329.000000
19152.000000,7011.000000,10232.000000,49398.000000
19065.000000,7104.000000,10188.000000,49320.000000
18951.000000,6816.000000,10333.000000,49411.000000
19058.000000,7076.000000,10077.000000,49424.000000
19104.000000,7104.000000,10260.000000,49552.000000
19063.000000,6924.000000,10282.000000,49299.000000
19052.000000,7048.000000,10183.000000,49438.000000
19187.000000,7191.000000,10232.000000,49404.000000
18858.000000,7104.000000,10238.000000,49371.000000
19067.000000,7078.000000,10314.000000,49381.000000
19018.000000,7012.000000,10332.000000,49451.000000
19215.000000,7080.000000,10463.000000,49358.000000
19088.000000,7180.000000,10332.000000,49382.000000
19108.000000,7157.000000,10360.000000,49472.000000
19087.000000,7280.000000,10186.000000,49452.000000
19060.000000,7131.000000,10209.000000,49451.000000
19181.000000,7150.000000,10278.000000,49428.000000
19026.000000,7105.000000,10518.000000,49424.000000
19136.000000,7142.000000,10272.000000,49504.000000
19206.000000,7209.000000,10361.000000,49436.000000
19175.000000,7244.000000,10440.000000,49529.000000
19132.000000,7118.000000,10430.000000,49442.000000
19215.000000,7178.000000,10274.000000,49541.000000
19202.000000,7267.000000,10501.000000,49535.000000
19287.000000,7315.000000,10593.000000,49556.000000
19303.000000,7303.000000,10572.000000,49635.000000
19301.000000,7300.000000,10550.000000,49582.000000
19389.000000,7319.000000,10510.000000,49582.000000
19525.000000,7545.000000,10664.000000,49655.000000
19362.000000,7454.000000,10675.000000,49569.000000
19515.000000,7461.000000,10747.000000,49704.000000
19585.000000,7496.000000,10798.000000,49709.000000
19644.000000,7511.000000,10943.000000,49672.000000
19660.000000,7633.000000,10997.000000,49826.000000
19725.000000,7639.000000,11061.000000,49769.000000
19701.000000,7734.000000,11069.000000,49830.000000
19745.000000,7736.000000,11072.000000,49821.000000
19724.000000,7601.000000,11090.000000,49796.000000
19821.000000,7758.000000,11182.000000,49902.000000
19829.000000,7922.000000,11167.000000,49884.000000
19876.000000,7760.000000,11143.000000,49941.000000
19736.000000,7758.000000,11141.000000,49868.000000
20047.000000,7706.000000,11142.000000,49809.000000
19872.000000,7684.000000,11107.000000,49873.000000
19679.000000,7729.000000,11109.000000,49927.000000
19656.000000,7666.000000,11029.000000,49829.000000
19825.000000,7738.000000,11108.000000,49937.000000
19866.000000,7732.000000,11067.000000,49886.000000
19850.000000,7725.000000,11210.000000,49898.000000
19653.000000,7643.000000,11096.000000,49872.000000
19793.000000,7709.000000,11058.000000,49834.000000
19714.000000,7642.000000,11074.000000,49748.000000
19660.000000,7665.000000,11219.000000,49744.000000
19771.000000,7659.000000,11090.000000,49801.000000
19696.000000,7736.000000,11230.000000,49795.000000
19753.000000,7663.000000,10981.000000,49831.000000
19609.000000,7603.000000,10947.000000,49745.000000
19638.000000,7644.000000,11005.000000,49750.000000
19719.000000,7649.000000,10983.000000,49688.000000
19671.000000,7647.000000,11106.000000,49889.000000
19514.000000,7636.000000,11197.000000,49602.000000
19703.000000,7556.000000,10972.000000,49742.000000
19572.000000,7621.000000,10870.000000,49650.000000
19676.000000,7616.000000,10974.000000,49750.000000
19544.000000,7402.000000,10851.000000,49746.000000
19626.000000,7503.000000,10963.000000,49709.000000
19482.000000,7630.000000,10829.000000,49747.000000
19585.000000,7495.000000,10828.000000,49673.000000
19632.000000,7359.000000,10754.000000,49665.000000
19548.000000,7543.000000,10767.000000,49682.000000
19635.000000,7490.000000,10776.000000,49830.000000
19558.000000,7703.000000,10839.000000,49749.000000
19478.000000,7464.000000,10851.000000,49605.000000
19596.000000,7439.000000,10687.000000,49607.000000
19538.000000,7518.000000,10722.000000,49814.000000
19565.000000,7509.000000,10801.000000,49715.000000
19250.000000,7455.000000,10712.000000,49729.000000
19522.000000,7358.000000,10661.000000,49727.000000
19533.000000,7453.000000,10728.000000,49607.000000
19509.000000,7397.000000,10733.000000,49719.000000
19343.000000,7418.000000,10711.000000,49692.000000
19656.000000,7484.000000,10735.000000,49610.000000
19489.000000,7433.000000,10586.000000,49524.000000
19379.000000,7425.000000,10690.000000,49560.000000
19384.000000,7432.000000,10755.000000,49541.000000
19411.000000,7413.000000,10595.000000,49550.000000
19412.000000,7426.000000,10607.000000,49600.000000
19354.000000,7387.000000,10534.000000,49694.000000
19234.000000,7484.000000,10440.000000,49416.000000
19380.000000,7410.000000,10614.000000,49549.000000
19238.000000,7261.000000,10721.000000,49453.000000
19439.000000,7349.000000,10573.000000,49561.000000
19309.000000,7292.000000,10470.000000,49616.000000
19386.000000,7317.000000,10538.000000,49483.000000
19415.000000,7236.000000,10518.000000,49459.000000
19410.000000,7264.000000,10503.000000,49469.000000
19209.000000,7263.000000,10434.000000,49502.000000
19240.000000,7283.000000,10523.000000,49556.000000
19333.000000,7204.000000,10359.000000,49605.000000
19198.000000,7244.000000,10373.000000,49494.000000
19228.000000,7316.000000,10470.000000,49441.000000
19244.000000,7257.000000,10326.000000,49463.000000
19216.000000,7238.000000,10417.000000,49490.000000
19090.000000,7179.000000,10573.000000,49435.000000
19173.000000,7224.000000,10369.000000,49457.000000
19260.000000,7354.000000,10305.000000,49373.000000
19235.000000,7225.000000,10314.000000,49555.000000
19301.000000,7207.000000,10336.000000,49313.000000
19147.000000,7218.000000,10353.000000,49422.000000
19114.000000,7269.000000,10357.000000,49403.000000
19167.000000,7202.000000,10291.000000,49477.000000
19083.000000,7225.000000,10349.000000,49434.000000
19213.000000,7337.000000,10444.000000,49532.000000
19198.000000,7174.000000,10251.000000,49351.000000
19168.000000,7281.000000,10279.000000,49450.000000
19268.000000,7284.000000,10249.000000,49387.000000
19134.000000,7230.000000,10187.000000,49501.000000
19171.000000,7070.000000,10373.000000,49504.000000
19133.000000,7099.000000,10201.000000,49453.000000
19090.000000,7130.000000,10231.000000,49346.000000
19216.000000,7058.000000,10266.000000,49334.000000
19158.000000,7195.000000,10242.000000,49483.000000
19103.000000,7115.000000,10341.000000,49369.000000
19088.000000,7080.000000,10205.000000,49336.000000
19091.000000,7188.000000,10246.000000,49442.000000
19119.000000,7161.000000,10337.000000,49535.000000
19133.000000,7055.000000,10300.000000,49441.000000
19074.000000,7095.000000,10220.000000,49318.000000
19141.000000,7080.000000,10251.000000,49404.000000
19079.000000,7174.000000,10174.000000,49401.000000
19044.000000,7103.000000,10190.000000,49314.000000
19056.000000,7036.000000,10206.000000,49379.000000
19138.000000,7141.000000,10294.000000,49417.000000
19052.000000,7157.000000,10160.000000,49468.000000
19055.000000,7090.000000,10093.000000,49401.000000
19019.000000,7012.000000,10237.000000,49365.000000
19065.000000,7120.000000,10223.000000,49248.000000
19086.000000,7081.000000,10148.000000,49303.000000
18944.000000,6873.000000,10055.000000,49366.000000
18958.000000,6920.000000,10119.000000,49345.000000
18981.000000,7047.000000,10195.000000,49374.000000
18955.000000,7101.000000,10142.000000,49407.000000
18897.000000,6982.000000,10005.000000,49206.000000
18997.000000,7006.000000,10127.000000,49299.000000
18967.000000,6985.000000,10204.000000,49325.000000
19003.000000,7065.000000,10150.000000,49350.000000
18904.000000,6966.000000,10063.000000,49295.000000
18958.000000,6969.000000,10074.000000,49287.000000
19010.000000,6992.000000,10047.000000,49297.000000
18996.000000,7015.000000,10084.000000,49321.000000
18901.000000,6949.000000,10055.000000,49331.000000
18989.000000,6929.000000,10138.000000,49286.000000
19036.000000,7074.000000,10119.000000,49291.000000
18925.000000,6961.000000,10052.000000,49291.000000
18891.000000,6877.000000,10092.000000,49365.000000
18843.000000,6974.000000,10066.000000,49374.000000
19033.000000,7053.000000,10056.000000,49189.000000
18918.000000,7083.000000,10035.000000,49308.000000
18967.000000,6986.000000,10034.000000,49273.000000
19014.000000,7034.000000,9929.000000,49341.000000
19007.000000,6966.000000,10068.000000,49272.000000
19024.000000,6959.000000,10055.000000,49300.000000
18815.000000,6942.000000,10095.000000,49417.000000
19108.000000,7015.000000,10091.000000,49377.000000
19031.000000,6991.000000,10142.000000,49334.000000
18922.000000,6968.000000,10088.000000,49315.000000
18817.000000,6944.000000,10269.000000,49201.000000
18958.000000,6982.000000,10123.000000,49280.000000
19085.000000,7078.000000,10085.000000,49171.000000
19091.000000,7037.000000,10204.000000,49330.000000
18984.000000,7071.000000,10070.000000,49342.000000
18942.000000,7130.000000,10172.000000,49270.000000
19104.000000,7017.000000,10220.000000,49328.000000
19160.000000,7160.000000,10241.000000,49460.000000
19047.000000,7114.000000,10298.000000,49367.000000
19158.000000,7207.000000,10333.000000,49502.000000
19251.000000,7175.000000,10380.000000,49453.000000
19113.000000,7215.000000,10415.000000,49491.000000
19296.000000,7077.000000,10412.000000,49521.000000
19260.000000,7224.000000,10517.000000,49487.000000
19312.000000,7223.000000,10470.000000,49685.000000
19231.000000,7364.000000,10535.000000,49503.000000
19314.000000,7414.000000,10582.000000,49636.000000
19412.000000,7411.000000,10719.000000,49653.000000
19512.000000,7509.000000,10732.000000,49703.000000
19436.000000,7528.000000,10806.000000,49615.000000
19618.000000,7533.000000,10870.000000,49658.000000
19669.000000,7506.000000,10897.000000,49687.000000
19622.000000,7561.000000,10896.000000,49749.000000
19588.000000,7480.000000,10913.000000,49864.000000
19702.000000,7561.000000,10930.000000,49762.000000
19893.000000,7463.000000,10791.000000,49585.000000
19737.000000,7707.000000,10898.000000,49784.000000
19563.000000,7672.000000,10938.000000,49730.000000
19755.000000,7517.000000,10933.000000,49784.000000
19737.000000,7659.000000,10979.000000,49719.000000
19641.000000,7573.000000,10984.000000,49713.000000
19599.000000,7631.000000,10901.000000,49714.000000
19585.000000,7542.000000,10955.000000,49765.000000
19638.000000,7579.000000,10881.000000,49726.000000
19664.000000,7672.000000,11015.000000,49745.000000
19525.000000,7476.000000,10931.000000,49799.000000
19654.000000,7556.000000,10838.000000,49629.000000
19501.000000,7530.000000,10803.000000,49804.000000
19638.000000,7536.000000,10875.000000,49612.000000
19557.000000,7422.000000,10806.000000,49698.000000
19538.000000,7472.000000,10747.000000,49621.000000
19624.000000,7497.000000,10727.000000,49651.000000
19429.000000,7668.000000,10709.000000,49726.000000
19422.000000,7413.000000,10753.000000,49698.000000
19502.000000,7580.000000,10786.000000,49675.000000
19404.000000,7520.000000,10734.000000,49621.000000
19439.000000,7341.000000,10804.000000,49671.000000
19489.000000,7668.000000,10742.000000,49664.000000
19449.000000,7484.000000,10852.000000,49524.000000
19556.000000,7438.000000,10831.000000,49776.000000
19355.000000,7441.000000,10619.000000,49634.000000
19384.000000,7352.000000,10580.000000,49632.000000
19433.000000,7427.000000,10656.000000,49629.000000
19639.000000,7378.000000,10748.000000,49565.000000
19380.000000,7337.000000,10583.000000,49451.000000
19390.000000,7341.000000,10625.000000,49608.000000
19377.000000,7395.000000,10634.000000,49593.000000
19276.000000,7332.000000,10552.000000,49542.000000
19241.000000,7296.000000,10579.000000,49516.000000
19375.000000,7321.000000,10614.000000,49539.000000
19331.000000,7437.000000,10346.000000,49554.000000
19386.000000,7363.000000,10451.000000,49577.000000
19191.000000,7290.000000,10542.000000,49449.000000
19318.000000,7277.000000,10547.000000,49557.000000
19265.000000,7345.000000,10545.000000,49546.000000
19310.000000,7204.000000,10535.000000,49557.000000
19299.000000,7324.000000,10540.000000,49443.000000
19297.000000,7282.000000,10392.000000,49471.000000
19307.000000,7293.000000,10454.000000,49597.000000
19267.000000,7179.000000,10456.000000,49459.000000
19245.000000,7193.000000,10395.000000,49429.000000
19317.000000,7272.000000,10263.000000,49347.000000
19277.000000,7265.000000,10295.000000,49442.000000
19219.000000,7321.000000,10534.000000,49392.000000
19057.000000,7232.000000,10184.000000,49439.000000
19217.000000,7314.000000,10419.000000,49264.000000
19151.000000,7171.000000,10294.000000,49374.000000
18929.000000,7265.000000,10132.000000,49523.000000
18920.000000,6909.000000,10286.000000,49224.000000
19023.000000,7142.000000,10201.000000,49420.000000
19220.000000,7042.000000,10200.000000,49419.000000
19121.000000,7033.000000,10321.000000,49346.000000
18900.000000,7094.000000,10192.000000,49395.000000
18951.000000,7064.000000,10127.000000,49450.000000
19124.000000,7149.000000,10199.000000,49341.000000
19015.000000,7087.000000,10179.000000,49378.000000
18968.000000,7021.000000,10142.000000,49298.000000
19130.000000,7118.000000,10332.000000,49297.000000
18969.000000,7032.000000,10287.000000,49527.000000
18896.000000,7000.000000,10155.000000,49241.000000
18839.000000,6907.000000,10124.000000,49257.000000
18993.000000,7090.000000,10114.000000,49347.000000
18953.000000,7071.000000,10148.000000,49357.000000
18816.000000,7007.000000,10069.000000,49276.000000
18956.000000,7165.000000,9854.000000,49207.000000
19004.000000,6935.000000,10026.000000,49298.000000
18954.000000,7038.000000,10104.000000,49261.000000
18828.000000,6893.000000,10017.000000,49293.000000
18874.000000,6905.000000,10024.000000,49264.000000
18965.000000,6990.000000,9917.000000,49299.000000
18932.000000,6970.000000,10014.000000,49398.000000
18803.000000,6958.000000,9962.000000,49315.000000
18965.000000,7028.000000,10060.000000,49349.000000
18634.000000,6934.000000,10199.000000,49196.000000
18891.000000,7048.000000,9994.000000,49298.000000
18716.000000,6902.000000,10042.000000,49190.000000
19024.000000,6977.000000,10071.000000,49288.000000
18899.000000,7022.000000,10047.000000,49072.000000
18962.000000,6994.000000,10010.000000,49201.000000
18786.000000,6773.000000,9777.000000,49075.000000
18925.000000,6948.000000,10036.000000,49202.000000
18933.000000,7005.000000,9954.000000,49224.000000
18979.000000,7040.000000,9990.000000,49242.000000
18760.000000,6733.000000,9781.000000,49144.000000
18836.000000,7006.000000,10015.000000,49239.000000
18768.000000,7125.000000,10147.000000,49226.000000
18822.000000,6999.000000,10040.000000,49237.000000
18804.000000,6949.000000,9886.000000,49178.000000
18858.000000,6877.000000,9839.000000,49221.000000
18869.000000,6936.000000,9882.000000,49294.000000
18771.000000,6989.000000,9960.000000,49243.000000
18676.000000,6852.000000,10005.000000,49183.000000
18676.000000,6895.000000,9961.000000,49250.000000
18964.000000,7034.000000,9921.000000,49179.000000
18804.000000,6894.000000,9910.000000,49190.000000
18706.000000,6880.000000,9854.000000,49206.000000
18762.000000,6848.000000,9987.000000,49144.000000
18703.000000,6793.000000,9928.000000,49182.000000
18706.000000,6756.000000,9850.000000,49062.000000
18803.000000,6838.000000,9887.000000,49230.000000
18659.000000,6879.000000,9839.000000,49269.000000
18681.000000,6918.000000,9884.000000,49158.000000
18738.000000,6799.000000,9829.000000,49178.000000
18643.000000,6793.000000,9881.000000,49201.000000
18719.000000,6875.000000,9905.000000,49228.000000
18680.000000,6703.000000,9916.000000,49138.000000
18701.000000,6849.000000,9784.000000,49057.000000
18661.000000,6867.000000,9830.000000,49191.000000
18647.000000,6873.000000,9865.000000,49306.000000
18693.000000,6825.000000,10084.000000,49001.000000
18593.000000,6799.000000,9874.000000,49232.000000
18697.000000,6786.000000,9831.000000,49135.000000
18693.000000,6784.000000,9930.000000,49172.000000
18742.000000,6826.000000,9897.000000,49170.000000
18418.000000,6815.000000,9872.000000,49301.000000
18763.000000,6834.000000,9905.000000,49313.000000
18670.000000,6926.000000,9835.000000,49311.000000
18706.000000,6894.000000,9888.000000,49219.000000
18742.000000,6873.000000,9869.000000,49319.000000
18916.000000,6855.000000,9922.000000,49227.000000
18740.000000,6824.000000,9970.000000,49308.000000
18686.000000,6970.000000,10015.000000,49183.000000
18694.000000,6910.000000,10044.000000,49090.000000
18867.000000,6817.000000,9931.000000,49264.000000
18850.000000,6964.000000,10115.000000,49281.000000
18758.000000,6852.000000,10054.000000,49362.000000
18808.000000,6900.000000,10026.000000,49303.000000
18797.000000,6974.000000,10094.000000,49245.000000
18898.000000,7088.000000,10269.000000,49438.000000
18787.000000,7028.000000,10103.000000,49365.000000
18789.000000,6996.000000,10191.000000,49296.000000
18987.000000,7062.000000,10189.000000,49338.000000
18905.000000,7180.000000,10259.000000,49342.000000
18984.000000,7211.000000,10191.000000,49423.000000
19135.000000,7051.000000,10286.000000,49296.000000
19084.000000,7169.000000,10245.000000,49576.000000
19204.000000,7270.000000,10400.000000,49616.000000
19086.000000,7251.000000,10435.000000,49457.000000
19223.000000,7297.000000,10359.000000,49513.000000
19348.000000,7317.000000,10568.000000,49539.000000
19348.000000,7375.000000,10555.000000,49590.000000
19357.000000,7370.000000,10701.000000,49582.000000
19233.000000,7384.000000,10688.000000,49675.000000
19493.000000,7461.000000,10718.000000,49641.000000
19484.000000,7458.000000,10758.000000,49675.000000
19464.000000,7465.000000,11001.000000,49587.000000
19496.000000,7487.000000,10812.000000,49571.000000
19602.000000,7563.000000,10953.000000,49767.000000
19586.000000,7476.000000,11165.000000,49751.000000
19569.000000,7482.000000,10874.000000,49742.000000
19635.000000,7556.000000,10905.000000,49742.000000
19484.000000,7560.000000,10783.000000,49754.000000
19494.000000,7477.000000,10788.000000,49777.000000
19576.000000,7500.000000,10886.000000,49815.000000
19505.000000,7522.000000,10747.000000,49718.000000
19532.000000,7515.000000,11005.000000,49734.000000
19549.000000,7526.000000,10867.000000,49721.000000
19457.000000,7522.000000,10773.000000,49672.000000
19451.000000,7491.000000,10765.000000,49719.000000
19410.000000,7693.000000,10594.000000,49634.000000
19561.000000,7486.000000,10770.000000,49658.000000
19314.000000,7541.000000,10641.000000,49504.000000
19391.000000,7436.000000,10681.000000,49676.000000
19335.000000,7453.000000,10829.000000,49603.000000
19338.000000,7342.000000,10759.000000,49755.000000
19255.000000,7359.000000,10689.000000,49648.000000
19442.000000,7486.000000,10701.000000,49610.000000
19346.000000,7476.000000,10717.000000,49588.000000
19399.000000,7370.000000,10609.000000,49568.000000
19319.000000,7375.000000,10569.000000,49635.000000
19360.000000,7368.000000,10597.000000,49591.000000
19376.000000,7217.000000,10699.000000,49605.000000
19291.000000,7251.000000,10626.000000,49795.000000
19208.000000,7287.000000,10583.000000,49629.000000
19320.000000,7389.000000,10668.000000,49578.000000
19343.000000,7421.000000,10756.000000,49578.000000
19279.000000,7279.000000,10472.000000,49537.000000
19164.000000,7286.000000,10349.000000,49660.000000
19237.000000,7280.000000,10401.000000,49543.000000
19141.000000,7265.000000,10581.000000,49447.000000
19071.000000,7337.000000,10457.000000,49523.000000
19022.000000,7201.000000,10410.000000,49400.000000
19086.000000,7202.000000,10370.000000,49559.000000
19239.000000,7188.000000,10497.000000,49479.000000
19235.000000,7198.000000,10361.000000,49444.000000
19075.000000,7172.000000,10324.000000,49370.000000
19097.000000,7177.000000,10428.000000,49501.000000
19017.000000,7199.000000,10372.000000,49434.000000
18986.000000,7181.000000,10405.000000,49516.000000
19073.000000,7226.000000,10320.000000,49288.000000
19163.000000,7047.000000,10389.000000,49419.000000
19169.000000,7196.000000,10242.000000,49394.000000
18901.000000,7087.000000,10237.000000,49454.000000
18979.000000,7085.000000,10199.000000,49527.000000
19018.000000,7122.000000,10261.000000,49411.000000
19011.000000,7125.000000,10241.000000,49405.000000
19080.000000,7085.000000,10267.000000,49489.000000
19013.000000,7120.000000,10186.000000,49341.000000
18880.000000,7020.000000,10203.000000,49407.000000
18983.000000,7040.000000,10193.000000,49362.000000
18939.000000,7097.000000,10126.000000,49253.000000
18944.000000,7126.000000,10277.000000,49338.000000
19109.000000,7033.000000,10141.000000,49320.000000
18909.000000,7173.000000,10215.000000,49327.000000
18912.000000,7064.000000,10138.000000,49237.000000
18882.000000,7076.000000,10232.000000,49306.000000
18945.000000,7079.000000,10286.000000,49334.000000
18916.000000,7208.000000,10166.000000,49253.000000
18767.000000,6959.000000,10028.000000,49274.000000
18814.000000,7041.000000,10087.000000,49344.000000
18892.000000,6911.000000,10068.000000,49256.000000
18852.000000,6947.000000,10063.000000,49255.000000
18786.000000,6825.000000,10054.000000,49298.000000
18816.000000,6907.000000,10006.000000,49256.000000
18838.000000,6966.000000,10004.000000,49258.000000
18672.000000,7035.000000,9917.000000,49293.000000
18917.000000,7099.000000,10078.000000,49243.000000
18829.000000,6901.000000,9914.000000,49364.000000
18841.000000,6964.000000,10038.000000,49305.000000
18687.000000,6824.000000,10136.000000,49202.000000
18757.000000,6885.000000,10045.000000,49253.000000
18793.000000,6929.000000,9927.000000,49297.000000
18846.000000,6922.000000,9963.000000,49250.000000
18664.000000,6837.000000,9977.000000,49277.000000
18672.000000,6913.000000,9956.000000,49235.000000
18827.000000,6949.000000,9926.000000,49210.000000
18774.000000,6927.000000,10046.000000,49254.000000
18737.000000,6978.000000,9977.000000,49222.000000
18753.000000,6909.000000,9859.000000,49288.000000
18854.000000,6902.000000,9982.000000,49368.000000
18703.000000,6919.000000,10053.000000,49367.000000
18689.000000,6862.000000,9936.000000,49236.000000
18766.000000,6883.000000,10008.000000,49234.000000
18700.000000,6886.000000,9948.000000,49242.000000
18723.000000,6933.000000,9933.000000,49255.000000
18722.000000,6929.000000,9924.000000,49210.000000
18687.000000,6907.000000,9913.000000,49145.000000
18721.000000,6911.000000,10082.000000,49263.000000
18725.000000,6930.000000,10008.000000,49260.000000
18694.000000,7016.000000,9836.000000,49295.000000
18721.000000,6917.000000,9935.000000,49177.000000
18607.000000,6911.000000,9873.000000,49175.000000
18512.000000,6741.000000,9994.000000,49193.000000
18470.000000,6824.000000,9951.000000,49076.000000
18659.000000,6879.000000,9941.000000,49200.000000
18691.000000,6859.000000,9918.000000,49146.000000
18635.000000,6772.000000,9876.000000,49168.000000
18614.000000,6758.000000,9919.000000,49219.000000
18761.000000,6794.000000,9858.000000,49192.000000
18651.000000,6837.000000,9926.000000,49114.000000
18662.000000,6840.000000,9828.000000,49153.000000
18546.000000,6835.000000,9823.000000,49187.000000
18570.000000,6796.000000,9805.000000,49261.000000
18555.000000,6772.000000,10022.000000,49147.000000
18644.000000,6816.000000,9733.000000,49167.000000
18572.000000,6630.000000,9853.000000,49071.000000
18642.000000,6898.000000,9924.000000,49229.000000
18562.000000,6782.000000,9972.000000,49304.000000
18623.000000,6921.000000,9771.000000,49198.000000
18665.000000,6811.000000,9862.000000,49028.000000
18776.000000,6941.000000,10037.000000,49195.000000
18644.000000,6852.000000,9932.000000,49322.000000
18654.000000,6803.000000,9897.000000,49234.000000
18702.000000,6801.000000,9915.000000,49239.000000
18944.000000,6775.000000,9915.000000,49264.000000
18755.000000,6891.000000,9966.000000,49141.000000
18628.000000,6735.000000,9875.000000,49417.000000
18643.000000,6819.000000,9894.000000,49171.000000
18724.000000,6883.000000,10013.000000,49355.000000
18697.000000,6886.000000,9912.000000,49263.000000
18691.000000,6890.000000,9943.000000,49322.000000
18722.000000,6804.000000,10020.000000,49185.000000
18722.000000,6894.000000,9968.000000,49260.000000
18723.000000,6930.000000,10169.000000,49266.000000
18705.000000,6699.000000,10053.000000,49254.000000
18784.000000,6859.000000,10042.000000,49307.000000
18741.000000,7053.000000,10052.000000,49405.000000
18775.000000,6974.000000,10147.000000,49310.000000
18920.000000,6869.000000,10168.000000,49251.000000
18792.000000,7026.000000,10152.000000,49307.000000
18953.000000,7112.000000,10312.000000,49491.000000
18887.000000,7019.000000,10246.000000,49279.000000
18914.000000,7013.000000,10090.000000,49433.000000
19038.000000,7105.000000,10286.000000,49460.000000
18756.000000,7179.000000,10511.000000,49395.000000
19110.000000,7248.000000,10257.000000,49633.000000
18980.000000,7095.000000,10512.000000,49518.000000
19078.000000,7181.000000,10459.000000,49495.000000
19141.000000,7166.000000,10454.000000,49552.000000
19329.000000,7162.000000,10617.000000,49633.000000
19084.000000,7289.000000,10547.000000,49542.000000
19335.000000,7248.000000,10869.000000,49689.000000
19432.000000,7486.000000,10793.000000,49552.000000
19408.000000,7404.000000,10843.000000,49707.000000
19411.000000,7397.000000,10742.000000,49735.000000
19407.000000,7453.000000,10866.000000,49754.000000
19516.000000,7584.000000,10922.000000,49805.000000
19575.000000,7587.000000,10892.000000,49786.000000
19522.000000,7522.000000,10986.000000,49930.000000
19503.000000,7569.000000,11071.000000,49820.000000
19551.000000,7654.000000,10974.000000,49710.000000
19501.000000,7576.000000,10931.000000,49837.000000
19483.000000,7500.000000,10956.000000,49701.000000
19469.000000,7644.000000,10861.000000,49808.000000
19590.000000,7732.000000,10797.000000,49664.000000
19427.000000,7593.000000,10917.000000,49666.000000
19437.000000,7632.000000,10912.000000,49853.000000
19443.000000,7432.000000,10906.000000,49712.000000
19533.000000,7557.000000,10794.000000,49698.000000
19373.000000,7508.000000,10896.000000,49610.000000
19300.000000,7553.000000,10886.000000,49657.000000
19418.000000,7671.000000,10760.000000,49738.000000
19363.000000,7515.000000,10814.000000,49768.000000
19321.000000,7434.000000,10829.000000,49500.000000
19551.000000,7394.000000,10721.000000,49651.000000
19491.000000,7480.000000,10793.000000,49607.000000
19360.000000,7451.000000,10744.000000,49702.000000
19351.000000,7421.000000,10585.000000,49513.000000
19324.000000,7406.000000,10737.000000,49579.000000
19297.000000,7307.000000,10575.000000,49562.000000
19177.000000,7396.000000,10606.000000,49554.000000
19134.000000,7278.000000,10781.000000,49667.000000
19304.000000,7414.000000,10635.000000,49518.000000
19246.000000,7371.000000,10603.000000,49581.000000
19221.000000,7361.000000,10630.000000,49655.000000
19145.000000,7354.000000,10563.000000,49602.000000
19226.000000,7455.000000,10608.000000,49626.000000
19192.000000,7179.000000,10536.000000,49551.000000
19104.000000,7315.000000,10502.000000,49578.000000
19146.000000,7279.000000,10573.000000,49536.000000
19082.000000,7282.000000,10467.000000,49607.000000
19312.000000,7328.000000,10444.000000,49517.000000
19050.000000,7283.000000,10456.000000,49549.000000
18889.000000,7166.000000,10513.000000,49463.000000
18935.000000,7349.000000,10363.000000,49479.000000
19097.000000,7305.000000,10485.000000,49524.000000
19078.000000,7176.000000,10384.000000,49473.000000
19022.000000,7185.000000,10400.000000,49393.000000
19067.000000,7243.000000,10479.000000,49513.000000
19000.000000,7191.000000,10321.000000,49550.000000
19071.000000,7144.000000,10315.000000,49456.000000
18939.000000,7152.000000,10320.000000,49360.000000
19029.000000,7263.000000,10414.000000,49499.000000
19073.000000,7125.000000,10158.000000,49418.000000
18954.000000,7236.000000,10291.000000,49412.000000
18899.000000,7044.000000,10300.000000,49377.000000
18867.000000,7125.000000,10281.000000,49445.000000
19068.000000,7302.000000,10286.000000,49467.000000
18775.000000,7018.000000,10161.000000,49509.000000
18872.000000,7079.000000,10219.000000,49345.000000
18905.000000,7100.000000,10242.000000,49425.000000
18725.000000,7074.000000,10267.000000,49363.000000
18740.000000,6980.000000,10107.000000,49366.000000
18750.000000,6912.000000,10136.000000,49311.000000
18917.000000,7158.000000,10102.000000,49186.000000
18860.000000,7038.000000,10173.000000,49364.000000
18852.000000,7077.000000,10357.000000,49399.000000
18773.000000,6986.000000,10107.000000,49302.000000
18798.000000,7029.000000,10159.000000,49253.000000
18793.000000,7038.000000,10152.000000,49371.000000
18725.000000,6971.000000,10106.000000,49200.000000
18667.000000,6947.000000,10042.000000,49362.000000
18793.000000,6979.000000,10036.000000,49277.000000
18789.000000,6964.000000,9998.000000,49319.000000
18627.000000,6952.000000,10073.000000,49286.000000
18720.000000,6900.000000,10029.000000,49309.000000
18723.000000,6952.000000,9990.000000,49142.000000
18696.000000,6877.000000,10042.000000,49273.000000
18688.000000,6896.000000,9929.000000,49219.000000
18746.000000,6911.000000,10059.000000,49311.000000
18660.000000,7013.000000,10105.000000,49277.000000
18592.000000,6915.000000,10047.000000,49133.000000
18501.000000,6974.000000,9929.000000,49320.000000
18679.000000,6928.000000,10028.000000,49244.000000
18604.000000,6786.000000,10058.000000,49324.000000
18636.000000,7003.000000,9972.000000,49164.000000
18667.000000,6784.000000,10018.000000,49263.000000
18640.000000,6898.000000,9929.000000,49249.000000
18634.000000,6825.000000,9972.000000,49309.000000
18617.000000,7047.000000,9684.000000,49221.000000
18479.000000,6813.000000,9912.000000,49400.000000
18594.000000,6904.000000,9961.000000,49238.000000
18461.000000,6796.000000,9987.000000,49255.000000
18596.000000,6806.000000,10002.000000,49297.000000
18581.000000,6810.000000,9839.000000,49229.000000
18670.000000,6849.000000,9938.000000,49214.000000
18593.000000,6829.000000,9865.000000,49191.000000
18639.000000,6856.000000,9934.000000,49224.000000
18628.000000,6910.000000,9740.000000,49245.000000
18599.000000,6834.000000,9881.000000,49273.000000
18601.000000,6818.000000,9923.000000,49253.000000
18477.000000,6808.000000,9821.000000,49269.000000
18481.000000,6761.000000,10028.000000,48929.000000
18508.000000,6782.000000,9941.000000,49223.000000
18533.000000,6801.000000,9948.000000,49257.000000
18550.000000,6742.000000,9867.000000,49211.000000
18386.000000,6585.000000,9725.000000,49185.000000
18491.000000,6745.000000,9801.000000,49171.000000
18456.000000,6726.000000,9831.000000,49172.000000
18378.000000,6742.000000,9783.000000,49176.000000
18350.000000,6725.000000,9835.000000,49134.000000
18410.000000,6655.000000,9682.000000,49285.000000
18528.000000,6674.000000,9812.000000,49196.000000
18384.000000,6773.000000,9569.000000,49158.000000
18428.000000,6892.000000,9751.000000,49114.000000
18384.000000,7061.000000,9697.000000,49031.000000
18274.000000,6733.000000,9755.000000,49213.000000
18442.000000,6739.000000,9775.000000,49144.000000
18394.000000,6815.000000,9835.000000,49192.000000
18443.000000,6737.000000,9700.000000,49208.000000
18431.000000,6744.000000,9891.000000,49132.000000
18379.000000,6670.000000,9758.000000,49189.000000
18477.000000,6721.000000,9874.000000,49153.000000
18433.000000,6800.000000,9829.000000,49114.000000
18290.000000,6803.000000,9693.000000,49077.000000
18375.000000,6666.000000,9934.000000,49245.000000
18332.000000,6847.000000,9825.000000,49189.000000
18650.000000,6771.000000,9892.000000,49181.000000
18555.000000,6922.000000,9838.000000,49082.000000
18474.000000,6810.000000,9836.000000,49271.000000
18515.000000,6883.000000,9917.000000,49213.000000
18550.000000,6840.000000,10056.000000,49271.000000
18489.000000,6831.000000,10042.000000,49249.000000
18567.000000,6781.000000,9886.000000,49203.000000
18553.000000,6840.000000,10059.000000,49242.000000
18643.000000,6853.000000,9925.000000,49325.000000
18493.000000,6825.000000,10003.000000,49269.000000
18625.000000,6767.000000,9954.000000,49265.000000
18724.000000,6992.000000,10086.000000,49414.000000
18656.000000,6870.000000,10105.000000,49338.000000
18585.000000,6895.000000,10122.000000,49310.000000
18706.000000,7152.000000,9956.000000,49278.000000
18672.000000,6995.000000,10139.000000,49403.000000
18861.000000,6928.000000,10218.000000,49402.000000
18648.000000,6940.000000,10269.000000,49362.000000
18811.000000,6885.000000,10277.000000,49473.000000
18860.000000,6940.000000,10395.000000,49478.000000
18992.000000,7096.000000,10401.000000,49457.000000
18842.000000,7120.000000,10337.000000,49498.000000
19048.000000,7218.000000,10441.000000,49523.000000
19081.000000,7178.000000,10563.000000,49635.000000
18985.000000,7186.000000,10426.000000,49543.000000
18953.000000,7274.000000,10598.000000,49559.000000
19103.000000,7355.000000,10707.000000,49682.000000
19305.000000,7411.000000,10917.000000,49462.000000
19241.000000,7408.000000,10767.000000,49690.000000
19179.000000,7399.000000,10796.000000,49916.000000
19316.000000,7515.000000,10894.000000,49753.000000
19484.000000,7555.000000,10889.000000,49652.000000
19415.000000,7497.000000,10925.000000,49809.000000
19290.000000,7487.000000,10867.000000,49797.000000
19334.000000,7585.000000,10997.000000,49906.000000
19457.000000,7565.000000,10948.000000,49743.000000
19294.000000,7467.000000,10838.000000,49784.000000
19333.000000,7481.000000,11022.000000,49823.000000
19374.000000,7520.000000,10922.000000,49873.000000
19341.000000,7527.000000,10908.000000,49793.000000
19383.000000,7566.000000,10931.000000,49944.000000
19250.000000,7413.000000,10739.000000,49712.000000
19290.000000,7478.000000,10845.000000,49794.000000
19228.000000,7411.000000,10858.000000,49650.000000
19348.000000,7457.000000,10825.000000,49775.000000
19214.000000,7451.000000,10773.000000,49627.000000
19247.000000,7554.000000,10798.000000,49695.000000
19290.000000,7472.000000,10807.000000,49760.000000
19194.000000,7435.000000,10802.000000,49773.000000
19041.000000,7412.000000,10764.000000,49717.000000
19247.000000,7281.000000,10740.000000,49694.000000
19325.000000,7372.000000,10743.000000,49652.000000
19165.000000,7387.000000,10689.000000,49738.000000
19184.000000,7324.000000,10693.000000,49679.000000
19132.000000,7346.000000,10638.000000,49624.000000
19250.000000,7399.000000,10803.000000,49713.000000
19180.000000,7378.000000,10853.000000,49630.000000
19242.000000,7297.000000,10644.000000,49552.000000
19170.000000,7268.000000,10734.000000,49580.000000
19169.000000,7317.000000,10714.000000,49663.000000
19053.000000,7287.000000,10608.000000,49574.000000
19076.000000,7349.000000,10600.000000,49581.000000
19238.000000,7264.000000,10618.000000,49659.000000
19055.000000,7305.000000,10580.000000,49634.000000
19052.000000,7244.000000,10703.000000,49562.000000
19026.000000,7293.000000,10615.000000,49604.000000
19063.000000,7421.000000,10612.000000,49564.000000
19063.000000,7249.000000,10572.000000,49553.000000
18901.000000,7206.000000,10492.000000,49601.000000
18915.000000,7284.000000,10387.000000,49588.000000
18998.000000,7223.000000,10600.000000,49620.000000
18960.000000,7175.000000,10530.000000,49545.000000
18931.000000,7258.000000,10605.000000,49412.000000
18996.000000,7141.000000,10526.000000,49429.000000
18922.000000,7233.000000,10432.000000,49503.000000
19102.000000,7192.000000,10491.000000,49504.000000
18810.000000,7051.000000,10481.000000,49532.000000
18978.000000,7069.000000,10404.000000,49549.000000
18939.000000,7200.000000,10432.000000,49544.000000
18866.000000,7198.000000,10381.000000,49455.000000
18699.000000,7049.000000,10462.000000,49463.000000
18893.000000,7107.000000,10329.000000,49468.000000
18803.000000,7120.000000,10344.000000,49473.000000
18819.000000,7173.000000,10321.000000,49434.000000
18608.000000,6818.000000,10314.000000,49364.000000
18845.000000,7082.000000,10420.000000,49371.000000
18770.000000,7065.000000,10224.000000,49322.000000
18785.000000,7002.000000,10376.000000,49331.000000
18622.000000,6933.000000,10210.000000,49376.000000
18689.000000,6887.000000,10206.000000,49199.000000
18733.000000,7101.000000,10297.000000,49479.000000
18772.000000,6907.000000,10223.000000,49394.000000
18762.000000,7009.000000,10190.000000,49307.000000
18626.000000,7018.000000,10213.000000,49536.000000
18788.000000,7011.000000,10211.000000,49364.000000
18599.000000,6773.000000,10188.000000,49354.000000
18750.000000,7063.000000,10227.000000,49236.000000
18773.000000,6985.000000,10100.000000,49374.000000
18671.000000,7027.000000,10187.000000,49417.000000
18545.000000,6918.000000,10131.000000,49466.000000
18662.000000,6824.000000,10109.000000,49285.000000
18547.000000,6912.000000,10121.000000,49380.000000
18759.000000,7010.000000,10178.000000,49535.000000
18526.000000,6946.000000,10077.000000,49333.000000
18563.000000,6930.000000,10123.000000,49331.000000
18592.000000,6939.000000,10176.000000,49352.000000
18549.000000,6901.000000,10113.000000,49380.000000
18555.000000,6920.000000,10208.000000,49219.000000
18577.000000,7006.000000,10165.000000,49339.000000
18577.000000,6994.000000,10146.000000,49326.000000
18610.000000,6909.000000,10117.000000,49357.000000
18490.000000,6909.000000,10101.000000,49319.000000
18585.000000,7003.000000,10042.000000,49309.000000
18676.000000,6761.000000,10176.000000,49433.000000
18601.000000,6881.000000,10046.000000,49318.000000
18535.000000,6927.000000,9967.000000,49537.000000
18583.000000,6925.000000,10086.000000,49331.000000
18640.000000,6896.000000,10122.000000,49334.000000
18687.000000,7000.000000,10085.000000,49299.000000
18440.000000,6939.000000,9989.000000,49341.000000
18645.000000,6846.000000,9964.000000,49337.000000
18663.000000,6895.000000,10088.000000,49475.000000
18565.000000,6889.000000,10043.000000,49301.000000
18378.000000,6783.000000,10094.000000,49324.000000
18653.000000,6902.000000,9998.000000,49415.000000
18670.000000,6932.000000,9968.000000,49244.000000
18452.000000,6870.000000,9870.000000,49319.000000
18427.000000,6855.000000,10059.000000,49224.000000
18513.000000,6857.000000,9994.000000,49339.000000
18478.000000,6848.000000,10019.000000,49231.000000
18415.000000,6775.000000,9980.000000,49291.000000
18363.000000,6688.000000,10084.000000,49281.000000
18463.000000,6811.000000,9936.000000,49267.000000
18544.000000,6877.000000,9874.000000,49229.000000
18403.000000,6753.000000,9951.000000,49203.000000
18451.000000,6696.000000,9883.000000,49240.000000
18410.000000,6827.000000,9986.000000,49261.000000
18370.000000,6794.000000,9945.000000,49239.000000
18441.000000,6799.000000,9964.000000,49310.000000
18392.000000,6681.000000,9918.000000,49230.000000
18485.000000,6891.000000,9882.000000,49219.000000
18472.000000,6867.000000,9931.000000,49348.000000
18393.000000,6721.000000,9973.000000,49287.000000
18580.000000,6815.000000,9923.000000,49338.000000
18592.000000,6685.000000,10023.000000,49192.000000
18459.000000,6918.000000,10014.000000,49353.000000
18414.000000,6810.000000,9930.000000,49307.000000
18415.000000,6802.000000,10027.000000,49368.000000
18595.000000,6875.000000,10070.000000,49354.000000
18506.000000,6919.000000,10097.000000,49295.000000
18632.000000,6889.000000,10013.000000,49316.000000
18588.000000,6905.000000,10133.000000,49349.000000
18538.000000,6895.000000,10185.000000,49397.000000
18616.000000,6901.000000,10082.000000,49274.000000
18408.000000,6965.000000,10141.000000,49392.000000
18561.000000,7003.000000,10181.000000,49408.000000
18541.000000,6932.000000,10127.000000,49397.000000
18685.000000,7023.000000,10373.000000,49264.000000
18534.000000,6966.000000,10220.000000,49343.000000
18729.000000,7010.000000,10289.000000,49479.000000
18677.000000,6940.000000,10197.000000,49458.000000
18672.000000,6943.000000,10258.000000,49518.000000
18707.000000,6924.000000,10345.000000,49472.000000
18682.000000,7092.000000,10428.000000,49474.000000
18733.000000,7058.000000,10355.000000,49515.000000
18732.000000,6949.000000,10415.000000,49532.000000
18663.000000,7157.000000,10477.000000,49422.000000
18757.000000,7089.000000,10494.000000,49582.000000
18976.000000,7108.000000,10476.000000,49629.000000
18850.000000,7216.000000,10481.000000,49574.000000
18704.000000,7060.000000,10500.000000,49610.000000
19022.000000,7266.000000,10600.000000,49716.000000
19003.000000,7253.000000,10619.000000,49570.000000
18901.000000,7305.000000,10634.000000,49505.000000
19040.000000,7206.000000,10886.000000,49773.000000
19160.000000,7292.000000,10818.000000,49716.000000
19203.000000,7384.000000,10854.000000,49781.000000
18983.000000,7472.000000,10958.000000,49774.000000
19185.000000,7374.000000,10899.000000,49782.000000
19268.000000,7639.000000,10873.000000,49818.000000
19378.000000,7489.000000,10969.000000,49804.000000
19317.000000,7432.000000,11065.000000,49863.000000
19359.000000,7553.000000,11121.000000,49968.000000
19563.000000,7520.000000,11176.000000,50060.000000
19353.000000,7631.000000,11124.000000,49990.000000
19330.000000,7696.000000,11197.000000,49997.000000
19436.000000,7626.000000,11083.000000,49938.000000
19344.000000,7523.000000,11116.000000,49885.000000
19363.000000,7721.000000,11140.000000,49988.000000
19331.000000,7568.000000,11165.000000,49892.000000
19481.000000,7676.000000,11143.000000,49964.000000
19324.000000,7581.000000,11148.000000,49903.000000
19316.000000,7606.000000,11139.000000,49962.000000
19399.000000,7586.000000,11122.000000,49862.000000
19402.000000,7585.000000,11176.000000,49831.000000
19365.000000,7599.000000,11068.000000,49950.000000
19507.000000,7599.000000,11084.000000,49740.000000
19293.000000,7560.000000,11042.000000,49906.000000
19399.000000,7531.000000,11090.000000,49926.000000
19253.000000,7616.000000,11041.000000,49830.000000
19435.000000,7405.000000,10936.000000,49829.000000
19082.000000,7486.000000,11050.000000,49804.000000
19284.000000,7517.000000,10985.000000,49900.000000
19217.000000,7441.000000,10945.000000,49914.000000
19268.000000,7523.000000,10999.000000,49877.000000
19143.000000,7452.000000,10969.000000,49820.000000
19297.000000,7588.000000,11018.000000,49924.000000
19256.000000,7464.000000,10992.000000,49795.000000
19081.000000,7531.000000,10913.000000,49824.000000
19148.000000,7615.000000,10852.000000,49695.000000
19272.000000,7522.000000,10952.000000,49852.000000
19224.000000,7401.000000,10908.000000,49826.000000
19136.000000,7552.000000,10909.000000,49808.000000
19204.000000,7455.000000,10940.000000,49822.000000
19120.000000,7357.000000,10726.000000,49851.000000
19049.000000,7384.000000,10749.000000,49776.000000
19090.000000,7460.000000,10892.000000,49716.000000
19225.000000,7303.000000,10844.000000,49762.000000
19232.000000,7368.000000,10857.000000,49730.000000
19222.000000,7435.000000,10804.000000,49742.000000
19107.000000,7285.000000,10890.000000,49743.000000
19057.000000,7293.000000,10791.000000,49664.000000
19185.000000,7350.000000,10846.000000,49706.000000
19282.000000,7343.000000,10769.000000,49716.000000
19016.000000,7288.000000,10715.000000,49695.000000
19137.000000,7332.000000,10695.000000,49661.000000
18943.000000,7368.000000,10689.000000,49667.000000
19028.000000,7357.000000,10826.000000,49776.000000
18957.000000,7304.000000,10696.000000,49560.000000
19024.000000,7311.000000,10630.000000,49615.000000
18995.000000,7351.000000,10709.000000,49693.000000
18902.000000,7321.000000,10706.000000,49671.000000
19087.000000,7156.000000,10628.000000,49592.000000
19022.000000,7318.000000,10599.000000,49670.000000
18873.000000,7190.000000,10691.000000,49706.000000
18929.000000,7366.000000,10593.000000,49681.000000
18857.000000,7341.000000,10475.000000,49562.000000
18944.000000,7259.000000,10648.000000,49566.000000
18858.000000,7279.000000,10547.000000,49662.000000
18904.000000,7247.000000,10545.000000,49621.000000
18897.000000,7066.000000,10578.000000,49613.000000
18758.000000,7219.000000,10530.000000,49531.000000
18831.000000,7172.000000,10480.000000,49637.000000
18776.000000,7139.000000,10538.000000,49540.000000
18732.000000,7197.000000,10675.000000,49477.000000
18926.000000,7168.000000,10598.000000,49589.000000
18690.000000,7095.000000,10404.000000,49580.000000
18790.000000,7005.000000,10446.000000,49531.000000
18717.000000,7065.000000,10407.000000,49568.000000
18808.000000,7195.000000,10485.000000,49534.000000
18844.000000,6977.000000,10480.000000,49545.000000
18623.000000,7140.000000,10377.000000,49498.000000
18701.000000,7126.000000,10443.000000,49468.000000
18784.000000,7245.000000,10545.000000,49509.000000
18742.000000,7077.000000,10426.000000,49610.000000
18671.000000,7073.000000,10429.000000,49539.000000
18609.000000,7020.000000,10498.000000,49552.000000
18792.000000,7047.000000,10401.000000,49507.000000
18634.000000,6972.000000,10606.000000,49445.000000
18578.000000,7124.000000,10468.000000,49423.000000
18722.000000,6962.000000,10467.000000,49496.000000
18760.000000,7161.000000,10358.000000,49566.000000
18735.000000,7283.000000,10438.000000,49530.000000
18536.000000,7073.000000,10425.000000,49586.000000
18520.000000,6986.000000,10404.000000,49565.000000
18813.000000,7086.000000,10390.000000,49539.000000
18742.000000,7121.000000,10437.000000,49532.000000
18665.000000,7056.000000,10340.000000,49551.000000
18693.000000,7098.000000,10373.000000,49439.000000
18704.000000,7044.000000,10420.000000,49500.000000
18660.000000,7064.000000,10429.000000,49485.000000
18809.000000,6943.000000,10233.000000,49544.000000
18805.000000,7097.000000,10377.000000,49435.000000
18661.000000,7094.000000,10330.000000,49599.000000
18711.000000,7037.000000,10424.000000,49528.000000
18751.000000,7076.000000,10328.000000,49619.000000
18698.000000,7042.000000,10353.000000,49499.000000
18965.000000,7032.000000,10379.000000,49493.000000
18685.000000,7073.000000,10315.000000,49531.000000
18649.000000,7061.000000,10362.000000,49465.000000
18639.000000,7142.000000,10364.000000,49461.000000
18751.000000,7019.000000,10266.000000,49424.000000
18712.000000,7128.000000,10334.000000,49582.000000
18671.000000,7045.000000,10399.000000,49371.000000
18533.000000,7120.000000,10276.000000,49474.000000
18722.000000,7070.000000,10453.000000,49490.000000
18732.000000,7082.000000,10442.000000,49549.000000
18643.000000,7024.000000,10503.000000,49409.000000
18684.000000,7090.000000,10248.000000,49558.000000
18751.000000,7030.000000,10369.000000,49548.000000
18725.000000,7046.000000,10400.000000,49477.000000
18720.000000,7207.000000,10308.000000,49409.000000
18740.000000,7030.000000,10413.000000,49565.000000
18756.000000,7001.000000,10345.000000,49514.000000
18674.000000,7121.000000,10337.000000,49576.000000
18717.000000,7067.000000,10436.000000,49545.000000
18618.000000,7114.000000,10366.000000,49590.000000
18784.000000,7289.000000,10308.000000,49587.000000
18772.000000,7060.000000,10490.000000,49618.000000
18683.000000,7197.000000,10416.000000,49531.000000
18789.000000,7081.000000,10427.000000,49593.000000
18715.000000,7099.000000,10474.000000,49702.000000
18674.000000,7023.000000,10427.000000,49712.000000
18712.000000,7107.000000,10641.000000,49630.000000
18917.000000,7161.000000,10538.000000,49638.000000
18828.000000,7119.000000,10504.000000,49740.000000
18969.000000,7139.000000,10585.000000,49654.000000
18763.000000,7185.000000,10655.000000,49745.000000
18899.000000,7159.000000,10506.000000,49732.000000
18829.000000,7195.000000,10633.000000,49628.000000
19040.000000,7211.000000,10578.000000,49879.000000
18937.000000,7193.000000,10668.000000,49750.000000
19050.000000,7214.000000,10639.000000,49638.000000
18930.000000,7307.000000,10745.000000,49695.000000
18879.000000,7245.000000,10740.000000,49733.000000
19027.000000,7203.000000,10758.000000,49688.000000
19102.000000,7460.000000,10892.000000,49784.000000
19114.000000,7354.000000,10841.000000,49810.000000
19211.000000,7318.000000,10858.000000,49860.000000
19254.000000,7464.000000,11025.000000,49857.000000
19198.000000,7488.000000,10998.000000,50027.000000
19280.000000,7530.000000,11001.000000,50050.000000
19240.000000,7537.000000,11216.000000,49845.000000
19350.000000,7522.000000,11189.000000,50115.000000
19364.000000,7590.000000,11026.000000,49818.000000
19525.000000,7727.000000,11332.000000,50063.000000
19496.000000,7664.000000,11291.000000,49994.000000
19542.000000,7654.000000,11373.000000,50135.000000
19611.000000,7900.000000,11486.000000,50179.000000
19624.000000,7782.000000,11641.000000,50177.000000
19563.000000,7788.000000,11583.000000,50262.000000
19647.000000,7807.000000,11597.000000,50128.000000
19604.000000,7843.000000,11645.000000,50250.000000
19668.000000,7898.000000,11511.000000,50135.000000
19549.000000,7810.000000,11374.000000,50164.000000
19708.000000,7843.000000,11538.000000,50227.000000
19588.000000,7931.000000,11577.000000,50281.000000
19749.000000,7861.000000,11594.000000,50353.000000
19587.000000,7899.000000,11574.000000,50177.000000
19765.000000,7852.000000,11586.000000,50323.000000
19652.000000,7777.000000,11484.000000,50224.000000
19728.000000,7817.000000,11468.000000,50278.000000
19644.000000,7846.000000,11489.000000,50110.000000
19780.000000,7872.000000,11585.000000,50148.000000
19481.000000,7768.000000,11496.000000,50159.000000
19648.000000,7731.000000,11504.000000,50066.000000
19572.000000,7858.000000,11426.000000,50001.000000
19588.000000,7777.000000,11467.000000,50245.000000
19602.000000,7736.000000,11418.000000,50042.000000
19463.000000,7792.000000,11414.000000,50123.000000
19572.000000,7783.000000,11473.000000,50028.000000
19653.000000,7781.000000,11376.000000,50184.000000
19567.000000,7847.000000,11267.000000,50239.000000
19475.000000,7706.000000,11403.000000,50195.000000
19615.000000,7749.000000,11369.000000,49979.000000
19470.000000,7869.000000,11602.000000,49988.000000
19508.000000,7756.000000,11365.000000,50120.000000
19432.000000,7619.000000,11260.000000,49992.000000
19551.000000,7691.000000,11330.000000,50003.000000
19492.000000,7743.000000,11073.000000,50319.000000
19468.000000,7526.000000,11297.000000,50034.000000
19489.000000,7512.000000,11311.000000,50029.000000
19459.000000,7649.000000,11149.000000,50132.000000
19515.000000,7557.000000,11239.000000,50004.000000
19594.000000,7655.000000,11212.000000,50010.000000
19486.000000,7498.000000,11323.000000,50059.000000
19465.000000,7674.000000,11246.000000,49976.000000
19525.000000,7518.000000,11150.000000,49958.000000
19422.000000,7531.000000,11208.000000,49995.000000
19347.000000,7475.000000,11199.000000,50149.000000
19338.000000,7606.000000,11109.000000,49965.000000
19410.000000,7604.000000,11089.000000,49959.000000
19405.000000,7629.000000,11100.000000,49916.000000
19304.000000,7576.000000,11200.000000,49927.000000
19367.000000,7536.000000,10968.000000,49834.000000
19310.000000,7592.000000,11142.000000,49984.000000
19264.000000,7485.000000,11163.000000,49894.000000
19079.000000,7511.000000,11213.000000,50028.000000
19338.000000,7572.000000,11056.000000,49984.000000
19210.000000,7559.000000,11087.000000,49927.000000
19160.000000,7510.000000,11100.000000,49902.000000
19125.000000,7454.000000,11050.000000,49859.000000
19195.000000,7392.000000,10988.000000,49955.000000
19149.000000,7487.000000,11036.000000,49886.000000
19184.000000,7482.000000,10936.000000,49875.000000
19239.000000,7555.000000,11137.000000,49881.000000
19192.000000,7437.000000,11068.000000,49821.000000
19141.000000,7421.000000,11022.000000,49824.000000
19187.000000,7389.000000,10986.000000,49880.000000
19066.000000,7385.000000,10890.000000,49856.000000
19102.000000,7391.000000,10897.000000,49864.000000
19246.000000,7286.000000,10925.000000,49883.000000
19064.000000,7433.000000,10924.000000,49882.000000
19135.000000,7407.000000,10960.000000,49737.000000
19140.000000,7394.000000,10845.000000,49710.000000
19154.000000,7390.000000,10919.000000,49807.000000
18969.000000,7418.000000,10908.000000,49815.000000
19189.000000,7408.000000,10790.000000,49793.000000
19251.000000,7554.000000,10791.000000,49831.000000
19176.000000,7346.000000,10908.000000,49845.000000
19049.000000,7313.000000,10921.000000,49746.000000
19158.000000,7463.000000,10823.000000,49814.000000
18988.000000,7402.000000,10775.000000,49858.000000
19000.000000,7380.000000,10836.000000,49811.000000
19083.000000,7301.000000,10842.000000,49829.000000
18983.000000,7384.000000,10853.000000,49798.000000
19087.000000,7352.000000,10858.000000,49807.000000
19037.000000,7347.000000,10922.000000,49834.000000
19038.000000,7465.000000,10733.000000,49780.000000
19056.000000,7460.000000,10801.000000,49823.000000
18994.000000,7325.000000,10841.000000,49854.000000
18947.000000,7482.000000,10598.000000,49863.000000
18913.000000,7290.000000,10913.000000,49819.000000
19056.000000,7358.000000,10850.000000,49746.000000
19001.000000,7221.000000,10840.000000,49912.000000
18951.000000,7403.000000,10731.000000,49855.000000
19051.000000,7364.000000,10722.000000,49747.000000
19052.000000,7354.000000,10802.000000,49799.000000
19043.000000,7358.000000,10785.000000,49801.000000
19061.000000,7362.000000,10840.000000,49818.000000
19064.000000,7343.000000,10785.000000,49774.000000
19063.000000,7302.000000,10823.000000,49713.000000
19018.000000,7324.000000,10744.000000,49776.000000
19036.000000,7334.000000,10674.000000,49725.000000
19075.000000,7266.000000,10647.000000,49644.000000
18979.000000,7339.000000,10748.000000,49780.000000
19191.000000,7330.000000,10804.000000,49812.000000
18736.000000,7406.000000,10745.000000,49924.000000
18929.000000,7274.000000,10721.000000,49740.000000
18960.000000,7294.000000,10711.000000,49634.000000
18981.000000,7237.000000,10716.000000,49747.000000
18956.000000,7220.000000,10732.000000,49687.000000
18810.000000,7232.000000,10761.000000,49757.000000
19014.000000,7254.000000,10714.000000,49719.000000
18962.000000,7270.000000,10768.000000,49884.000000
18948.000000,7241.000000,10671.000000,49608.000000
18966.000000,7344.000000,10625.000000,49864.000000
18927.000000,7388.000000,10562.000000,49762.000000
18904.000000,7264.000000,10717.000000,49781.000000
18716.000000,7239.000000,10753.000000,49752.000000
19029.000000,7284.000000,10863.000000,49811.000000
18996.000000,7342.000000,10900.000000,49798.000000
18900.000000,7330.000000,10793.000000,49807.000000
18919.000000,7308.000000,10818.000000,49786.000000
19002.000000,7258.000000,10753.000000,49748.000000
19194.000000,7363.000000,10846.000000,49763.000000
18901.000000,7374.000000,10749.000000,49753.000000
18800.000000,7211.000000,10790.000000,49725.000000
19009.000000,7313.000000,10963.000000,49793.000000
18884.000000,7314.000000,10859.000000,49682.000000
18885.000000,7338.000000,10984.000000,49785.000000
19027.000000,7224.000000,10922.000000,49789.000000
18940.000000,7356.000000,10913.000000,49827.000000
18955.000000,7551.000000,10898.000000,49816.000000
19049.000000,7406.000000,10924.000000,49793.000000
18973.000000,7354.000000,10903.000000,49790.000000
19054.000000,7453.000000,10923.000000,49846.000000
19177.000000,7387.000000,10881.000000,49828.000000
19114.000000,7396.000000,10988.000000,49869.000000
19167.000000,7387.000000,10920.000000,49916.000000
19149.000000,7426.000000,10969.000000,49869.000000
19236.000000,7625.000000,11207.000000,49967.000000
19181.000000,7575.000000,11008.000000,50083.000000
19234.000000,7444.000000,11139.000000,49906.000000
19273.000000,7550.000000,11158.000000,50053.000000
19279.000000,7507.000000,11185.000000,49963.000000
19317.000000,7688.000000,11151.000000,50066.000000
19245.000000,7539.000000,11289.000000,50098.000000
19459.000000,7702.000000,11371.000000,50119.000000
19501.000000,7667.000000,11291.000000,50097.000000
19480.000000,7738.000000,11416.000000,50131.000000
19474.000000,7717.000000,11529.000000,50251.000000
19489.000000,7842.000000,11566.000000,50274.000000
19709.000000,7884.000000,11612.000000,50231.000000
19605.000000,7849.000000,11703.000000,50303.000000
19739.000000,7888.000000,11726.000000,50356.000000
19653.000000,7879.000000,11802.000000,50210.000000
19810.000000,7980.000000,11826.000000,50359.000000
19820.000000,7870.000000,11794.000000,50324.000000
19867.000000,7943.000000,11865.000000,50471.000000
19827.000000,8062.000000,11844.000000,50425.000000
19902.000000,7979.000000,11857.000000,50349.000000
19692.000000,7929.000000,11608.000000,50361.000000
19806.000000,8074.000000,11768.000000,50452.000000
19806.000000,8015.000000,11824.000000,50244.000000
19803.000000,8040.000000,11771.000000,50316.000000
19748.000000,7919.000000,11804.000000,50234.000000
19822.000000,8080.000000,11729.000000,50298.000000
19782.000000,8062.000000,11825.000000,50336.000000
19788.000000,7916.000000,11718.000000,50264.000000
19676.000000,7829.000000,11614.000000,50330.000000
19702.000000,8132.000000,11777.000000,50280.000000
19854.000000,7954.000000,11598.000000,50190.000000
19765.000000,7926.000000,11741.000000,50285.000000
19616.000000,7856.000000,11687.000000,50233.000000
19729.000000,7956.000000,11698.000000,50300.000000
19636.000000,7925.000000,11582.000000,50286.000000
19674.000000,7860.000000,11588.000000,50401.000000
19572.000000,7891.000000,11611.000000,50190.000000
19696.000000,7944.000000,11652.000000,50246.000000
19734.000000,7792.000000,11560.000000,50220.000000
19520.000000,7805.000000,11589.000000,50280.000000
19516.000000,7811.000000,11574.000000,50171.000000
19610.000000,7727.000000,11482.000000,50230.000000
19648.000000,7781.000000,11557.000000,50212.000000
19640.000000,7759.000000,11597.000000,50219.000000
19461.000000,7810.000000,11525.000000,50214.000000
19677.000000,7765.000000,11505.000000,50171.000000
19519.000000,7807.000000,11571.000000,50204.000000
19492.000000,7715.000000,11537.000000,50244.000000
19462.000000,7894.000000,11422.000000,50146.000000
19453.000000,7917.000000,11542.000000,50143.000000
19487.000000,7576.000000,11503.000000,50158.000000
19479.000000,7734.000000,11439.000000,50100.000000
19517.000000,7630.000000,11431.000000,50113.000000
19436.000000,7705.000000,11234.000000,50068.000000
19487.000000,7765.000000,11409.000000,50083.000000
19330.000000,7556.000000,11404.000000,50059.000000
19459.000000,7724.000000,11315.000000,50032.000000
19468.000000,7722.000000,11347.000000,50074.000000
19361.000000,7670.000000,11311.000000,50166.000000
19385.000000,7667.000000,11335.000000,50090.000000
19420.000000,7714.000000,11337.000000,50100.000000
19415.000000,7542.000000,11302.000000,49920.000000
19491.000000,7674.000000,11278.000000,50061.000000
19307.000000,7744.000000,11279.000000,49975.000000
19314.000000,7648.000000,11231.000000,50033.000000
19441.000000,7586.000000,11236.000000,50060.000000
19383.000000,7563.000000,11056.000000,50029.000000
19342.000000,7465.000000,11193.000000,50162.000000
19367.000000,7643.000000,11185.000000,49945.000000
19243.000000,7576.000000,11161.000000,50033.000000
19315.000000,7534.000000,11244.000000,50075.000000
19257.000000,7506.000000,11177.000000,50057.000000
19284.000000,7570.000000,11119.000000,49979.000000
19324.000000,7536.000000,11177.000000,49975.000000
19312.000000,7587.000000,11176.000000,50041.000000
19281.000000,7565.000000,11261.000000,49917.000000
19345.000000,7598.000000,11095.000000,50040.000000
19215.000000,7536.000000,11230.000000,50031.000000
19225.000000,7438.000000,11199.000000,50013.000000
19355.000000,7416.000000,11261.000000,50009.000000
19307.000000,7528.000000,11116.000000,49999.000000
19175.000000,7584.000000,11247.000000,49937.000000
19257.000000,7292.000000,10880.000000,50086.000000
19125.000000,7534.000000,11052.000000,49914.000000
19181.000000,7489.000000,10928.000000,49788.000000
19123.000000,7461.000000,11040.000000,49925.000000
19069.000000,7476.000000,11056.000000,49898.000000
19126.000000,7497.000000,11065.000000,49921.000000
19216.000000,7439.000000,11057.000000,49915.000000
19173.000000,7482.000000,11037.000000,49916.000000
19113.000000,7358.000000,11053.000000,49921.000000
19288.000000,7481.000000,11139.000000,49900.000000
19232.000000,7499.000000,11055.000000,49727.000000
19188.000000,7467.000000,11151.000000,49968.000000
19160.000000,7436.000000,11060.000000,50008.000000
19213.000000,7435.000000,11022.000000,49826.000000
19228.000000,7424.000000,11364.000000,49952.000000
19176.000000,7473.000000,11065.000000,49958.000000
18961.000000,7447.000000,11015.000000,49922.000000
19183.000000,7480.000000,11035.000000,49889.000000
19175.000000,7525.000000,11046.000000,49914.000000
19133.000000,7603.000000,11127.000000,49983.000000
19169.000000,7490.000000,11032.000000,49844.000000
19150.000000,7389.000000,11061.000000,49875.000000
19133.000000,7440.000000,10989.000000,49979.000000
19280.000000,7287.000000,10959.000000,49908.000000
19063.000000,7549.000000,11001.000000,49899.000000
19089.000000,7456.000000,10997.000000,49773.000000
19123.000000,7438.000000,11071.000000,49933.000000
19027.000000,7454.000000,10974.000000,49946.000000
19057.000000,7295.000000,10917.000000,49882.000000
19087.000000,7465.000000,10942.000000,49849.000000
19056.000000,7367.000000,11000.000000,49859.000000
19044.000000,7466.000000,10936.000000,49850.000000
18987.000000,7441.000000,10842.000000,49849.000000
19020.000000,7257.000000,10967.000000,49909.000000
19085.000000,7368.000000,10931.000000,49845.000000
18969.000000,7416.000000,10918.000000,49778.000000
19131.000000,7449.000000,11151.000000,49990.000000
19145.000000,7372.000000,10891.000000,49889.000000
19069.000000,7399.000000,10957.000000,49858.000000
19023.000000,7411.000000,11005.000000,49922.000000
18943.000000,7332.000000,11032.000000,49893.000000
19143.000000,7461.000000,10982.000000,49917.000000
19068.000000,7375.000000,10999.000000,49870.000000
19110.000000,7434.000000,10960.000000,49882.000000
19107.000000,7335.000000,10968.000000,49940.000000
19252.000000,7420.000000,10957.000000,49898.000000
19101.000000,7529.000000,10967.000000,49953.000000
18905.000000,7366.000000,11042.000000,49869.000000
18978.000000,7266.000000,11033.000000,49890.000000
19216.000000,7521.000000,11044.000000,49849.000000
19133.000000,7484.000000,10995.000000,49957.000000
19084.000000,7549.000000,10964.000000,49721.000000
19161.000000,7468.000000,11098.000000,49911.000000
19206.000000,7408.000000,10960.000000,49935.000000
19249.000000,7503.000000,11123.000000,49861.000000
19094.000000,7462.000000,11090.000000,49932.000000
19179.000000,7457.000000,11128.000000,49922.000000
19200.000000,7540.000000,11066.000000,49961.000000
