660nm,730nm,850nm,940nm
17914.000000,7687.000000,8688.000000,48142.000000
17787.000000,7656.000000,8618.000000,48100.000000
17826.000000,7656.000000,8690.000000,48041.000000
17708.000000,7660.000000,8684.000000,48007.000000
17812.000000,7644.000000,8675.000000,48118.000000
17665.000000,7556.000000,8592.000000,48085.000000
17787.000000,7631.000000,8591.000000,48051.000000
17756.000000,7588.000000,8528.000000,48086.000000
17638.000000,7582.000000,8489.000000,48149.000000
17652.000000,7503.000000,8468.000000,47973.000000
17722.000000,7438.000000,8549.000000,48011.000000
17755.000000,7578.000000,8551.000000,47960.000000
17671.000000,7522.000000,8517.000000,47993.000000
17566.000000,7447.000000,8397.000000,48025.000000
17625.000000,7521.000000,8475.000000,48100.000000
17637.000000,7535.000000,8461.000000,48050.000000
17489.000000,7476.000000,8525.000000,47948.000000
17527.000000,7434.000000,8505.000000,47957.000000
17525.000000,7447.000000,8417.000000,48016.000000
17537.000000,7241.000000,8414.000000,47929.000000
17591.000000,7471.000000,8361.000000,47964.000000
17555.000000,7488.000000,8450.000000,47983.000000
17421.000000,7590.000000,8462.000000,47955.000000
17409.000000,7330.000000,8364.000000,47912.000000
17479.000000,7401.000000,8417.000000,47934.000000
17385.000000,7429.000000,8405.000000,47862.000000
17375.000000,7362.000000,8402.000000,47798.000000
17391.000000,7294.000000,8327.000000,47931.000000
17402.000000,7284.000000,8321.000000,47939.000000
17347.000000,7328.000000,8297.000000,47856.000000
17291.000000,7341.000000,8312.000000,47892.000000
17382.000000,7245.000000,8230.000000,47877.000000
17479.000000,7282.000000,8253.000000,47788.000000
17352.000000,7298.000000,8175.000000,47820.000000
17101.000000,7230.000000,8096.000000,47809.000000
17297.000000,7188.000000,8201.000000,47886.000000
17185.000000,7194.000000,8101.000000,47813.000000
17262.000000,7236.000000,8108.000000,47873.000000
17268.000000,7213.000000,8206.000000,47864.000000
17382.000000,7347.000000,8217.000000,47868.000000
17237.000000,7262.000000,8226.000000,47809.000000
17331.000000,7236.000000,8200.000000,47892.000000
17347.000000,7404.000000,8182.000000,47835.000000
17372.000000,7389.000000,8265.000000,47895.000000
17310.000000,7191.000000,8196.000000,47801.000000
17364.000000,7327.000000,8233.000000,47906.000000
17481.000000,7397.000000,8258.000000,47877.000000
17438.000000,7313.000000,8286.000000,47825.000000
17291.000000,7350.000000,8335.000000,47920.000000
17475.000000,7433.000000,8377.000000,47936.000000
17521.000000,7387.000000,8401.000000,47879.000000
17562.000000,7380.000000,8468.000000,48022.000000
17495.000000,7398.000000,8392.000000,48080.000000
17538.000000,7464.000000,8539.000000,47991.000000
17658.000000,7463.000000,8547.000000,47980.000000
17695.000000,7564.000000,8598.000000,48041.000000
17701.000000,7555.000000,8561.000000,48091.000000
17733.000000,7523.000000,8614.000000,48023.000000
17839.000000,7689.000000,8693.000000,48101.000000
17937.000000,7773.000000,8867.000000,48169.000000
17787.000000,7688.000000,8656.000000,48152.000000
17804.000000,7669.000000,8759.000000,48282.000000
17844.000000,7697.000000,8698.000000,48178.000000
17947.000000,7760.000000,8778.000000,48137.000000
17892.000000,7828.000000,8825.000000,48234.000000
17985.000000,7652.000000,8846.000000,48292.000000
18028.000000,7821.000000,8927.000000,48206.000000
18236.000000,7943.000000,9011.000000,48298.000000
18239.000000,7949.000000,9089.000000,48336.000000
18312.000000,8000.000000,9041.000000,48239.000000
18304.000000,7990.000000,9173.000000,48403.000000
18203.000000,7985.000000,9105.000000,48368.000000
18286.000000,8169.000000,9279.000000,48479.000000
18316.000000,8099.000000,9275.000000,48470.000000
18380.000000,8115.000000,9216.000000,48420.000000
18280.000000,8068.000000,9359.000000,48461.000000
18279.000000,8025.000000,9295.000000,48423.000000
18435.000000,8115.000000,9323.000000,48264.000000
18390.000000,8108.000000,9258.000000,48485.000000
18249.000000,8028.000000,9237.000000,48389.000000
18466.000000,8131.000000,9211.000000,48399.000000
18301.000000,8043.000000,9174.000000,48455.000000
18404.000000,8050.000000,9324.000000,48423.000000
18303.000000,7983.000000,9160.000000,48513.000000
18240.000000,8019.000000,9164.000000,48447.000000
18280.000000,8064.000000,9177.000000,48362.000000
18337.000000,8006.000000,9152.000000,48417.000000
18246.000000,7920.000000,9125.000000,48384.000000
18305.000000,7903.000000,9283.000000,48322.000000
18225.000000,7952.000000,9025.000000,48337.000000
18227.000000,7982.000000,9102.000000,48291.000000
18206.000000,7960.000000,9089.000000,48300.000000
18188.000000,7942.000000,9020.000000,48344.000000
18147.000000,7958.000000,9125.000000,48259.000000
18168.000000,8025.000000,9143.000000,48272.000000
18254.000000,7908.000000,9134.000000,48282.000000
18095.000000,7912.000000,8909.000000,48306.000000
18152.000000,7920.000000,8949.000000,48372.000000
18208.000000,7876.000000,9045.000000,48354.000000
17935.000000,7893.000000,8880.000000,48157.000000
18138.000000,7863.000000,8988.000000,48216.000000
18086.000000,7852.000000,8968.000000,48189.000000
17963.000000,7872.000000,8954.000000,48286.000000
18021.000000,7825.000000,8846.000000,48230.000000
17968.000000,7813.000000,8891.000000,48243.000000
18115.000000,7812.000000,8862.000000,48269.000000
17951.000000,7824.000000,8770.000000,48227.000000
17984.000000,7863.000000,9022.000000,48213.000000
18102.000000,7779.000000,8945.000000,48235.000000
17970.000000,7807.000000,8883.000000,48220.000000
17782.000000,7902.000000,8945.000000,48133.000000
17989.000000,7795.000000,8838.000000,48182.000000
17948.000000,7753.000000,8682.000000,48219.000000
17925.000000,7825.000000,8707.000000,48147.000000
17779.000000,7652.000000,8850.000000,48309.000000
17914.000000,7847.000000,8696.000000,48191.000000
17831.000000,7727.000000,8674.000000,48097.000000
17870.000000,7611.000000,8704.000000,48115.000000
17752.000000,7658.000000,8677.000000,48183.000000
17850.000000,7698.000000,8645.000000,48145.000000
17740.000000,7546.000000,8583.000000,48067.000000
17656.000000,7584.000000,8669.000000,48071.000000
17690.000000,7568.000000,8539.000000,47992.000000
17736.000000,7548.000000,8526.000000,48064.000000
17762.000000,7577.000000,8541.000000,47991.000000
17687.000000,7493.000000,8603.000000,48013.000000
17629.000000,7443.000000,8484.000000,48015.000000
17647.000000,7497.000000,8530.000000,48018.000000
17734.000000,7565.000000,8417.000000,47956.000000
17603.000000,7514.000000,8497.000000,47971.000000
17753.000000,7608.000000,8660.000000,48143.000000
17774.000000,7500.000000,8428.000000,47865.000000
17543.000000,7609.000000,8498.000000,47991.000000
17514.000000,7528.000000,8514.000000,47968.000000
17458.000000,7469.000000,8384.000000,47953.000000
17598.000000,7476.000000,8378.000000,47966.000000
17518.000000,7417.000000,8397.000000,47888.000000
17504.000000,7412.000000,8351.000000,47983.000000
17572.000000,7417.000000,8326.000000,47914.000000
17385.000000,7356.000000,8309.000000,47902.000000
17476.000000,7359.000000,8320.000000,47931.000000
17389.000000,7368.000000,8420.000000,48012.000000
17509.000000,7430.000000,8314.000000,47953.000000
17389.000000,7366.000000,8287.000000,47832.000000
17508.000000,7435.000000,8339.000000,47960.000000
17473.000000,7436.000000,8407.000000,47938.000000
17430.000000,7384.000000,8311.000000,47956.000000
17481.000000,7315.000000,8310.000000,47838.000000
17542.000000,7358.000000,8266.000000,47872.000000
17444.000000,7445.000000,8332.000000,47879.000000
17533.000000,7382.000000,8281.000000,47882.000000
17398.000000,7291.000000,8234.000000,47887.000000
17530.000000,7299.000000,8272.000000,47918.000000
17314.000000,7266.000000,8250.000000,47882.000000
17342.000000,7256.000000,8218.000000,47896.000000
17364.000000,7387.000000,8162.000000,47788.000000
17365.000000,7293.000000,8195.000000,47790.000000
17296.000000,7244.000000,8127.000000,47844.000000
17298.000000,7239.000000,8118.000000,47824.000000
17423.000000,7251.000000,8107.000000,47803.000000
17306.000000,7211.000000,8210.000000,47815.000000
17129.000000,7270.000000,8169.000000,47833.000000
17267.000000,7257.000000,8166.000000,47798.000000
17274.000000,7212.000000,8080.000000,47805.000000
17162.000000,7246.000000,8162.000000,47867.000000
17288.000000,7132.000000,8134.000000,47768.000000
17337.000000,7330.000000,8125.000000,47843.000000
17354.000000,7362.000000,8190.000000,47929.000000
17321.000000,7298.000000,8191.000000,47922.000000
17397.000000,7263.000000,8238.000000,47829.000000
17466.000000,7315.000000,8241.000000,47857.000000
17473.000000,7317.000000,8318.000000,47782.000000
17319.000000,7361.000000,8305.000000,47875.000000
17482.000000,7292.000000,8324.000000,47938.000000
17533.000000,7505.000000,8384.000000,47942.000000
17481.000000,7422.000000,8427.000000,47963.000000
17693.000000,7507.000000,8468.000000,48070.000000
17595.000000,7522.000000,8545.000000,48121.000000
17605.000000,7546.000000,8485.000000,48025.000000
17698.000000,7601.000000,8565.000000,48095.000000
17828.000000,7639.000000,8606.000000,47967.000000
17817.000000,7628.000000,8686.000000,47966.000000
17728.000000,7669.000000,8570.000000,48121.000000
17839.000000,7688.000000,8732.000000,48173.000000
17828.000000,7764.000000,8712.000000,48178.000000
17915.000000,7788.000000,8733.000000,48167.000000
17811.000000,7697.000000,8775.000000,48209.000000
17984.000000,7818.000000,8815.000000,48233.000000
17951.000000,7815.000000,8843.000000,48314.000000
18073.000000,7896.000000,8858.000000,48328.000000
18025.000000,7677.000000,8959.000000,48225.000000
18231.000000,7923.000000,8927.000000,48316.000000
18195.000000,7925.000000,8967.000000,48314.000000
18185.000000,7964.000000,9027.000000,48328.000000
18214.000000,7967.000000,9173.000000,48316.000000
18423.000000,8165.000000,9166.000000,48432.000000
18399.000000,8072.000000,9350.000000,48532.000000
18495.000000,8116.000000,9327.000000,48488.000000
18523.000000,8273.000000,9424.000000,48496.000000
18659.000000,8166.000000,9559.000000,48394.000000
18538.000000,8183.000000,9336.000000,48521.000000
18670.000000,8237.000000,9436.000000,48575.000000
18491.000000,8194.000000,9462.000000,48509.000000
18687.000000,8245.000000,9447.000000,48545.000000
18578.000000,8272.000000,9464.000000,48544.000000
18541.000000,8246.000000,9381.000000,48514.000000
18600.000000,8171.000000,9317.000000,48552.000000
18641.000000,8239.000000,9429.000000,48468.000000
18615.000000,8228.000000,9404.000000,48523.000000
18532.000000,8205.000000,9339.000000,48496.000000
18554.000000,8172.000000,9445.000000,48591.000000
18549.000000,8258.000000,9396.000000,48555.000000
18540.000000,8206.000000,9343.000000,48474.000000
18470.000000,8134.000000,9257.000000,48552.000000
18467.000000,8095.000000,9296.000000,48474.000000
18468.000000,8149.000000,9342.000000,48524.000000
18484.000000,8196.000000,9274.000000,48453.000000
18445.000000,8162.000000,9312.000000,48458.000000
18443.000000,8074.000000,9246.000000,48500.000000
18299.000000,8033.000000,9229.000000,48365.000000
18347.000000,8107.000000,9235.000000,48429.000000
18330.000000,7921.000000,8980.000000,48541.000000
18363.000000,8100.000000,9149.000000,48442.000000
18302.000000,8008.000000,9244.000000,48329.000000
18350.000000,8105.000000,9115.000000,48368.000000
18310.000000,8043.000000,9110.000000,48450.000000
18301.000000,8083.000000,9128.000000,48383.000000
18300.000000,7996.000000,9049.000000,48343.000000
18362.000000,7994.000000,9093.000000,48366.000000
18259.000000,8037.000000,9072.000000,48305.000000
18123.000000,8187.000000,9058.000000,48282.000000
18246.000000,8002.000000,9028.000000,48286.000000
18200.000000,8056.000000,8995.000000,48368.000000
18145.000000,8002.000000,8955.000000,48421.000000
18138.000000,7950.000000,8980.000000,48305.000000
18153.000000,7866.000000,8936.000000,48360.000000
18334.000000,7974.000000,8964.000000,48342.000000
18063.000000,7832.000000,8988.000000,48156.000000
18171.000000,7956.000000,8956.000000,48296.000000
18089.000000,7888.000000,8955.000000,48272.000000
18136.000000,7881.000000,8939.000000,48276.000000
18120.000000,7838.000000,8909.000000,48235.000000
18068.000000,7904.000000,8861.000000,48294.000000
18095.000000,7895.000000,8960.000000,48246.000000
18032.000000,7798.000000,8889.000000,48246.000000
17925.000000,7855.000000,8907.000000,48266.000000
17964.000000,7794.000000,8830.000000,48256.000000
18165.000000,7760.000000,8673.000000,48189.000000
18000.000000,7721.000000,8901.000000,48361.000000
17981.000000,7794.000000,8733.000000,48203.000000
17860.000000,7689.000000,8687.000000,48096.000000
17955.000000,7693.000000,8774.000000,48112.000000
17953.000000,7712.000000,8690.000000,48256.000000
17959.000000,7675.000000,8827.000000,48165.000000
17888.000000,7608.000000,8692.000000,48031.000000
17834.000000,7556.000000,8615.000000,48071.000000
17758.000000,7645.000000,8723.000000,48100.000000
17855.000000,7688.000000,8679.000000,48038.000000
17841.000000,7589.000000,8594.000000,48085.000000
17752.000000,7597.000000,8594.000000,48093.000000
17764.000000,7672.000000,8447.000000,48088.000000
17812.000000,7553.000000,8614.000000,48071.000000
17642.000000,7406.000000,8483.000000,48014.000000
17708.000000,7605.000000,8597.000000,47986.000000
17724.000000,7545.000000,8546.000000,47999.000000
17647.000000,7539.000000,8521.000000,48036.000000
17509.000000,7415.000000,8455.000000,48154.000000
17685.000000,7513.000000,8461.000000,48015.000000
17638.000000,7492.000000,8595.000000,47853.000000
17663.000000,7662.000000,8496.000000,47977.000000
17637.000000,7350.000000,8387.000000,47888.000000
17562.000000,7508.000000,8375.000000,47958.000000
17595.000000,7395.000000,8380.000000,47984.000000
17718.000000,7427.000000,8299.000000,47946.000000
17574.000000,7436.000000,8424.000000,47952.000000
17471.000000,7395.000000,8365.000000,47929.000000
17469.000000,7352.000000,8259.000000,47955.000000
17448.000000,7407.000000,8350.000000,47840.000000
17441.000000,7359.000000,8321.000000,47858.000000
17408.000000,7377.000000,8299.000000,47876.000000
17450.000000,7320.000000,8204.000000,47865.000000
17231.000000,7351.000000,8125.000000,47830.000000
17256.000000,7195.000000,8146.000000,47846.000000
17207.000000,7381.000000,8114.000000,47756.000000
17469.000000,7246.000000,8165.000000,47808.000000
17222.000000,7228.000000,8156.000000,47680.000000
17196.000000,7199.000000,8058.000000,47718.000000
17250.000000,7240.000000,8101.000000,47765.000000
17064.000000,7175.000000,8250.000000,47678.000000
17165.000000,7199.000000,8045.000000,47809.000000
17202.000000,7189.000000,8022.000000,47747.000000
17109.000000,7171.000000,8050.000000,47778.000000
17236.000000,7183.000000,8004.000000,47715.000000
17185.000000,7312.000000,8051.000000,47702.000000
17276.000000,7220.000000,8041.000000,47795.000000
17194.000000,7135.000000,8056.000000,47791.000000
17326.000000,7207.000000,8084.000000,47775.000000
17349.000000,7286.000000,8111.000000,47840.000000
17286.000000,7230.000000,8083.000000,47798.000000
17293.000000,7318.000000,8019.000000,47738.000000
17329.000000,7256.000000,8191.000000,47881.000000
17379.000000,7360.000000,8166.000000,47892.000000
17420.000000,7355.000000,8166.000000,47817.000000
17357.000000,7260.000000,8240.000000,47833.000000
17388.000000,7340.000000,8296.000000,47925.000000
17429.000000,7290.000000,8167.000000,47831.000000
17430.000000,7391.000000,8303.000000,47887.000000
17369.000000,7375.000000,8281.000000,47951.000000
17524.000000,7536.000000,8344.000000,47839.000000
17564.000000,7418.000000,8451.000000,47917.000000
17704.000000,7490.000000,8490.000000,48077.000000
17508.000000,7471.000000,8427.000000,48012.000000
17649.000000,7567.000000,8500.000000,48003.000000
17647.000000,7517.000000,8527.000000,47970.000000
17718.000000,7606.000000,8601.000000,48053.000000
17770.000000,7669.000000,8656.000000,48061.000000
17870.000000,7666.000000,8639.000000,48134.000000
17771.000000,7604.000000,8746.000000,48084.000000
17939.000000,7775.000000,8714.000000,48106.000000
18000.000000,7802.000000,8768.000000,48151.000000
17935.000000,7680.000000,8730.000000,48303.000000
18067.000000,7784.000000,8835.000000,48222.000000
18145.000000,7855.000000,8932.000000,48283.000000
18186.000000,7904.000000,9031.000000,48330.000000
18372.000000,8005.000000,9085.000000,48361.000000
18392.000000,8054.000000,9068.000000,48392.000000
18284.000000,8007.000000,9206.000000,48475.000000
18357.000000,8048.000000,9226.000000,48518.000000
18478.000000,8063.000000,9248.000000,48398.000000
18425.000000,8200.000000,9266.000000,48392.000000
18308.000000,8079.000000,9275.000000,48425.000000
18455.000000,8176.000000,9249.000000,48438.000000
18571.000000,8124.000000,9289.000000,48500.000000
18465.000000,8104.000000,9189.000000,48445.000000
18216.000000,7944.000000,9203.000000,48454.000000
18387.000000,8076.000000,9202.000000,48462.000000
18371.000000,8050.000000,9183.000000,48433.000000
18336.000000,8098.000000,9126.000000,48437.000000
18414.000000,8017.000000,9123.000000,48393.000000
18418.000000,8126.000000,9151.000000,48330.000000
18357.000000,8036.000000,9185.000000,48435.000000
18495.000000,8012.000000,9175.000000,48395.000000
18344.000000,8023.000000,9178.000000,48281.000000
18427.000000,8065.000000,9092.000000,48362.000000
18239.000000,8001.000000,9054.000000,48351.000000
18265.000000,7976.000000,8945.000000,48305.000000
18112.000000,7770.000000,8984.000000,48342.000000
18210.000000,7858.000000,8924.000000,48348.000000
18139.000000,7909.000000,9042.000000,48299.000000
18092.000000,7898.000000,8991.000000,48278.000000
18182.000000,7804.000000,8936.000000,48261.000000
18210.000000,7888.000000,8987.000000,48323.000000
18113.000000,7843.000000,8907.000000,48258.000000
18167.000000,7831.000000,8907.000000,48323.000000
18114.000000,7759.000000,8902.000000,48236.000000
18103.000000,7807.000000,8960.000000,48350.000000
18245.000000,7792.000000,8809.000000,48216.000000
17946.000000,7817.000000,8908.000000,48242.000000
18018.000000,7773.000000,8888.000000,48261.000000
18003.000000,7870.000000,8868.000000,48158.000000
18098.000000,7783.000000,8861.000000,48261.000000
17989.000000,7667.000000,8852.000000,48088.000000
18077.000000,7722.000000,8778.000000,48194.000000
17891.000000,7637.000000,8774.000000,48218.000000
17957.000000,7721.000000,8655.000000,48125.000000
17933.000000,7791.000000,8764.000000,48059.000000
17957.000000,7709.000000,8701.000000,48073.000000
17889.000000,7609.000000,8620.000000,48137.000000
17985.000000,7699.000000,8625.000000,48021.000000
17815.000000,7671.000000,8577.000000,48151.000000
17872.000000,7759.000000,8713.000000,48131.000000
17799.000000,7552.000000,8602.000000,48155.000000
17803.000000,7667.000000,8631.000000,48143.000000
17772.000000,7556.000000,8740.000000,47950.000000
17715.000000,7607.000000,8594.000000,48077.000000
17641.000000,7550.000000,8610.000000,48124.000000
17782.000000,7523.000000,8551.000000,48060.000000
17709.000000,7532.000000,8425.000000,47938.000000
17671.000000,7471.000000,8431.000000,48019.000000
17544.000000,7572.000000,8502.000000,47993.000000
17617.000000,7440.000000,8447.000000,47954.000000
17603.000000,7434.000000,8427.000000,48044.000000
17641.000000,7415.000000,8413.000000,48044.000000
17564.000000,7426.000000,8362.000000,47909.000000
17571.000000,7563.000000,8412.000000,47965.000000
17567.000000,7476.000000,8406.000000,47985.000000
17545.000000,7368.000000,8241.000000,47984.000000
17492.000000,7412.000000,8281.000000,47863.000000
17376.000000,7397.000000,8169.000000,47917.000000
17403.000000,7368.000000,8170.000000,47870.000000
17424.000000,7259.000000,8224.000000,47901.000000
17379.000000,7310.000000,8237.000000,47891.000000
17297.000000,7281.000000,8217.000000,47855.000000
17308.000000,7261.000000,8200.000000,47803.000000
17517.000000,7446.000000,8204.000000,47709.000000
17307.000000,7304.000000,8071.000000,47855.000000
17294.000000,7208.000000,8113.000000,47872.000000
17234.000000,7231.000000,8128.000000,47818.000000
17281.000000,7166.000000,8044.000000,47859.000000
17184.000000,7131.000000,8174.000000,47620.000000
17226.000000,7198.000000,8060.000000,47824.000000
17238.000000,7294.000000,8120.000000,47846.000000
17204.000000,7223.000000,8142.000000,47788.000000
17365.000000,7171.000000,8005.000000,47724.000000
17382.000000,7232.000000,8085.000000,47799.000000
17268.000000,7161.000000,8038.000000,47735.000000
17117.000000,7112.000000,8037.000000,47853.000000
17132.000000,7143.000000,8027.000000,47751.000000
17220.000000,7127.000000,8018.000000,47701.000000
17140.000000,7193.000000,7965.000000,47746.000000
17049.000000,6998.000000,7832.000000,47618.000000
17127.000000,7055.000000,7925.000000,47703.000000
17159.000000,7111.000000,7672.000000,47722.000000
16975.000000,7025.000000,7917.000000,47622.000000
16925.000000,6942.000000,7725.000000,47594.000000
17004.000000,7008.000000,7851.000000,47678.000000
16798.000000,6859.000000,7944.000000,47619.000000
16915.000000,6895.000000,7734.000000,47615.000000
16962.000000,6981.000000,7746.000000,47578.000000
16967.000000,6930.000000,7610.000000,47525.000000
16879.000000,6880.000000,7817.000000,47703.000000
16973.000000,6895.000000,7769.000000,47510.000000
16861.000000,6945.000000,7803.000000,47716.000000
16838.000000,7017.000000,7734.000000,47558.000000
16965.000000,7039.000000,7809.000000,47669.000000
17045.000000,7075.000000,7809.000000,47550.000000
17119.000000,7099.000000,7832.000000,47643.000000
16975.000000,7019.000000,7837.000000,47694.000000
17161.000000,7144.000000,8124.000000,47745.000000
17155.000000,7122.000000,7989.000000,47662.000000
17207.000000,7093.000000,7928.000000,47773.000000
17189.000000,7240.000000,7966.000000,47809.000000
17266.000000,7206.000000,8143.000000,47869.000000
17128.000000,7239.000000,8042.000000,47773.000000
17347.000000,7305.000000,8021.000000,47734.000000
17335.000000,7292.000000,8103.000000,47772.000000
17359.000000,7272.000000,8167.000000,47863.000000
17364.000000,7243.000000,8105.000000,47774.000000
17366.000000,7253.000000,8365.000000,47928.000000
17601.000000,7420.000000,8357.000000,47873.000000
17656.000000,7497.000000,8425.000000,48065.000000
17619.000000,7405.000000,8280.000000,47971.000000
17760.000000,7489.000000,8531.000000,47993.000000
17746.000000,7622.000000,8635.000000,48021.000000
17751.000000,7624.000000,8570.000000,48101.000000
17731.000000,7635.000000,8570.000000,48153.000000
17998.000000,7571.000000,8685.000000,48119.000000
17956.000000,7767.000000,8768.000000,48085.000000
18027.000000,7598.000000,8771.000000,48160.000000
17991.000000,7702.000000,8808.000000,48213.000000
18100.000000,7840.000000,9022.000000,48198.000000
18059.000000,7847.000000,8876.000000,48218.000000
18176.000000,7845.000000,8902.000000,48257.000000
18058.000000,7878.000000,8991.000000,48365.000000
18149.000000,7944.000000,9064.000000,48382.000000
18277.000000,8058.000000,8899.000000,48391.000000
18299.000000,8029.000000,9150.000000,48284.000000
18340.000000,7924.000000,9182.000000,48325.000000
18214.000000,8057.000000,9065.000000,48330.000000
18154.000000,7911.000000,9109.000000,48316.000000
18134.000000,7899.000000,9129.000000,48258.000000
18287.000000,7932.000000,9018.000000,48262.000000
18142.000000,7909.000000,9017.000000,48345.000000
18196.000000,7883.000000,9014.000000,48323.000000
18198.000000,8048.000000,8980.000000,48374.000000
18267.000000,7875.000000,8973.000000,48365.000000
18312.000000,7797.000000,8907.000000,48187.000000
18142.000000,7862.000000,9046.000000,48279.000000
18179.000000,7904.000000,8983.000000,48335.000000
18210.000000,7807.000000,8993.000000,48262.000000
17960.000000,7868.000000,8941.000000,48205.000000
18136.000000,7887.000000,8875.000000,48301.000000
18034.000000,7759.000000,8828.000000,48307.000000
18031.000000,7743.000000,8859.000000,48182.000000
18028.000000,7787.000000,8898.000000,48222.000000
18069.000000,7834.000000,8812.000000,48150.000000
17954.000000,7755.000000,8799.000000,48152.000000
17985.000000,7750.000000,8794.000000,48238.000000
18055.000000,7764.000000,8803.000000,48205.000000
17960.000000,7741.000000,8832.000000,48127.000000
17828.000000,7757.000000,8716.000000,48149.000000
17927.000000,7827.000000,8663.000000,48055.000000
18005.000000,7682.000000,8814.000000,48171.000000
17974.000000,7685.000000,8771.000000,48075.000000
17791.000000,7601.000000,8776.000000,48344.000000
17892.000000,7664.000000,8656.000000,48185.000000
17763.000000,7640.000000,8670.000000,48049.000000
17873.000000,7656.000000,8655.000000,48138.000000
17876.000000,7629.000000,8698.000000,48073.000000
17802.000000,7621.000000,8733.000000,48124.000000
17720.000000,7544.000000,8605.000000,48061.000000
17906.000000,7620.000000,8560.000000,48090.000000
17848.000000,7736.000000,8526.000000,48108.000000
17813.000000,7543.000000,8587.000000,48156.000000
17715.000000,7519.000000,8525.000000,48057.000000
17720.000000,7561.000000,8622.000000,48057.000000
17794.000000,7599.000000,8551.000000,48054.000000
17655.000000,7512.000000,8439.000000,48116.000000
17679.000000,7564.000000,8463.000000,48045.000000
17587.000000,7505.000000,8466.000000,47911.000000
17606.000000,7372.000000,8469.000000,47950.000000
17652.000000,7458.000000,8399.000000,47904.000000
17551.000000,7493.000000,8360.000000,47946.000000
17575.000000,7558.000000,8452.000000,47904.000000
17556.000000,7406.000000,8377.000000,47971.000000
17648.000000,7368.000000,8399.000000,47952.000000
17513.000000,7366.000000,8384.000000,47923.000000
17394.000000,7346.000000,8353.000000,47897.000000
17530.000000,7317.000000,8104.000000,47862.000000
17441.000000,7362.000000,8216.000000,48044.000000
17435.000000,7266.000000,8292.000000,47838.000000
17420.000000,7256.000000,8240.000000,47848.000000
17545.000000,7233.000000,8181.000000,47922.000000
17383.000000,7321.000000,8238.000000,47817.000000
17355.000000,7329.000000,8223.000000,47796.000000
17322.000000,7176.000000,8144.000000,47845.000000
17425.000000,7250.000000,8128.000000,47822.000000
17297.000000,7191.000000,8171.000000,47843.000000
17289.000000,7234.000000,8135.000000,47835.000000
17250.000000,7142.000000,8153.000000,47797.000000
17310.000000,7199.000000,8129.000000,47772.000000
17299.000000,7152.000000,8112.000000,47962.000000
17268.000000,7236.000000,8088.000000,47769.000000
17150.000000,7123.000000,8083.000000,47782.000000
17172.000000,7127.000000,8157.000000,47701.000000
17139.000000,7018.000000,8066.000000,47786.000000
17396.000000,7085.000000,7866.000000,47934.000000
17198.000000,7127.000000,8057.000000,47711.000000
17143.000000,7148.000000,7992.000000,47743.000000
17077.000000,6995.000000,7923.000000,47714.000000
17134.000000,7024.000000,7934.000000,47731.000000
17141.000000,7056.000000,7992.000000,47772.000000
17062.000000,6933.000000,8081.000000,47623.000000
17057.000000,6848.000000,7836.000000,47633.000000
16941.000000,6972.000000,7794.000000,47589.000000
16931.000000,6911.000000,7811.000000,47471.000000
17008.000000,6937.000000,7787.000000,47669.000000
16993.000000,6892.000000,7721.000000,47621.000000
16722.000000,6846.000000,7698.000000,47565.000000
16868.000000,6883.000000,7682.000000,47573.000000
16758.000000,6784.000000,7608.000000,47553.000000
16789.000000,6835.000000,7681.000000,47521.000000
16780.000000,6907.000000,7703.000000,47527.000000
16863.000000,6907.000000,7689.000000,47617.000000
16726.000000,6841.000000,7624.000000,47606.000000
16854.000000,6866.000000,7703.000000,47599.000000
16887.000000,6870.000000,7607.000000,47603.000000
16921.000000,6883.000000,7780.000000,47534.000000
16993.000000,6920.000000,7813.000000,47630.000000
16859.000000,6949.000000,7726.000000,47583.000000
16909.000000,6927.000000,7842.000000,47559.000000
16966.000000,7009.000000,7821.000000,47618.000000
16941.000000,6888.000000,7826.000000,47594.000000
17017.000000,6956.000000,7794.000000,47674.000000
17090.000000,7004.000000,7817.000000,47727.000000
17092.000000,7092.000000,7838.000000,47733.000000
17002.000000,7010.000000,7943.000000,47807.000000
17100.000000,7057.000000,7973.000000,47706.000000
17148.000000,7064.000000,7915.000000,47706.000000
17104.000000,7059.000000,7925.000000,47697.000000
17072.000000,7043.000000,8029.000000,47748.000000
17222.000000,7174.000000,8021.000000,47738.000000
17194.000000,7225.000000,8063.000000,47685.000000
17352.000000,7215.000000,8187.000000,47930.000000
17405.000000,7214.000000,8175.000000,47885.000000
17358.000000,7327.000000,8201.000000,47840.000000
17346.000000,7307.000000,8247.000000,47873.000000
17579.000000,7362.000000,8206.000000,47922.000000
17551.000000,7312.000000,8414.000000,47994.000000
17585.000000,7434.000000,8395.000000,47944.000000
17351.000000,7507.000000,8365.000000,47943.000000
17671.000000,7443.000000,8385.000000,47995.000000
17735.000000,7479.000000,8323.000000,47893.000000
17550.000000,7443.000000,8504.000000,48064.000000
17699.000000,7603.000000,8531.000000,48224.000000
17748.000000,7597.000000,8571.000000,48167.000000
17794.000000,7656.000000,8590.000000,48116.000000
17864.000000,7663.000000,8735.000000,48183.000000
17972.000000,7679.000000,8787.000000,48215.000000
18026.000000,7782.000000,8773.000000,48295.000000
18094.000000,7738.000000,8854.000000,48141.000000
17953.000000,7661.000000,8782.000000,48426.000000
18101.000000,7798.000000,8818.000000,48322.000000
18130.000000,7942.000000,8899.000000,48325.000000
18142.000000,7827.000000,8937.000000,48350.000000
18020.000000,7769.000000,8975.000000,48216.000000
18134.000000,7952.000000,8949.000000,48304.000000
18064.000000,7929.000000,8931.000000,48376.000000
18210.000000,7860.000000,8809.000000,48262.000000
18109.000000,7773.000000,8934.000000,48464.000000
18069.000000,7744.000000,8976.000000,48291.000000
18075.000000,7760.000000,8921.000000,48294.000000
18065.000000,7815.000000,8848.000000,48284.000000
18070.000000,7733.000000,8846.000000,48209.000000
18039.000000,7744.000000,8945.000000,48274.000000
18147.000000,7794.000000,8877.000000,48246.000000
18079.000000,7750.000000,8842.000000,48231.000000
17932.000000,7732.000000,8753.000000,48215.000000
18008.000000,7741.000000,8813.000000,48177.000000
17996.000000,7806.000000,8676.000000,48209.000000
17918.000000,7675.000000,8849.000000,48165.000000
17975.000000,7715.000000,8723.000000,48130.000000
17852.000000,7667.000000,8706.000000,48212.000000
17884.000000,7664.000000,8686.000000,48107.000000
17937.000000,7724.000000,8635.000000,48139.000000
17892.000000,7627.000000,8850.000000,48061.000000
17857.000000,7669.000000,8665.000000,48061.000000
17884.000000,7595.000000,8664.000000,48180.000000
17872.000000,7628.000000,8678.000000,48084.000000
17840.000000,7606.000000,8670.000000,48164.000000
17907.000000,7590.000000,8811.000000,48060.000000
17742.000000,7536.000000,8578.000000,48131.000000
17775.000000,7770.000000,8749.000000,48155.000000
17802.000000,7621.000000,8678.000000,48046.000000
17755.000000,7535.000000,8640.000000,48213.000000
17711.000000,7493.000000,8636.000000,48117.000000
17781.000000,7548.000000,8549.000000,48074.000000
17712.000000,7391.000000,8409.000000,47929.000000
17754.000000,7545.000000,8571.000000,48007.000000
17690.000000,7467.000000,8502.000000,47996.000000
17630.000000,7389.000000,8511.000000,48036.000000
17597.000000,7473.000000,8429.000000,48018.000000
17667.000000,7388.000000,8406.000000,47950.000000
17665.000000,7378.000000,8486.000000,47905.000000
17520.000000,7347.000000,8481.000000,47965.000000
17511.000000,7429.000000,8401.000000,47953.000000
17566.000000,7365.000000,8390.000000,48029.000000
17506.000000,7319.000000,8344.000000,47948.000000
17458.000000,7379.000000,8270.000000,47947.000000
17473.000000,7310.000000,8288.000000,47918.000000
17380.000000,7347.000000,8295.000000,47910.000000
17432.000000,7273.000000,8282.000000,47873.000000
17412.000000,7315.000000,8286.000000,47916.000000
17406.000000,7238.000000,8255.000000,47876.000000
17293.000000,7190.000000,8277.000000,47813.000000
17541.000000,7253.000000,8099.000000,47786.000000
17230.000000,7187.000000,8125.000000,47913.000000
17358.000000,7266.000000,8149.000000,47811.000000
17184.000000,7190.000000,8174.000000,47852.000000
17167.000000,7141.000000,8011.000000,47810.000000
17199.000000,7091.000000,8081.000000,47707.000000
17216.000000,7152.000000,8025.000000,47711.000000
17032.000000,7057.000000,7899.000000,47721.000000
17152.000000,7118.000000,7977.000000,47750.000000
17182.000000,7046.000000,7881.000000,47957.000000
17030.000000,7013.000000,8086.000000,47669.000000
17031.000000,7014.000000,7992.000000,47694.000000
17061.000000,7071.000000,7944.000000,47699.000000
17149.000000,7037.000000,7883.000000,47628.000000
16987.000000,6958.000000,7934.000000,47691.000000
17081.000000,6932.000000,7900.000000,47659.000000
16971.000000,7025.000000,7849.000000,47733.000000
16996.000000,7023.000000,7829.000000,47639.000000
17006.000000,6973.000000,7846.000000,47658.000000
16923.000000,6935.000000,7844.000000,47773.000000
17043.000000,6939.000000,7894.000000,47659.000000
16961.000000,6970.000000,7835.000000,47657.000000
16894.000000,6933.000000,7791.000000,47508.000000
16947.000000,6753.000000,7862.000000,47602.000000
16856.000000,6880.000000,7718.000000,47609.000000
16895.000000,6932.000000,7780.000000,47621.000000
16876.000000,6952.000000,7843.000000,47601.000000
16834.000000,6829.000000,7707.000000,47507.000000
16830.000000,6870.000000,7678.000000,47562.000000
16801.000000,6888.000000,7684.000000,47547.000000
16754.000000,6775.000000,7624.000000,47457.000000
16734.000000,6779.000000,7577.000000,47503.000000
16562.000000,6695.000000,7562.000000,47556.000000
16689.000000,6684.000000,7552.000000,47456.000000
16649.000000,6723.000000,7478.000000,47478.000000
16634.000000,6643.000000,7734.000000,47496.000000
16727.000000,6708.000000,7480.000000,47485.000000
16672.000000,6734.000000,7606.000000,47450.000000
16673.000000,6702.000000,7546.000000,47495.000000
16715.000000,6866.000000,7623.000000,47528.000000
16756.000000,6714.000000,7569.000000,47516.000000
16795.000000,6732.000000,7616.000000,47577.000000
16618.000000,6751.000000,7648.000000,47470.000000
16791.000000,6831.000000,7731.000000,47503.000000
16835.000000,6948.000000,7847.000000,47629.000000
16872.000000,6951.000000,7768.000000,47567.000000
16889.000000,6845.000000,7764.000000,47617.000000
16815.000000,6930.000000,7803.000000,47623.000000
16849.000000,6890.000000,7847.000000,47588.000000
17031.000000,7006.000000,7818.000000,47745.000000
17036.000000,7068.000000,7903.000000,47740.000000
17044.000000,7011.000000,7963.000000,47639.000000
16938.000000,6980.000000,7990.000000,47693.000000
17057.000000,7006.000000,7956.000000,47722.000000
17191.000000,7062.000000,7939.000000,47652.000000
17077.000000,7121.000000,8031.000000,47769.000000
17102.000000,7120.000000,8084.000000,47841.000000
17236.000000,7181.000000,8045.000000,47763.000000
17164.000000,7033.000000,8186.000000,47854.000000
17319.000000,7310.000000,8279.000000,47857.000000
17375.000000,7268.000000,8243.000000,47893.000000
17404.000000,7280.000000,8245.000000,47896.000000
17328.000000,7287.000000,8278.000000,47990.000000
17541.000000,7425.000000,8395.000000,47996.000000
17559.000000,7501.000000,8493.000000,47947.000000
17530.000000,7400.000000,8494.000000,48041.000000
17768.000000,7509.000000,8661.000000,48126.000000
17843.000000,7371.000000,8753.000000,48075.000000
17784.000000,7650.000000,8716.000000,48167.000000
17795.000000,7608.000000,8687.000000,48135.000000
17879.000000,7620.000000,8750.000000,48164.000000
17813.000000,7593.000000,8850.000000,48117.000000
17942.000000,7664.000000,8704.000000,48176.000000
17768.000000,7591.000000,8792.000000,48197.000000
17819.000000,7674.000000,8758.000000,48187.000000
17779.000000,7654.000000,8721.000000,48124.000000
17913.000000,7647.000000,8722.000000,48088.000000
17895.000000,7731.000000,8840.000000,48165.000000
17809.000000,7590.000000,8577.000000,48151.000000
17887.000000,7562.000000,8713.000000,48086.000000
17706.000000,7690.000000,8674.000000,48024.000000
17870.000000,7612.000000,8749.000000,48139.000000
17825.000000,7590.000000,8606.000000,48016.000000
17788.000000,7604.000000,8690.000000,48113.000000
17704.000000,7535.000000,8585.000000,48165.000000
17725.000000,7492.000000,8459.000000,48071.000000
17793.000000,7645.000000,8669.000000,48231.000000
17754.000000,7601.000000,8591.000000,48026.000000
17775.000000,7490.000000,8578.000000,48111.000000
17697.000000,7374.000000,8660.000000,47907.000000
17710.000000,7566.000000,8485.000000,48094.000000
17811.000000,7493.000000,8643.000000,48021.000000
17687.000000,7512.000000,8562.000000,48039.000000
17712.000000,7554.000000,8586.000000,48055.000000
17698.000000,7577.000000,8548.000000,48074.000000
17766.000000,7413.000000,8536.000000,48053.000000
17708.000000,7514.000000,8546.000000,48082.000000
17690.000000,7460.000000,8414.000000,48026.000000
17781.000000,7413.000000,8609.000000,48139.000000
17693.000000,7500.000000,8532.000000,48028.000000
17515.000000,7440.000000,8463.000000,48027.000000
17679.000000,7473.000000,8490.000000,48018.000000
17795.000000,7652.000000,8269.000000,47949.000000
17707.000000,7487.000000,8472.000000,47940.000000
17573.000000,7342.000000,8487.000000,48019.000000
17618.000000,7475.000000,8462.000000,47979.000000
17497.000000,7418.000000,8515.000000,47971.000000
17631.000000,7419.000000,8398.000000,48009.000000
17489.000000,7301.000000,8394.000000,47992.000000
17551.000000,7373.000000,8410.000000,47952.000000
17621.000000,7476.000000,8344.000000,47981.000000
17541.000000,7394.000000,8344.000000,47963.000000
17555.000000,7378.000000,8298.000000,47941.000000
17530.000000,7247.000000,8392.000000,47917.000000
17396.000000,7250.000000,8295.000000,47908.000000
17483.000000,7325.000000,8316.000000,47921.000000
17475.000000,7299.000000,8286.000000,48013.000000
17488.000000,7168.000000,8244.000000,47940.000000
17446.000000,7251.000000,8300.000000,47952.000000
17567.000000,7265.000000,8293.000000,47906.000000
17398.000000,7248.000000,8222.000000,47941.000000
17393.000000,7228.000000,8256.000000,47813.000000
17366.000000,7217.000000,8240.000000,47870.000000
17601.000000,7269.000000,8215.000000,47771.000000
17438.000000,7210.000000,8149.000000,47886.000000
17427.000000,7246.000000,8245.000000,47955.000000
17305.000000,7221.000000,8182.000000,47788.000000
17352.000000,7276.000000,8173.000000,47869.000000
17331.000000,7198.000000,8122.000000,47873.000000
17288.000000,7253.000000,8145.000000,47819.000000
17228.000000,7115.000000,8207.000000,47728.000000
17519.000000,7211.000000,8243.000000,48074.000000
17331.000000,7157.000000,8080.000000,47855.000000
17206.000000,7169.000000,8081.000000,47822.000000
17263.000000,7200.000000,8027.000000,47753.000000
17338.000000,7152.000000,8128.000000,47779.000000
17305.000000,7098.000000,7944.000000,47854.000000
17242.000000,7027.000000,8137.000000,47816.000000
17269.000000,7077.000000,8123.000000,47841.000000
17359.000000,7117.000000,8057.000000,47895.000000
17277.000000,7142.000000,8067.000000,47813.000000
17225.000000,7110.000000,7980.000000,47811.000000
17214.000000,7060.000000,8012.000000,47651.000000
17099.000000,7028.000000,7950.000000,47730.000000
17167.000000,7092.000000,7976.000000,47741.000000
17220.000000,7050.000000,7983.000000,47743.000000
17179.000000,7102.000000,7951.000000,47711.000000
17100.000000,7069.000000,7930.000000,47730.000000
17019.000000,7010.000000,7857.000000,47769.000000
16998.000000,7017.000000,7938.000000,47661.000000
17091.000000,7008.000000,7933.000000,47720.000000
17083.000000,6958.000000,7740.000000,47781.000000
16994.000000,6908.000000,7827.000000,47706.000000
16936.000000,6872.000000,7868.000000,47618.000000
16985.000000,6910.000000,7835.000000,47724.000000
16898.000000,6905.000000,7769.000000,47651.000000
16872.000000,6872.000000,7760.000000,47579.000000
16862.000000,6819.000000,7690.000000,47590.000000
16949.000000,6843.000000,7754.000000,47602.000000
16774.000000,6792.000000,7648.000000,47645.000000
16758.000000,6675.000000,7685.000000,47542.000000
16810.000000,6993.000000,7628.000000,47531.000000
16897.000000,6796.000000,7669.000000,47564.000000
16867.000000,6835.000000,7715.000000,47609.000000
16713.000000,6941.000000,7654.000000,47681.000000
16767.000000,6839.000000,7789.000000,47639.000000
17007.000000,6895.000000,7699.000000,47664.000000
16904.000000,6922.000000,7740.000000,47545.000000
16989.000000,6938.000000,7798.000000,47703.000000
17033.000000,7020.000000,7822.000000,47641.000000
16971.000000,6898.000000,7844.000000,47742.000000
17177.000000,6849.000000,7881.000000,47731.000000
17050.000000,6974.000000,7843.000000,47735.000000
17180.000000,6968.000000,7867.000000,47721.000000
17096.000000,7021.000000,7975.000000,47719.000000
17023.000000,6908.000000,8102.000000,47651.000000
17169.000000,7061.000000,8039.000000,47699.000000
17171.000000,7193.000000,8040.000000,47782.000000
17125.000000,7120.000000,8016.000000,47734.000000
17321.000000,7169.000000,8130.000000,47807.000000
17239.000000,7179.000000,8200.000000,47863.000000
17383.000000,7237.000000,8167.000000,47931.000000
17409.000000,7284.000000,8236.000000,47847.000000
17451.000000,7316.000000,8260.000000,47848.000000
17331.000000,7264.000000,8249.000000,47953.000000
17568.000000,7374.000000,8431.000000,48001.000000
17623.000000,7471.000000,8487.000000,47948.000000
17737.000000,7398.000000,8434.000000,47924.000000
17695.000000,7519.000000,8522.000000,48144.000000
17807.000000,7523.000000,8701.000000,48106.000000
17828.000000,7624.000000,8678.000000,48106.000000
17953.000000,7578.000000,8722.000000,48263.000000
17980.000000,7736.000000,8791.000000,48134.000000
17981.000000,7893.000000,8852.000000,48259.000000
18000.000000,7649.000000,8892.000000,48309.000000
18123.000000,7750.000000,8893.000000,48354.000000
18148.000000,7820.000000,8915.000000,48343.000000
18172.000000,7736.000000,8994.000000,48293.000000
18174.000000,7845.000000,9019.000000,48364.000000
18214.000000,7896.000000,9027.000000,48353.000000
18182.000000,7909.000000,9037.000000,48457.000000
18160.000000,7724.000000,9060.000000,48366.000000
18133.000000,7837.000000,9015.000000,48315.000000
18172.000000,7879.000000,9033.000000,48350.000000
18201.000000,7796.000000,8977.000000,48211.000000
18142.000000,7843.000000,9089.000000,48390.000000
18148.000000,7853.000000,8988.000000,48362.000000
18097.000000,7797.000000,9018.000000,48258.000000
18005.000000,7763.000000,8810.000000,48230.000000
18070.000000,7923.000000,8962.000000,48317.000000
18035.000000,7754.000000,8844.000000,48170.000000
18083.000000,7738.000000,9008.000000,48232.000000
18043.000000,7774.000000,8836.000000,48184.000000
17983.000000,7656.000000,8804.000000,48160.000000
17994.000000,7704.000000,8846.000000,48226.000000
17972.000000,7650.000000,8828.000000,48231.000000
17988.000000,7672.000000,8813.000000,48216.000000
17839.000000,7514.000000,8901.000000,48154.000000
17975.000000,7643.000000,8878.000000,48247.000000
17867.000000,7733.000000,8781.000000,48192.000000
17895.000000,7652.000000,8760.000000,48199.000000
17797.000000,7616.000000,8636.000000,48188.000000
17914.000000,7526.000000,8716.000000,48149.000000
17669.000000,7547.000000,8693.000000,48120.000000
17872.000000,7624.000000,8605.000000,48011.000000
17853.000000,7552.000000,8660.000000,48173.000000
17817.000000,7489.000000,8614.000000,48152.000000
17682.000000,7559.000000,8645.000000,48105.000000
17811.000000,7516.000000,8599.000000,48099.000000
17814.000000,7656.000000,8581.000000,48160.000000
17852.000000,7522.000000,8696.000000,48180.000000
17740.000000,7484.000000,8602.000000,47993.000000
17692.000000,7485.000000,8536.000000,48092.000000
17805.000000,7469.000000,8658.000000,48005.000000
17641.000000,7631.000000,8554.000000,48054.000000
17578.000000,7467.000000,8401.000000,47981.000000
17666.000000,7531.000000,8442.000000,47971.000000
17651.000000,7467.000000,8532.000000,48039.000000
17644.000000,7462.000000,8442.000000,48060.000000
17570.000000,7361.000000,8431.000000,48001.000000
17603.000000,7434.000000,8502.000000,48015.000000
17504.000000,7347.000000,8661.000000,47993.000000
17544.000000,7201.000000,8592.000000,47940.000000
17534.000000,7327.000000,8400.000000,48086.000000
17441.000000,7250.000000,8328.000000,47920.000000
17393.000000,7338.000000,8314.000000,47962.000000
17495.000000,7177.000000,8245.000000,47983.000000
17571.000000,7201.000000,8332.000000,48050.000000
17485.000000,7321.000000,8325.000000,47805.000000
17378.000000,7253.000000,8233.000000,47883.000000
17424.000000,7253.000000,8235.000000,47891.000000
17361.000000,7298.000000,8081.000000,48000.000000
17319.000000,7110.000000,8235.000000,47910.000000
17426.000000,7213.000000,8274.000000,47843.000000
17360.000000,7204.000000,8185.000000,47994.000000
17364.000000,7197.000000,8147.000000,47902.000000
17214.000000,7180.000000,8203.000000,47824.000000
17264.000000,7181.000000,8116.000000,47863.000000
17341.000000,7205.000000,8131.000000,47893.000000
17322.000000,7192.000000,8118.000000,47798.000000
17153.000000,7046.000000,7936.000000,47857.000000
17248.000000,7107.000000,8119.000000,47830.000000
17138.000000,7102.000000,8119.000000,47851.000000
17259.000000,7178.000000,8088.000000,47787.000000
17197.000000,7042.000000,8013.000000,47853.000000
17224.000000,7105.000000,8000.000000,47829.000000
17199.000000,7085.000000,8047.000000,47772.000000
17294.000000,7201.000000,8030.000000,47762.000000
17189.000000,7075.000000,8114.000000,47729.000000
17170.000000,7102.000000,8018.000000,47793.000000
17178.000000,7054.000000,7980.000000,47873.000000
17160.000000,7165.000000,7903.000000,47648.000000
17143.000000,7082.000000,7986.000000,47774.000000
17205.000000,7094.000000,7940.000000,47790.000000
17045.000000,6939.000000,7922.000000,47743.000000
17028.000000,6969.000000,8027.000000,47685.000000
17058.000000,7024.000000,7952.000000,47678.000000
17040.000000,6946.000000,7944.000000,47699.000000
17160.000000,7018.000000,7896.000000,47626.000000
17034.000000,6940.000000,7813.000000,47599.000000
16927.000000,6899.000000,7815.000000,47726.000000
16936.000000,6888.000000,7777.000000,47537.000000
17030.000000,6849.000000,7688.000000,47670.000000
16775.000000,6808.000000,7721.000000,47509.000000
16875.000000,6795.000000,7669.000000,47623.000000
16892.000000,6883.000000,7710.000000,47639.000000
16836.000000,6744.000000,7733.000000,47500.000000
16723.000000,6779.000000,7702.000000,47593.000000
16881.000000,6784.000000,7698.000000,47595.000000
16801.000000,6908.000000,7703.000000,47470.000000
16877.000000,6820.000000,7670.000000,47656.000000
16739.000000,6840.000000,7773.000000,47468.000000
16899.000000,6866.000000,7793.000000,47587.000000
16908.000000,6864.000000,7758.000000,47605.000000
16935.000000,6919.000000,7729.000000,47643.000000
16861.000000,6918.000000,7817.000000,47607.000000
16990.000000,6980.000000,7872.000000,47676.000000
16858.000000,6895.000000,8022.000000,47667.000000
17026.000000,7052.000000,7895.000000,47672.000000
16887.000000,7126.000000,7842.000000,47685.000000
17150.000000,7035.000000,7959.000000,47734.000000
17090.000000,7070.000000,7871.000000,47738.000000
17129.000000,7010.000000,7973.000000,47750.000000
17156.000000,7065.000000,8081.000000,47826.000000
17264.000000,7184.000000,8086.000000,47812.000000
17128.000000,7123.000000,8121.000000,47824.000000
17368.000000,7204.000000,8107.000000,47821.000000
17289.000000,7137.000000,8164.000000,47863.000000
17314.000000,7308.000000,8281.000000,47782.000000
17345.000000,7233.000000,8189.000000,47902.000000
17538.000000,7294.000000,8248.000000,47832.000000
17454.000000,7339.000000,8315.000000,47984.000000
17481.000000,7311.000000,8345.000000,47917.000000
17448.000000,7337.000000,8367.000000,47931.000000
17542.000000,7368.000000,8506.000000,48075.000000
17642.000000,7424.000000,8529.000000,48032.000000
17694.000000,7576.000000,8588.000000,48089.000000
17793.000000,7502.000000,8597.000000,48133.000000
17865.000000,7603.000000,8732.000000,48124.000000
17815.000000,7696.000000,8745.000000,48214.000000
17915.000000,7657.000000,8822.000000,48090.000000
18015.000000,7750.000000,8769.000000,48249.000000
18087.000000,7732.000000,8986.000000,48308.000000
18090.000000,7871.000000,8860.000000,48348.000000
18158.000000,7765.000000,8829.000000,48247.000000
18176.000000,7831.000000,8877.000000,48205.000000
18124.000000,7960.000000,9036.000000,48487.000000
18195.000000,7754.000000,8938.000000,48384.000000
18155.000000,7818.000000,8977.000000,48375.000000
18140.000000,7717.000000,8958.000000,48390.000000
18134.000000,7781.000000,8930.000000,48376.000000
18032.000000,7884.000000,8964.000000,48296.000000
17987.000000,7763.000000,8856.000000,48293.000000
18124.000000,7843.000000,8905.000000,48288.000000
18179.000000,7774.000000,8876.000000,48259.000000
18113.000000,7740.000000,8876.000000,48258.000000
17933.000000,7633.000000,8946.000000,48231.000000
18064.000000,7755.000000,8876.000000,48234.000000
18125.000000,7738.000000,8750.000000,48121.000000
18048.000000,7707.000000,8766.000000,48237.000000
17910.000000,7702.000000,8836.000000,48249.000000
18018.000000,7665.000000,8806.000000,48274.000000
18149.000000,7634.000000,8739.000000,48203.000000
18036.000000,7664.000000,8835.000000,48212.000000
17941.000000,7758.000000,8849.000000,48165.000000
17933.000000,7637.000000,8777.000000,48361.000000
17936.000000,7655.000000,8702.000000,48133.000000
17877.000000,7642.000000,8751.000000,48212.000000
17835.000000,7627.000000,8698.000000,48101.000000
17869.000000,7632.000000,8780.000000,48189.000000
17872.000000,7655.000000,8718.000000,48208.000000
17828.000000,7613.000000,8638.000000,48100.000000
17766.000000,7567.000000,8616.000000,48253.000000
17897.000000,7700.000000,8625.000000,48194.000000
17852.000000,7581.000000,8799.000000,48109.000000
17796.000000,7708.000000,8597.000000,48291.000000
17790.000000,7548.000000,8607.000000,48158.000000
17773.000000,7555.000000,8620.000000,48142.000000
17807.000000,7547.000000,8618.000000,48163.000000
17725.000000,7496.000000,8585.000000,48092.000000
17768.000000,7348.000000,8600.000000,48069.000000
17827.000000,7517.000000,8590.000000,48119.000000
17760.000000,7494.000000,8476.000000,48077.000000
17792.000000,7382.000000,8506.000000,48074.000000
17787.000000,7487.000000,8600.000000,48012.000000
17709.000000,7416.000000,8539.000000,47982.000000
17692.000000,7417.000000,8410.000000,47897.000000
17767.000000,7452.000000,8416.000000,48054.000000
17696.000000,7469.000000,8457.000000,48087.000000
17659.000000,7375.000000,8396.000000,48214.000000
17635.000000,7416.000000,8425.000000,48033.000000
17657.000000,7415.000000,8400.000000,48021.000000
17560.000000,7440.000000,8408.000000,48000.000000
17503.000000,7314.000000,8531.000000,47852.000000
17535.000000,7368.000000,8313.000000,47950.000000
17434.000000,7239.000000,8322.000000,47912.000000
17548.000000,7342.000000,8314.000000,47953.000000
17439.000000,7236.000000,8421.000000,47904.000000
17561.000000,7292.000000,8285.000000,47940.000000
17452.000000,7295.000000,8246.000000,47878.000000
17507.000000,7288.000000,8235.000000,47947.000000
17409.000000,7300.000000,8259.000000,47898.000000
17386.000000,7309.000000,8242.000000,47880.000000
17351.000000,7205.000000,8216.000000,47760.000000
17382.000000,7199.000000,8122.000000,47864.000000
17322.000000,7111.000000,8108.000000,47816.000000
17346.000000,7046.000000,8149.000000,47710.000000
17322.000000,7146.000000,8141.000000,47765.000000
17345.000000,7247.000000,8143.000000,47875.000000
17173.000000,7116.000000,8065.000000,47846.000000
17335.000000,7127.000000,8059.000000,47860.000000
17320.000000,7229.000000,8136.000000,47766.000000
17242.000000,7151.000000,7945.000000,47732.000000
17218.000000,6975.000000,8047.000000,47800.000000
17297.000000,7111.000000,8032.000000,47773.000000
17244.000000,7123.000000,8060.000000,47770.000000
17135.000000,7111.000000,8005.000000,47752.000000
17179.000000,7063.000000,8058.000000,47795.000000
17321.000000,7047.000000,8007.000000,47797.000000
17140.000000,7273.000000,7972.000000,47815.000000
17056.000000,7128.000000,7983.000000,47784.000000
17141.000000,7007.000000,7948.000000,47746.000000
17149.000000,7033.000000,7928.000000,47735.000000
17150.000000,7044.000000,7952.000000,47708.000000
17066.000000,7024.000000,7930.000000,47731.000000
17102.000000,6975.000000,7773.000000,47677.000000
17222.000000,6926.000000,7848.000000,47664.000000
17065.000000,6937.000000,7795.000000,47654.000000
16923.000000,6799.000000,7761.000000,47639.000000
16965.000000,6876.000000,7789.000000,47672.000000
16948.000000,6964.000000,7818.000000,47622.000000
16955.000000,6882.000000,7830.000000,47718.000000
16894.000000,6844.000000,7845.000000,47601.000000
16926.000000,6910.000000,7712.000000,47576.000000
16860.000000,6823.000000,7751.000000,47766.000000
16827.000000,6856.000000,7693.000000,47616.000000
16842.000000,6811.000000,7659.000000,47453.000000
16851.000000,6901.000000,7645.000000,47615.000000
16916.000000,6757.000000,7750.000000,47672.000000
16897.000000,6842.000000,7698.000000,47512.000000
16730.000000,6782.000000,7741.000000,47558.000000
16978.000000,6924.000000,7776.000000,47620.000000
17020.000000,6904.000000,7792.000000,47701.000000
17133.000000,6903.000000,7819.000000,47620.000000
17089.000000,6880.000000,7898.000000,47601.000000
16991.000000,7002.000000,7861.000000,47753.000000
16965.000000,7046.000000,7893.000000,47641.000000
17025.000000,6940.000000,7955.000000,47665.000000
17088.000000,7061.000000,7873.000000,47779.000000
17150.000000,7036.000000,7920.000000,47749.000000
17069.000000,7029.000000,7974.000000,47803.000000
17136.000000,7112.000000,8006.000000,47711.000000
17248.000000,7069.000000,8146.000000,47746.000000
17196.000000,7063.000000,8060.000000,47895.000000
17228.000000,7066.000000,8082.000000,47829.000000
17414.000000,7047.000000,8130.000000,47878.000000
17307.000000,7087.000000,8154.000000,47892.000000
17426.000000,7207.000000,8210.000000,47899.000000
17495.000000,7286.000000,8215.000000,48037.000000
17407.000000,7278.000000,8286.000000,47941.000000
17520.000000,7331.000000,8273.000000,48014.000000
17455.000000,7354.000000,8304.000000,47978.000000
17540.000000,7350.000000,8459.000000,48072.000000
17511.000000,7390.000000,8461.000000,47964.000000
17644.000000,7468.000000,8498.000000,48087.000000
17771.000000,7540.000000,8640.000000,48084.000000
17940.000000,7453.000000,8674.000000,48094.000000
17938.000000,7684.000000,8853.000000,48207.000000
17978.000000,7673.000000,8829.000000,48287.000000
18019.000000,7686.000000,8866.000000,48270.000000
18175.000000,7760.000000,8940.000000,48346.000000
18194.000000,7723.000000,8941.000000,48279.000000
18102.000000,7754.000000,8970.000000,48405.000000
18123.000000,7786.000000,8970.000000,48349.000000
18174.000000,7812.000000,9034.000000,48391.000000
18316.000000,7752.000000,8872.000000,48410.000000
18225.000000,7861.000000,9063.000000,48332.000000
18171.000000,7795.000000,9003.000000,48360.000000
18167.000000,7906.000000,9033.000000,48297.000000
18184.000000,7801.000000,8907.000000,48375.000000
18311.000000,7771.000000,8972.000000,48365.000000
18229.000000,7786.000000,8985.000000,48350.000000
18170.000000,7769.000000,8956.000000,48367.000000
18146.000000,7743.000000,8928.000000,48386.000000
18121.000000,7777.000000,8916.000000,48292.000000
18061.000000,7840.000000,8793.000000,48379.000000
18078.000000,8013.000000,8921.000000,48207.000000
18080.000000,7754.000000,8916.000000,48313.000000
18159.000000,7931.000000,8835.000000,48110.000000
18136.000000,7758.000000,8895.000000,48267.000000
17990.000000,7654.000000,8756.000000,48347.000000
18081.000000,7768.000000,8799.000000,48404.000000
18049.000000,7591.000000,8914.000000,48263.000000
17984.000000,7659.000000,8866.000000,48248.000000
18015.000000,7654.000000,8779.000000,48226.000000
17999.000000,7719.000000,8818.000000,48265.000000
18027.000000,7644.000000,8802.000000,48268.000000
18013.000000,7660.000000,8689.000000,48325.000000
17942.000000,7634.000000,8721.000000,48170.000000
18050.000000,7612.000000,8909.000000,48179.000000
17833.000000,7578.000000,8686.000000,48185.000000
17948.000000,7695.000000,8783.000000,48176.000000
17880.000000,7614.000000,8717.000000,48246.000000
17836.000000,7681.000000,8733.000000,48169.000000
17898.000000,7512.000000,8706.000000,48172.000000
17891.000000,7547.000000,8635.000000,48160.000000
17845.000000,7614.000000,8628.000000,48119.000000
17866.000000,7568.000000,8551.000000,48172.000000
17726.000000,7510.000000,8641.000000,48141.000000
17909.000000,7530.000000,8491.000000,48125.000000
17679.000000,7416.000000,8657.000000,48124.000000
17801.000000,7501.000000,8596.000000,48083.000000
17709.000000,7552.000000,8560.000000,48108.000000
17667.000000,7503.000000,8451.000000,48151.000000
17706.000000,7469.000000,8557.000000,48111.000000
17674.000000,7514.000000,8513.000000,48102.000000
17673.000000,7393.000000,8471.000000,48048.000000
17723.000000,7543.000000,8481.000000,47998.000000
17703.000000,7474.000000,8397.000000,48013.000000
17654.000000,7440.000000,8622.000000,47896.000000
17597.000000,7485.000000,8439.000000,47997.000000
17609.000000,7342.000000,8438.000000,48011.000000
17597.000000,7325.000000,8379.000000,48024.000000
17524.000000,7325.000000,8355.000000,48011.000000
17516.000000,7369.000000,8389.000000,47785.000000
17539.000000,7387.000000,8312.000000,47975.000000
17526.000000,7334.000000,8472.000000,47991.000000
17482.000000,7311.000000,8422.000000,47965.000000
17462.000000,7362.000000,8279.000000,48050.000000
17511.000000,7303.000000,8222.000000,47979.000000
17540.000000,7271.000000,8238.000000,47906.000000
17291.000000,7262.000000,8192.000000,47991.000000
17423.000000,7195.000000,8306.000000,47897.000000
17355.000000,7341.000000,8381.000000,47824.000000
17448.000000,7190.000000,8231.000000,47920.000000
17579.000000,7157.000000,8149.000000,47910.000000
17412.000000,7233.000000,8163.000000,47937.000000
17337.000000,7007.000000,8128.000000,47714.000000
17308.000000,7207.000000,8083.000000,47855.000000
17342.000000,7125.000000,8140.000000,47873.000000
17339.000000,7230.000000,8183.000000,47902.000000
17352.000000,7147.000000,8103.000000,47824.000000
17370.000000,7201.000000,8113.000000,48032.000000
17457.000000,7221.000000,8182.000000,47846.000000
17298.000000,7156.000000,8146.000000,47888.000000
17363.000000,7129.000000,8178.000000,47854.000000
17335.000000,7186.000000,8072.000000,47841.000000
17380.000000,7247.000000,8128.000000,47876.000000
17378.000000,7159.000000,8252.000000,47890.000000
17230.000000,7112.000000,8106.000000,47891.000000
17323.000000,7173.000000,8146.000000,47803.000000
17274.000000,7061.000000,8179.000000,47684.000000
17237.000000,7029.000000,8182.000000,47803.000000
17230.000000,7092.000000,8172.000000,47796.000000
17194.000000,7092.000000,8065.000000,47857.000000
17088.000000,7001.000000,8005.000000,47847.000000
17198.000000,7046.000000,8037.000000,47891.000000
17190.000000,7024.000000,8048.000000,47865.000000
17227.000000,7103.000000,8067.000000,47762.000000
17127.000000,7070.000000,8115.000000,47736.000000
17142.000000,7054.000000,7999.000000,47778.000000
17086.000000,7072.000000,7956.000000,47762.000000
16991.000000,6991.000000,7985.000000,47789.000000
17207.000000,6968.000000,7956.000000,47798.000000
17219.000000,7082.000000,8106.000000,47795.000000
17227.000000,7048.000000,7997.000000,47841.000000
17135.000000,7011.000000,8040.000000,47726.000000
17147.000000,7063.000000,8139.000000,47823.000000
17282.000000,7103.000000,8132.000000,47813.000000
17274.000000,7179.000000,8044.000000,47839.000000
17272.000000,7092.000000,8135.000000,47886.000000
17324.000000,7204.000000,8174.000000,47784.000000
17240.000000,7223.000000,8189.000000,47958.000000
17411.000000,7235.000000,8303.000000,47929.000000
17443.000000,7222.000000,8279.000000,48166.000000
17460.000000,7284.000000,8321.000000,48036.000000
17390.000000,7217.000000,8389.000000,47893.000000
17565.000000,7336.000000,8513.000000,48087.000000
17529.000000,7370.000000,8441.000000,47923.000000
17610.000000,7339.000000,8470.000000,48057.000000
17501.000000,7297.000000,8491.000000,48019.000000
17626.000000,7452.000000,8583.000000,48077.000000
17714.000000,7374.000000,8412.000000,48069.000000
17799.000000,7365.000000,8489.000000,48083.000000
17690.000000,7426.000000,8597.000000,48132.000000
17855.000000,7456.000000,8667.000000,48091.000000
17875.000000,7532.000000,8670.000000,48216.000000
18019.000000,7668.000000,8796.000000,48297.000000
18061.000000,7724.000000,8874.000000,48198.000000
18095.000000,7761.000000,8949.000000,48317.000000
17924.000000,7774.000000,8900.000000,48332.000000
18089.000000,7778.000000,9060.000000,48386.000000
18184.000000,7714.000000,9056.000000,48480.000000
18193.000000,7908.000000,9040.000000,48432.000000
18171.000000,7871.000000,9057.000000,48423.000000
18292.000000,7961.000000,9179.000000,48435.000000
18303.000000,7909.000000,9182.000000,48435.000000
18308.000000,7916.000000,9272.000000,48478.000000
18316.000000,7904.000000,9220.000000,48460.000000
18386.000000,7909.000000,9247.000000,48454.000000
18277.000000,7860.000000,9402.000000,48552.000000
18295.000000,7980.000000,9307.000000,48522.000000
18342.000000,7937.000000,9115.000000,48462.000000
18354.000000,7936.000000,9229.000000,48472.000000
18446.000000,8018.000000,9280.000000,48440.000000
18371.000000,7999.000000,9276.000000,48481.000000
18265.000000,7966.000000,9056.000000,48366.000000
18343.000000,7938.000000,9208.000000,48418.000000
18253.000000,7912.000000,9171.000000,48450.000000
18196.000000,7872.000000,9031.000000,48331.000000
18374.000000,7924.000000,9087.000000,48442.000000
18283.000000,7939.000000,9077.000000,48375.000000
18209.000000,7915.000000,9154.000000,48429.000000
18143.000000,7829.000000,9162.000000,48305.000000
18179.000000,7881.000000,9078.000000,48359.000000
18133.000000,7874.000000,9010.000000,48333.000000
18149.000000,7748.000000,9020.000000,48352.000000
18200.000000,7809.000000,9090.000000,48367.000000
18091.000000,7744.000000,9027.000000,48356.000000
17995.000000,7684.000000,8938.000000,48296.000000
18079.000000,7794.000000,9011.000000,48337.000000
18155.000000,7705.000000,8882.000000,48248.000000
17920.000000,7613.000000,9056.000000,48405.000000
18005.000000,7678.000000,8835.000000,48263.000000
17991.000000,7654.000000,8871.000000,48281.000000
17947.000000,7686.000000,8818.000000,48230.000000
18062.000000,7763.000000,8848.000000,48322.000000
18054.000000,7658.000000,8920.000000,48279.000000
17965.000000,7752.000000,8809.000000,48304.000000
17876.000000,7657.000000,8824.000000,48340.000000
17962.000000,7673.000000,8800.000000,48258.000000
17887.000000,7633.000000,8769.000000,48199.000000
17920.000000,7646.000000,8775.000000,48201.000000
17765.000000,7589.000000,8708.000000,48304.000000
17763.000000,7487.000000,8756.000000,48245.000000
17830.000000,7487.000000,8723.000000,48203.000000
17871.000000,7594.000000,8717.000000,48198.000000
17984.000000,7595.000000,8756.000000,48205.000000
17731.000000,7564.000000,8625.000000,48206.000000
17923.000000,7504.000000,8608.000000,48151.000000
17800.000000,7496.000000,8593.000000,48188.000000
17709.000000,7495.000000,8647.000000,48222.000000
17763.000000,7455.000000,8573.000000,48144.000000
17682.000000,7498.000000,8591.000000,48117.000000
17650.000000,7469.000000,8519.000000,48035.000000
17656.000000,7451.000000,8519.000000,48035.000000
17717.000000,7451.000000,8505.000000,48075.000000
17660.000000,7430.000000,8481.000000,48067.000000
17417.000000,7563.000000,8523.000000,47925.000000
17619.000000,7395.000000,8493.000000,48057.000000
17562.000000,7444.000000,8485.000000,48123.000000
17561.000000,7398.000000,8451.000000,48042.000000
17521.000000,7186.000000,8405.000000,48045.000000
17559.000000,7284.000000,8423.000000,47992.000000
17477.000000,7365.000000,8401.000000,47981.000000
17548.000000,7410.000000,8354.000000,47909.000000
17391.000000,7242.000000,8355.000000,47972.000000
17488.000000,7228.000000,8275.000000,48061.000000
17469.000000,7282.000000,8233.000000,47996.000000
17468.000000,7232.000000,8285.000000,47900.000000
17287.000000,7150.000000,8231.000000,47899.000000
17378.000000,7188.000000,8438.000000,47938.000000
17360.000000,7312.000000,8247.000000,47970.000000
17322.000000,7319.000000,8199.000000,47923.000000
17227.000000,7126.000000,8268.000000,47916.000000
17321.000000,7165.000000,8187.000000,47889.000000
17368.000000,7132.000000,8185.000000,47898.000000
17325.000000,7162.000000,8188.000000,47763.000000
17176.000000,7309.000000,8260.000000,47899.000000
17200.000000,7164.000000,8209.000000,47841.000000
17196.000000,7013.000000,8162.000000,47875.000000
17320.000000,7147.000000,8052.000000,47973.000000
17240.000000,7080.000000,8163.000000,47860.000000
17207.000000,7090.000000,8133.000000,47833.000000
17205.000000,7118.000000,8107.000000,47813.000000
17244.000000,7106.000000,8069.000000,47841.000000
17145.000000,7162.000000,8079.000000,47833.000000
17329.000000,7104.000000,8013.000000,47808.000000
17170.000000,7005.000000,8007.000000,47777.000000
17152.000000,6984.000000,8061.000000,47795.000000
17151.000000,7064.000000,8012.000000,47771.000000
16978.000000,7029.000000,8037.000000,47801.000000
17007.000000,7020.000000,7938.000000,47748.000000
17092.000000,7067.000000,7998.000000,47864.000000
17075.000000,6940.000000,7919.000000,47729.000000
17086.000000,6902.000000,7962.000000,47708.000000
16982.000000,6949.000000,7905.000000,47715.000000
16863.000000,6839.000000,7810.000000,47768.000000
17063.000000,6928.000000,7844.000000,47726.000000
17044.000000,7016.000000,7835.000000,47723.000000
16973.000000,7029.000000,7948.000000,47761.000000
16945.000000,6899.000000,7789.000000,47733.000000
17034.000000,7020.000000,7925.000000,47743.000000
17066.000000,7157.000000,7996.000000,47858.000000
17032.000000,7000.000000,7954.000000,47801.000000
17090.000000,7074.000000,8070.000000,47651.000000
17101.000000,7033.000000,8067.000000,47784.000000
17148.000000,7087.000000,7972.000000,47806.000000
17135.000000,7086.000000,8067.000000,47826.000000
17152.000000,7065.000000,7954.000000,47846.000000
17261.000000,7039.000000,8149.000000,47843.000000
17217.000000,7118.000000,8135.000000,48021.000000
17192.000000,7132.000000,8204.000000,48024.000000
17373.000000,7218.000000,8283.000000,47971.000000
17517.000000,7383.000000,8350.000000,48166.000000
17290.000000,7181.000000,8383.000000,47955.000000
17388.000000,7482.000000,8312.000000,48194.000000
17576.000000,7282.000000,8432.000000,48027.000000
17519.000000,7258.000000,8448.000000,48036.000000
17502.000000,7358.000000,8416.000000,48043.000000
17488.000000,7398.000000,8480.000000,48055.000000
17607.000000,7372.000000,8500.000000,48070.000000
17548.000000,7357.000000,8658.000000,48043.000000
17557.000000,7363.000000,8695.000000,48185.000000
17716.000000,7569.000000,8572.000000,48127.000000
17733.000000,7557.000000,8623.000000,48232.000000
17789.000000,7515.000000,8652.000000,48168.000000
17792.000000,7654.000000,8836.000000,48070.000000
17955.000000,7629.000000,8799.000000,48231.000000
17861.000000,7692.000000,8842.000000,48251.000000
17934.000000,7589.000000,8912.000000,48236.000000
18036.000000,7669.000000,8876.000000,48317.000000
18098.000000,7794.000000,8970.000000,48338.000000
18074.000000,7805.000000,9107.000000,48263.000000
18157.000000,7898.000000,9289.000000,48577.000000
18320.000000,7868.000000,9162.000000,48444.000000
18145.000000,7854.000000,9156.000000,48441.000000
18241.000000,7879.000000,9192.000000,48496.000000
18411.000000,8060.000000,8974.000000,48400.000000
18298.000000,7907.000000,9178.000000,48400.000000
18274.000000,7792.000000,9140.000000,48476.000000
18275.000000,7881.000000,9184.000000,48352.000000
18220.000000,7862.000000,9105.000000,48432.000000
18067.000000,7926.000000,9061.000000,48426.000000
18076.000000,7826.000000,9070.000000,48371.000000
18106.000000,7729.000000,9160.000000,48367.000000
17863.000000,7748.000000,9091.000000,48439.000000
18194.000000,7758.000000,8918.000000,48381.000000
18048.000000,7739.000000,8936.000000,48224.000000
18094.000000,7630.000000,9101.000000,48435.000000
17939.000000,7737.000000,8954.000000,48321.000000
18023.000000,7748.000000,8976.000000,48283.000000
17957.000000,7776.000000,8939.000000,48384.000000
17894.000000,7704.000000,8830.000000,48271.000000
17921.000000,7614.000000,8823.000000,48243.000000
17943.000000,7618.000000,8858.000000,48164.000000
17820.000000,7550.000000,8791.000000,48246.000000
17997.000000,7652.000000,8724.000000,48331.000000
17836.000000,7696.000000,8885.000000,48307.000000
17797.000000,7601.000000,8810.000000,48190.000000
17604.000000,7653.000000,8622.000000,48279.000000
17760.000000,7505.000000,8726.000000,48199.000000
17826.000000,7567.000000,8710.000000,48169.000000
17729.000000,7494.000000,8670.000000,48184.000000
17682.000000,7511.000000,8592.000000,48036.000000
17725.000000,7547.000000,8713.000000,48147.000000
17725.000000,7533.000000,8668.000000,48220.000000
17700.000000,7387.000000,8577.000000,48087.000000
17673.000000,7440.000000,8629.000000,48133.000000
17733.000000,7340.000000,8748.000000,48171.000000
17571.000000,7404.000000,8558.000000,48129.000000
17622.000000,7448.000000,8459.000000,48021.000000
17599.000000,7404.000000,8513.000000,48068.000000
17524.000000,7338.000000,8594.000000,48021.000000
17536.000000,7308.000000,8404.000000,48017.000000
17467.000000,7288.000000,8378.000000,47986.000000
17485.000000,7360.000000,8473.000000,48025.000000
17481.000000,7269.000000,8433.000000,48014.000000
17542.000000,7305.000000,8384.000000,48068.000000
17423.000000,7326.000000,8479.000000,48042.000000
17425.000000,7384.000000,8570.000000,47938.000000
17458.000000,7263.000000,8333.000000,47959.000000
17449.000000,7248.000000,8304.000000,47973.000000
17372.000000,7190.000000,8315.000000,47943.000000
17416.000000,7278.000000,8331.000000,47908.000000
17327.000000,7267.000000,8360.000000,47903.000000
17342.000000,7134.000000,8274.000000,47972.000000
17268.000000,7205.000000,8215.000000,47929.000000
17384.000000,7216.000000,8189.000000,47965.000000
17210.000000,7118.000000,8181.000000,47921.000000
17209.000000,7204.000000,8217.000000,47909.000000
17235.000000,7230.000000,8225.000000,47837.000000
17190.000000,7094.000000,8254.000000,47848.000000
17230.000000,7070.000000,8117.000000,47852.000000
17221.000000,7047.000000,8120.000000,47909.000000
17249.000000,7112.000000,8073.000000,47831.000000
17180.000000,7102.000000,8120.000000,47875.000000
17121.000000,6955.000000,8131.000000,47770.000000
17170.000000,7057.000000,8126.000000,47797.000000
17181.000000,6940.000000,8090.000000,47882.000000
17063.000000,7012.000000,8075.000000,47828.000000
17100.000000,6961.000000,8050.000000,47806.000000
17153.000000,7018.000000,7991.000000,47802.000000
17029.000000,7082.000000,8202.000000,47663.000000
17069.000000,6978.000000,7988.000000,47823.000000
17113.000000,7027.000000,8075.000000,47834.000000
17128.000000,7040.000000,7978.000000,47746.000000
17042.000000,6984.000000,8023.000000,47722.000000
17130.000000,7004.000000,8011.000000,47839.000000
17083.000000,6989.000000,8008.000000,47779.000000
16899.000000,6932.000000,7922.000000,47736.000000
17045.000000,6991.000000,7985.000000,47734.000000
16897.000000,6982.000000,7929.000000,47748.000000
16948.000000,6924.000000,7902.000000,47730.000000
17073.000000,6693.000000,8087.000000,47590.000000
16960.000000,6920.000000,7871.000000,47787.000000
16981.000000,6993.000000,7860.000000,47803.000000
16938.000000,6873.000000,7899.000000,47750.000000
16820.000000,6802.000000,7739.000000,47745.000000
16892.000000,6845.000000,7844.000000,47668.000000
16916.000000,6925.000000,7760.000000,47648.000000
16864.000000,6844.000000,7808.000000,47723.000000
16735.000000,6721.000000,7762.000000,47705.000000
16797.000000,6752.000000,7754.000000,47606.000000
16812.000000,6831.000000,7667.000000,47726.000000
16738.000000,6893.000000,7822.000000,47604.000000
16637.000000,6766.000000,7698.000000,47593.000000
16857.000000,6864.000000,7661.000000,47621.000000
16852.000000,6700.000000,7781.000000,47482.000000
16703.000000,6769.000000,7741.000000,47490.000000
16704.000000,6745.000000,7693.000000,47555.000000
16780.000000,6735.000000,7688.000000,47732.000000
16851.000000,6740.000000,7730.000000,47630.000000
16747.000000,6660.000000,7728.000000,47611.000000
16795.000000,6755.000000,7871.000000,47679.000000
16702.000000,6725.000000,7787.000000,47635.000000
16885.000000,6909.000000,7798.000000,47665.000000
16926.000000,6830.000000,7892.000000,47665.000000
16962.000000,6950.000000,7874.000000,47685.000000
16880.000000,6904.000000,7862.000000,47709.000000
16874.000000,6862.000000,7851.000000,47821.000000
17069.000000,6904.000000,7951.000000,47766.000000
16921.000000,6914.000000,7975.000000,47759.000000
16999.000000,6961.000000,8036.000000,47762.000000
17127.000000,6908.000000,8002.000000,47816.000000
17120.000000,7073.000000,8067.000000,47844.000000
17122.000000,7036.000000,8121.000000,47790.000000
17083.000000,7194.000000,8150.000000,47941.000000
17226.000000,7051.000000,8159.000000,47983.000000
17281.000000,7139.000000,8152.000000,47987.000000
17294.000000,7188.000000,8261.000000,47916.000000
17330.000000,7259.000000,8279.000000,47869.000000
17364.000000,7213.000000,8322.000000,47978.000000
17405.000000,7233.000000,8239.000000,48046.000000
17475.000000,7219.000000,8407.000000,47955.000000
17502.000000,7100.000000,8389.000000,47882.000000
17660.000000,7354.000000,8353.000000,48070.000000
17510.000000,7346.000000,8447.000000,48085.000000
17521.000000,7282.000000,8524.000000,48063.000000
17473.000000,7329.000000,8427.000000,48044.000000
17585.000000,7378.000000,8514.000000,48069.000000
17624.000000,7431.000000,8664.000000,48153.000000
17756.000000,7456.000000,8714.000000,48092.000000
17791.000000,7525.000000,8679.000000,48223.000000
17767.000000,7576.000000,8770.000000,48252.000000
17788.000000,7523.000000,8734.000000,48165.000000
17873.000000,7540.000000,8731.000000,48290.000000
17882.000000,7600.000000,8806.000000,48218.000000
17857.000000,7551.000000,8799.000000,48280.000000
17844.000000,7598.000000,8826.000000,48243.000000
17892.000000,7546.000000,8751.000000,48218.000000
17944.000000,7669.000000,8774.000000,48202.000000
17814.000000,7669.000000,8770.000000,48172.000000
17933.000000,7552.000000,8723.000000,48192.000000
17841.000000,7619.000000,8648.000000,48085.000000
17744.000000,7522.000000,8848.000000,48284.000000
17835.000000,7582.000000,8717.000000,48273.000000
17742.000000,7573.000000,8777.000000,48217.000000
17743.000000,7554.000000,8620.000000,48231.000000
17836.000000,7594.000000,8756.000000,48209.000000
17715.000000,7449.000000,8618.000000,48154.000000
17708.000000,7431.000000,8705.000000,48121.000000
17648.000000,7383.000000,8683.000000,48171.000000
17746.000000,7489.000000,8630.000000,48254.000000
17672.000000,7543.000000,8681.000000,48230.000000
17784.000000,7477.000000,8581.000000,48231.000000
17774.000000,7410.000000,8614.000000,48133.000000
17808.000000,7476.000000,8652.000000,48125.000000
17726.000000,7463.000000,8720.000000,48181.000000
17806.000000,7463.000000,8578.000000,48189.000000
17703.000000,7341.000000,8620.000000,48112.000000
17852.000000,7557.000000,8608.000000,48088.000000
17666.000000,7478.000000,8705.000000,48072.000000
17601.000000,7505.000000,8608.000000,48179.000000
17566.000000,7369.000000,8536.000000,48068.000000
17637.000000,7398.000000,8483.000000,48125.000000
17669.000000,7440.000000,8491.000000,48066.000000
17541.000000,7401.000000,8477.000000,48091.000000
17487.000000,7323.000000,8436.000000,48109.000000
17535.000000,7330.000000,8496.000000,48087.000000
17520.000000,7407.000000,8492.000000,48075.000000
17509.000000,7288.000000,8437.000000,48045.000000
17390.000000,7305.000000,8451.000000,48136.000000
17470.000000,7336.000000,8479.000000,48073.000000
17550.000000,7363.000000,8434.000000,48095.000000
17326.000000,7319.000000,8384.000000,47956.000000
17426.000000,7269.000000,8435.000000,48089.000000
17498.000000,7338.000000,8445.000000,48031.000000
17383.000000,7299.000000,8345.000000,48050.000000
17470.000000,7290.000000,8403.000000,48062.000000
17457.000000,7206.000000,8336.000000,47976.000000
17516.000000,7313.000000,8412.000000,48182.000000
17370.000000,7190.000000,8281.000000,47997.000000
17568.000000,7311.000000,8331.000000,47996.000000
17425.000000,7220.000000,8380.000000,47965.000000
17301.000000,7185.000000,8350.000000,48193.000000
17297.000000,7181.000000,8349.000000,48035.000000
17370.000000,7264.000000,8185.000000,48004.000000
17337.000000,7196.000000,8352.000000,47934.000000
17250.000000,7105.000000,8206.000000,47982.000000
17312.000000,7112.000000,8157.000000,47989.000000
17327.000000,7141.000000,8182.000000,47980.000000
17347.000000,7138.000000,8221.000000,47972.000000
17109.000000,7102.000000,8217.000000,47867.000000
17265.000000,7118.000000,8075.000000,47988.000000
17030.000000,7054.000000,8159.000000,47830.000000
17154.000000,7064.000000,8080.000000,47869.000000
17093.000000,7131.000000,7995.000000,47851.000000
17129.000000,6988.000000,8051.000000,47863.000000
17036.000000,7045.000000,8023.000000,47801.000000
17099.000000,7035.000000,7958.000000,47790.000000
17074.000000,6986.000000,7850.000000,47578.000000
17073.000000,7010.000000,7971.000000,47820.000000
16930.000000,6982.000000,8044.000000,47758.000000
17010.000000,6956.000000,7982.000000,47805.000000
17021.000000,6981.000000,7998.000000,47793.000000
17033.000000,7028.000000,7976.000000,47770.000000
17066.000000,7000.000000,7949.000000,47856.000000
17067.000000,6967.000000,7985.000000,47778.000000
17057.000000,6962.000000,7957.000000,47787.000000
17036.000000,6950.000000,7964.000000,47771.000000
16909.000000,7016.000000,7997.000000,47890.000000
17105.000000,7009.000000,7986.000000,47769.000000
17010.000000,6995.000000,7986.000000,47860.000000
17000.000000,6988.000000,8068.000000,47627.000000
16973.000000,6712.000000,7959.000000,47823.000000
17032.000000,6943.000000,7980.000000,47859.000000
17030.000000,6897.000000,7948.000000,47830.000000
16984.000000,6813.000000,8014.000000,47769.000000
16906.000000,6816.000000,7996.000000,47798.000000
16956.000000,6913.000000,7836.000000,47737.000000
16917.000000,6843.000000,7871.000000,47657.000000
16726.000000,6763.000000,7832.000000,47684.000000
16909.000000,6687.000000,7791.000000,47692.000000
16775.000000,6809.000000,7815.000000,47665.000000
16733.000000,6780.000000,7604.000000,47777.000000
16546.000000,6662.000000,7629.000000,47585.000000
16637.000000,6589.000000,7548.000000,47589.000000
16638.000000,6700.000000,7622.000000,47522.000000
16544.000000,6615.000000,7556.000000,47560.000000
16535.000000,6519.000000,7512.000000,47565.000000
16483.000000,6630.000000,7448.000000,47436.000000
16459.000000,6576.000000,7437.000000,47484.000000
16516.000000,6566.000000,7494.000000,47513.000000
16401.000000,6489.000000,7464.000000,47448.000000
16463.000000,6589.000000,7440.000000,47483.000000
16494.000000,6510.000000,7431.000000,47434.000000
16488.000000,6550.000000,7464.000000,47474.000000
16368.000000,6565.000000,7471.000000,47389.000000
16517.000000,6602.000000,7458.000000,47497.000000
16526.000000,6582.000000,7501.000000,47409.000000
16564.000000,6603.000000,7668.000000,47479.000000
16570.000000,6612.000000,7531.000000,47462.000000
16541.000000,6727.000000,7520.000000,47450.000000
16554.000000,6582.000000,7583.000000,47614.000000
16630.000000,6702.000000,7680.000000,47569.000000
16602.000000,6689.000000,7596.000000,47645.000000
16619.000000,6692.000000,7659.000000,47540.000000
16605.000000,6689.000000,7603.000000,47570.000000
16699.000000,6616.000000,7700.000000,47556.000000
16733.000000,6787.000000,7788.000000,47636.000000
16802.000000,6849.000000,7783.000000,47677.000000
16765.000000,6722.000000,7738.000000,47564.000000
16838.000000,6798.000000,7817.000000,47656.000000
16743.000000,6857.000000,7966.000000,47553.000000
17073.000000,6961.000000,7902.000000,47615.000000
16837.000000,6878.000000,7922.000000,47726.000000
16876.000000,6911.000000,7947.000000,47716.000000
16935.000000,6857.000000,8017.000000,47729.000000
16990.000000,7029.000000,7972.000000,47754.000000
17009.000000,6998.000000,7990.000000,47761.000000
16995.000000,7052.000000,8192.000000,47783.000000
16977.000000,7034.000000,8107.000000,47811.000000
17149.000000,7154.000000,8128.000000,47796.000000
17199.000000,7135.000000,8178.000000,47951.000000
17023.000000,7173.000000,8307.000000,47877.000000
17282.000000,7164.000000,8231.000000,47941.000000
17338.000000,7283.000000,8340.000000,47969.000000
17423.000000,7349.000000,8478.000000,48046.000000
17549.000000,7411.000000,8479.000000,47982.000000
17538.000000,7373.000000,8485.000000,47992.000000
17486.000000,7397.000000,8538.000000,48008.000000
17590.000000,7370.000000,8481.000000,48156.000000
17649.000000,7444.000000,8542.000000,48026.000000
17567.000000,7338.000000,8573.000000,47999.000000
17528.000000,7503.000000,8560.000000,48054.000000
17599.000000,7432.000000,8600.000000,48066.000000
17597.000000,7401.000000,8549.000000,48056.000000
17602.000000,7379.000000,8552.000000,48080.000000
17541.000000,7532.000000,8509.000000,47986.000000
17540.000000,7352.000000,8716.000000,48004.000000
17622.000000,7367.000000,8480.000000,48016.000000
17577.000000,7384.000000,8419.000000,48016.000000
17489.000000,7296.000000,8572.000000,47991.000000
17455.000000,7356.000000,8471.000000,47961.000000
17397.000000,7345.000000,8453.000000,47944.000000
17537.000000,7292.000000,8490.000000,48040.000000
17472.000000,7452.000000,8397.000000,48106.000000
17502.000000,7272.000000,8508.000000,48057.000000
17454.000000,7194.000000,8420.000000,48025.000000
17539.000000,7392.000000,8403.000000,47935.000000
17532.000000,7344.000000,8342.000000,47893.000000
17429.000000,7322.000000,8402.000000,47989.000000
17383.000000,7280.000000,8324.000000,47996.000000
17457.000000,7320.000000,8372.000000,47942.000000
17395.000000,7354.000000,8420.000000,47864.000000
17391.000000,7272.000000,8348.000000,47969.000000
17342.000000,7247.000000,8408.000000,47963.000000
17405.000000,7193.000000,8198.000000,47943.000000
17435.000000,7240.000000,8382.000000,47935.000000
17321.000000,7263.000000,8246.000000,47856.000000
17202.000000,7231.000000,8250.000000,47909.000000
17216.000000,7114.000000,8299.000000,47885.000000
17272.000000,7260.000000,8370.000000,47864.000000
17201.000000,7178.000000,8182.000000,47914.000000
17211.000000,7167.000000,8251.000000,47807.000000
17050.000000,7261.000000,8168.000000,47864.000000
17259.000000,7116.000000,8152.000000,47791.000000
17299.000000,7138.000000,8134.000000,47887.000000
17225.000000,7130.000000,8163.000000,47817.000000
17178.000000,7025.000000,8010.000000,47744.000000
17227.000000,7063.000000,8167.000000,47833.000000
17164.000000,7136.000000,8111.000000,47829.000000
17131.000000,7109.000000,8087.000000,47833.000000
17036.000000,7009.000000,8037.000000,47819.000000
17108.000000,7026.000000,8064.000000,47803.000000
17050.000000,7085.000000,8081.000000,47875.000000
17050.000000,7062.000000,7988.000000,47746.000000
17062.000000,7082.000000,8027.000000,47742.000000
16996.000000,6994.000000,8055.000000,47812.000000
16931.000000,6899.000000,7912.000000,47784.000000
16980.000000,7038.000000,8021.000000,47779.000000
17117.000000,6959.000000,7947.000000,47856.000000
17034.000000,6986.000000,7857.000000,47677.000000
16804.000000,6861.000000,7935.000000,47809.000000
16929.000000,6921.000000,7970.000000,47725.000000
16872.000000,6833.000000,7813.000000,47624.000000
16967.000000,6868.000000,7883.000000,47762.000000
16889.000000,6915.000000,7851.000000,47683.000000
16858.000000,6852.000000,7839.000000,47638.000000
16801.000000,6861.000000,7777.000000,47630.000000
16961.000000,6893.000000,7823.000000,47642.000000
16825.000000,6810.000000,7877.000000,47730.000000
16830.000000,6831.000000,7726.000000,47635.000000
16785.000000,6866.000000,7766.000000,47655.000000
16836.000000,6860.000000,7736.000000,47624.000000
16768.000000,6788.000000,7777.000000,47623.000000
16780.000000,6747.000000,7722.000000,47575.000000
16769.000000,6705.000000,7697.000000,47658.000000
16883.000000,6849.000000,7740.000000,47433.000000
16784.000000,6749.000000,7745.000000,47587.000000
16789.000000,6766.000000,7713.000000,47625.000000
16779.000000,6720.000000,7734.000000,47532.000000
16825.000000,6757.000000,7678.000000,47470.000000
16791.000000,6803.000000,7722.000000,47662.000000
16575.000000,6735.000000,7625.000000,47696.000000
16793.000000,6685.000000,7704.000000,47599.000000
16774.000000,6805.000000,7650.000000,47601.000000
16741.000000,6771.000000,7631.000000,47556.000000
16598.000000,6733.000000,7638.000000,47626.000000
16611.000000,6703.000000,7743.000000,47546.000000
16519.000000,6689.000000,7639.000000,47635.000000
16624.000000,6669.000000,7528.000000,47529.000000
16660.000000,6685.000000,7557.000000,47489.000000
16720.000000,6798.000000,7577.000000,47635.000000
16470.000000,6585.000000,7455.000000,47489.000000
16511.000000,6603.000000,7521.000000,47515.000000
16514.000000,6619.000000,7432.000000,47464.000000
16573.000000,6581.000000,7447.000000,47395.000000
16472.000000,6483.000000,7413.000000,47509.000000
16327.000000,6473.000000,7285.000000,47571.000000
16459.000000,6572.000000,7440.000000,47484.000000
16526.000000,6551.000000,7498.000000,47470.000000
16468.000000,6597.000000,7488.000000,47481.000000
16547.000000,6611.000000,7524.000000,47515.000000
16561.000000,6657.000000,7427.000000,47479.000000
16567.000000,6633.000000,7475.000000,47468.000000
16414.000000,6720.000000,7500.000000,47585.000000
16603.000000,6654.000000,7569.000000,47531.000000
16714.000000,6735.000000,7563.000000,47494.000000
16634.000000,6709.000000,7609.000000,47505.000000
16651.000000,6702.000000,7615.000000,47439.000000
16741.000000,6742.000000,7567.000000,47566.000000
16809.000000,6730.000000,7672.000000,47605.000000
16727.000000,6841.000000,7803.000000,47609.000000
16872.000000,6921.000000,7785.000000,47680.000000
16893.000000,6876.000000,7831.000000,47720.000000
16879.000000,6857.000000,7787.000000,47670.000000
16888.000000,6888.000000,7791.000000,47813.000000
16948.000000,6943.000000,7948.000000,47768.000000
17047.000000,6883.000000,7945.000000,47756.000000
17118.000000,6939.000000,7958.000000,47787.000000
17022.000000,7054.000000,8045.000000,47870.000000
17200.000000,7113.000000,8114.000000,47892.000000
17300.000000,7163.000000,8186.000000,47903.000000
17257.000000,7187.000000,8253.000000,47923.000000
17250.000000,7186.000000,8266.000000,47932.000000
17359.000000,7233.000000,8258.000000,47893.000000
17476.000000,7375.000000,8444.000000,47920.000000
17469.000000,7429.000000,8242.000000,48036.000000
17443.000000,7219.000000,8391.000000,48076.000000
17545.000000,7406.000000,8439.000000,48093.000000
17637.000000,7400.000000,8479.000000,48097.000000
17629.000000,7642.000000,8529.000000,48088.000000
17613.000000,7497.000000,8611.000000,48261.000000
17798.000000,7449.000000,8648.000000,48208.000000
17808.000000,7617.000000,8756.000000,48185.000000
17844.000000,7609.000000,8835.000000,48191.000000
17883.000000,7605.000000,8849.000000,48293.000000
17974.000000,7706.000000,8955.000000,48261.000000
18081.000000,7616.000000,8925.000000,48331.000000
18002.000000,7762.000000,8912.000000,48274.000000
18041.000000,7711.000000,8977.000000,48243.000000
18038.000000,7694.000000,8920.000000,48313.000000
17963.000000,7727.000000,9043.000000,48323.000000
17850.000000,7707.000000,8867.000000,48385.000000
17941.000000,7646.000000,8812.000000,48280.000000
17944.000000,7733.000000,8805.000000,48310.000000
17895.000000,7645.000000,8828.000000,48248.000000
17921.000000,7671.000000,8849.000000,48212.000000
17852.000000,7683.000000,8855.000000,48291.000000
17819.000000,7539.000000,8757.000000,48187.000000
17956.000000,7785.000000,8739.000000,48223.000000
17859.000000,7735.000000,8775.000000,48270.000000
17877.000000,7630.000000,8717.000000,48308.000000
17810.000000,7565.000000,8683.000000,48258.000000
17881.000000,7602.000000,8709.000000,48125.000000
17800.000000,7582.000000,8754.000000,48170.000000
17827.000000,7716.000000,8717.000000,48219.000000
17756.000000,7531.000000,8547.000000,48139.000000
17736.000000,7522.000000,8641.000000,48126.000000
17734.000000,7545.000000,8721.000000,48106.000000
17723.000000,7538.000000,8566.000000,48123.000000
17833.000000,7593.000000,8587.000000,47942.000000
17711.000000,7514.000000,8567.000000,48080.000000
17595.000000,7421.000000,8525.000000,48119.000000
17678.000000,7444.000000,8538.000000,48031.000000
17647.000000,7455.000000,8565.000000,48079.000000
17670.000000,7425.000000,8514.000000,48149.000000
17536.000000,7316.000000,8447.000000,47968.000000
17651.000000,7307.000000,8361.000000,48036.000000
17609.000000,7480.000000,8456.000000,48045.000000
17504.000000,7339.000000,8417.000000,48019.000000
17527.000000,7295.000000,8481.000000,48014.000000
17377.000000,7354.000000,8455.000000,47953.000000
17327.000000,7206.000000,8354.000000,47995.000000
17468.000000,7327.000000,8342.000000,48046.000000
17475.000000,7324.000000,8308.000000,47924.000000
17470.000000,7269.000000,8369.000000,47992.000000
17334.000000,7169.000000,8255.000000,47961.000000
17358.000000,7260.000000,8298.000000,47933.000000
17401.000000,7227.000000,8162.000000,47918.000000
17494.000000,7084.000000,8191.000000,47913.000000
17283.000000,7109.000000,8225.000000,47950.000000
17343.000000,7196.000000,8198.000000,47888.000000
17288.000000,7084.000000,8310.000000,47834.000000
17281.000000,7108.000000,8204.000000,47852.000000
17234.000000,7137.000000,8083.000000,47788.000000
17242.000000,7145.000000,8107.000000,47894.000000
17313.000000,7249.000000,8104.000000,47965.000000
17150.000000,7025.000000,8073.000000,47884.000000
17136.000000,7047.000000,7995.000000,47810.000000
17153.000000,7117.000000,8045.000000,47799.000000
17125.000000,7027.000000,8071.000000,47848.000000
17068.000000,6977.000000,8141.000000,47721.000000
17072.000000,6948.000000,7979.000000,47751.000000
16794.000000,6956.000000,8049.000000,47776.000000
16997.000000,6976.000000,7931.000000,47741.000000
16988.000000,6953.000000,7951.000000,47763.000000
17040.000000,6897.000000,7863.000000,47733.000000
16959.000000,6885.000000,7986.000000,47743.000000
16961.000000,6923.000000,7837.000000,47729.000000
16920.000000,6971.000000,7941.000000,47754.000000
17054.000000,6923.000000,7813.000000,47631.000000
17032.000000,6805.000000,7817.000000,47662.000000
16815.000000,6887.000000,7807.000000,47651.000000
16787.000000,6810.000000,7740.000000,47636.000000
16997.000000,6964.000000,7801.000000,47750.000000
16868.000000,6773.000000,7745.000000,47614.000000
16900.000000,6803.000000,7693.000000,47615.000000
16793.000000,6795.000000,7829.000000,47519.000000
16790.000000,6806.000000,7826.000000,47625.000000
16779.000000,6854.000000,7734.000000,47502.000000
16767.000000,6682.000000,7763.000000,47583.000000
16673.000000,6691.000000,7564.000000,47549.000000
16765.000000,6706.000000,7676.000000,47610.000000
16787.000000,6790.000000,7644.000000,47599.000000
16686.000000,6747.000000,7615.000000,47578.000000
16589.000000,6761.000000,7500.000000,47567.000000
16686.000000,6804.000000,7547.000000,47633.000000
16830.000000,6763.000000,7656.000000,47721.000000
16525.000000,6752.000000,7518.000000,47488.000000
16506.000000,6681.000000,7555.000000,47549.000000
16592.000000,6678.000000,7598.000000,47568.000000
16673.000000,6624.000000,7351.000000,47443.000000
16577.000000,6529.000000,7492.000000,47496.000000
16500.000000,6558.000000,7425.000000,47438.000000
16502.000000,6586.000000,7355.000000,47382.000000
16494.000000,6551.000000,7352.000000,47427.000000
16342.000000,6444.000000,7405.000000,47505.000000
16458.000000,6477.000000,7377.000000,47357.000000
16263.000000,6372.000000,7459.000000,47295.000000
16434.000000,6550.000000,7368.000000,47457.000000
16481.000000,6533.000000,7395.000000,47445.000000
16567.000000,6578.000000,7412.000000,47487.000000
16416.000000,6471.000000,7389.000000,47398.000000
16460.000000,6426.000000,7331.000000,47412.000000
16484.000000,6569.000000,7488.000000,47460.000000
16487.000000,6614.000000,7466.000000,47465.000000
16503.000000,6537.000000,7551.000000,47336.000000
16618.000000,6642.000000,7587.000000,47500.000000
16537.000000,6492.000000,7463.000000,47498.000000
16644.000000,6672.000000,7540.000000,47563.000000
16746.000000,6752.000000,7636.000000,47601.000000
16722.000000,6722.000000,7649.000000,47619.000000
16584.000000,6723.000000,7664.000000,47582.000000
16776.000000,6788.000000,7633.000000,47587.000000
16821.000000,6837.000000,7765.000000,47627.000000
16715.000000,6895.000000,7842.000000,47738.000000
16746.000000,6723.000000,7761.000000,47671.000000
16818.000000,6837.000000,7770.000000,47629.000000
16928.000000,6836.000000,7754.000000,47657.000000
16836.000000,6873.000000,7830.000000,47768.000000
16899.000000,6807.000000,7893.000000,47701.000000
17193.000000,6886.000000,8016.000000,47784.000000
17034.000000,6952.000000,8004.000000,47740.000000
17012.000000,6948.000000,7937.000000,47727.000000
16967.000000,6983.000000,7924.000000,47798.000000
17132.000000,6999.000000,8051.000000,47865.000000
17138.000000,7039.000000,8127.000000,47756.000000
17168.000000,7163.000000,8160.000000,47846.000000
17122.000000,7165.000000,8043.000000,47915.000000
17239.000000,7197.000000,8251.000000,47911.000000
17337.000000,7221.000000,8245.000000,47867.000000
17284.000000,7250.000000,8313.000000,47973.000000
17360.000000,7260.000000,8377.000000,48137.000000
17549.000000,7318.000000,8437.000000,47964.000000
17565.000000,7254.000000,8438.000000,48005.000000
17457.000000,7390.000000,8460.000000,48035.000000
17493.000000,7295.000000,8478.000000,48023.000000
17584.000000,7365.000000,8499.000000,48045.000000
17717.000000,7360.000000,8405.000000,48091.000000
17534.000000,7370.000000,8477.000000,48022.000000
17491.000000,7361.000000,8485.000000,48113.000000
17553.000000,7408.000000,8504.000000,47994.000000
17542.000000,7353.000000,8503.000000,48060.000000
17459.000000,7424.000000,8527.000000,48126.000000
17496.000000,7362.000000,8477.000000,47988.000000
17508.000000,7280.000000,8417.000000,48087.000000
17399.000000,7297.000000,8386.000000,48044.000000
17403.000000,7235.000000,8379.000000,47948.000000
17458.000000,7300.000000,8418.000000,48017.000000
17375.000000,7062.000000,8312.000000,47968.000000
17442.000000,7363.000000,8382.000000,47973.000000
17363.000000,7270.000000,8356.000000,47994.000000
17364.000000,7249.000000,8299.000000,47960.000000
17356.000000,7179.000000,8196.000000,48040.000000
17371.000000,7221.000000,8393.000000,47979.000000
17327.000000,7267.000000,8296.000000,47943.000000
17215.000000,7386.000000,8273.000000,47854.000000
17233.000000,7256.000000,8189.000000,47902.000000
17258.000000,7130.000000,8092.000000,47839.000000
17265.000000,7197.000000,8221.000000,47749.000000
17402.000000,7162.000000,8183.000000,47886.000000
17183.000000,7176.000000,8188.000000,47879.000000
17195.000000,7176.000000,8135.000000,47918.000000
17077.000000,7108.000000,8216.000000,47797.000000
17243.000000,7284.000000,8117.000000,47804.000000
17160.000000,7021.000000,8070.000000,47769.000000
17124.000000,7064.000000,8116.000000,47808.000000
17107.000000,7018.000000,8076.000000,47819.000000
17112.000000,7105.000000,7989.000000,47795.000000
17091.000000,6986.000000,7957.000000,47884.000000
17137.000000,7067.000000,8047.000000,47759.000000
17034.000000,6945.000000,8043.000000,47774.000000
16959.000000,6991.000000,8042.000000,47813.000000
17018.000000,6999.000000,8007.000000,47769.000000
17073.000000,7003.000000,8006.000000,47786.000000
17113.000000,6917.000000,8015.000000,47743.000000
17012.000000,6981.000000,7953.000000,47764.000000
16998.000000,6954.000000,7983.000000,47764.000000
16884.000000,7125.000000,7930.000000,47772.000000
16969.000000,6998.000000,7890.000000,47755.000000
16946.000000,6865.000000,7913.000000,47693.000000
16968.000000,6880.000000,7886.000000,47673.000000
16834.000000,6871.000000,7826.000000,47621.000000
16783.000000,6873.000000,7786.000000,47652.000000
16813.000000,6788.000000,7764.000000,47594.000000
16856.000000,6773.000000,7789.000000,47502.000000
16654.000000,6741.000000,7737.000000,47699.000000
16731.000000,6739.000000,7632.000000,47689.000000
16549.000000,6786.000000,7594.000000,47525.000000
16728.000000,6733.000000,7720.000000,47563.000000
16631.000000,6827.000000,7706.000000,47537.000000
16678.000000,6665.000000,7741.000000,47605.000000
16510.000000,6619.000000,7679.000000,47561.000000
16592.000000,6695.000000,7664.000000,47610.000000
16696.000000,6715.000000,7596.000000,47513.000000
16559.000000,6689.000000,7593.000000,47527.000000
16540.000000,6675.000000,7562.000000,47465.000000
16687.000000,6694.000000,7781.000000,47733.000000
16552.000000,6674.000000,7433.000000,47514.000000
16564.000000,6612.000000,7587.000000,47499.000000
16586.000000,6504.000000,7569.000000,47488.000000
16557.000000,6631.000000,7520.000000,47507.000000
16589.000000,6584.000000,7455.000000,47423.000000
16316.000000,6697.000000,7476.000000,47461.000000
16482.000000,6675.000000,7481.000000,47467.000000
16501.000000,6729.000000,7689.000000,47555.000000
16345.000000,6645.000000,7453.000000,47466.000000
16579.000000,6557.000000,7420.000000,47468.000000
16473.000000,6628.000000,7514.000000,47513.000000
16279.000000,6517.000000,7459.000000,47455.000000
16352.000000,6535.000000,7507.000000,47393.000000
16477.000000,6591.000000,7425.000000,47431.000000
16509.000000,6500.000000,7331.000000,47402.000000
16261.000000,6529.000000,7435.000000,47386.000000
16352.000000,6408.000000,7473.000000,47485.000000
16319.000000,6439.000000,7423.000000,47443.000000
16350.000000,6613.000000,7455.000000,47412.000000
16249.000000,6614.000000,7321.000000,47255.000000
16336.000000,6438.000000,7364.000000,47355.000000
16243.000000,6437.000000,7384.000000,47347.000000
16243.000000,6448.000000,7301.000000,47353.000000
16262.000000,6372.000000,7219.000000,47324.000000
16288.000000,6395.000000,7238.000000,47276.000000
16154.000000,6395.000000,7133.000000,47451.000000
16238.000000,6334.000000,7249.000000,47308.000000
16144.000000,6332.000000,7235.000000,47305.000000
16206.000000,6387.000000,7240.000000,47330.000000
16161.000000,6301.000000,7234.000000,47334.000000
16236.000000,6388.000000,7211.000000,47279.000000
16272.000000,6382.000000,7231.000000,47389.000000
16279.000000,6459.000000,7296.000000,47337.000000
16271.000000,6434.000000,7290.000000,47396.000000
16344.000000,6508.000000,7379.000000,47362.000000
16295.000000,6466.000000,7397.000000,47449.000000
16247.000000,6493.000000,7336.000000,47353.000000
16360.000000,6525.000000,7363.000000,47403.000000
16417.000000,6563.000000,7477.000000,47452.000000
16504.000000,6616.000000,7470.000000,47504.000000
16524.000000,6674.000000,7660.000000,47531.000000
16430.000000,6605.000000,7531.000000,47432.000000
16611.000000,6519.000000,7573.000000,47455.000000
16667.000000,6726.000000,7549.000000,47544.000000
16753.000000,6810.000000,7739.000000,47675.000000
16738.000000,6761.000000,7759.000000,47588.000000
16714.000000,6804.000000,7716.000000,47576.000000
16730.000000,6771.000000,7779.000000,47617.000000
16853.000000,6909.000000,7829.000000,47691.000000
16837.000000,6947.000000,7836.000000,47769.000000
16853.000000,6953.000000,7908.000000,47729.000000
16866.000000,7006.000000,7966.000000,47658.000000
17006.000000,6970.000000,8014.000000,47821.000000
17020.000000,6963.000000,8060.000000,47804.000000
16989.000000,6962.000000,8083.000000,47779.000000
17222.000000,7144.000000,8240.000000,47853.000000
17256.000000,7257.000000,8205.000000,47941.000000
17278.000000,7262.000000,8389.000000,47927.000000
17402.000000,7245.000000,8369.000000,47956.000000
17426.000000,7344.000000,8414.000000,47975.000000
17462.000000,7365.000000,8467.000000,48042.000000
17582.000000,7372.000000,8555.000000,48030.000000
17554.000000,7508.000000,8678.000000,48076.000000
17545.000000,7369.000000,8594.000000,48159.000000
17563.000000,7477.000000,8651.000000,48104.000000
17721.000000,7518.000000,8603.000000,48081.000000
17594.000000,7446.000000,8763.000000,47949.000000
17713.000000,7465.000000,8688.000000,48072.000000
17657.000000,7483.000000,8656.000000,48103.000000
17688.000000,7443.000000,8538.000000,48121.000000
17616.000000,7380.000000,8440.000000,48190.000000
17653.000000,7511.000000,8559.000000,48239.000000
17500.000000,7424.000000,8558.000000,48065.000000
17616.000000,7393.000000,8594.000000,48094.000000
17502.000000,7449.000000,8571.000000,48092.000000
17598.000000,7409.000000,8553.000000,48078.000000
17582.000000,7397.000000,8610.000000,48055.000000
17556.000000,7488.000000,8535.000000,48175.000000
17493.000000,7334.000000,8502.000000,48261.000000
17543.000000,7461.000000,8533.000000,48076.000000
17552.000000,7400.000000,8420.000000,47954.000000
17544.000000,7379.000000,8391.000000,48052.000000
17516.000000,7379.000000,8452.000000,48012.000000
17438.000000,7389.000000,8435.000000,48070.000000
17365.000000,7357.000000,8447.000000,48005.000000
17417.000000,7352.000000,8435.000000,47969.000000
17445.000000,7368.000000,8407.000000,48004.000000
17341.000000,7285.000000,8376.000000,48027.000000
17277.000000,7308.000000,8330.000000,47963.000000
17399.000000,7279.000000,8373.000000,47959.000000
17417.000000,7206.000000,8392.000000,47974.000000
17226.000000,7260.000000,8316.000000,47977.000000
17327.000000,7182.000000,8290.000000,47948.000000
17369.000000,7296.000000,8378.000000,47963.000000
17321.000000,7230.000000,8163.000000,48023.000000
17287.000000,7236.000000,8363.000000,47919.000000
17252.000000,7219.000000,8256.000000,47895.000000
17316.000000,7139.000000,8270.000000,47854.000000
17320.000000,7234.000000,8239.000000,47918.000000
17243.000000,7149.000000,8273.000000,47855.000000
17218.000000,7197.000000,8219.000000,47881.000000
17172.000000,7257.000000,8044.000000,47993.000000
17207.000000,7280.000000,8136.000000,47901.000000
17238.000000,7173.000000,8240.000000,47891.000000
17115.000000,7153.000000,8203.000000,47889.000000
17273.000000,7123.000000,8084.000000,47908.000000
17109.000000,7094.000000,8138.000000,47886.000000
17079.000000,7099.000000,8194.000000,47867.000000
17079.000000,7024.000000,8141.000000,47762.000000
17079.000000,7045.000000,8103.000000,47804.000000
17109.000000,7090.000000,8077.000000,47780.000000
17126.000000,7028.000000,8068.000000,47736.000000
17076.000000,6967.000000,8147.000000,47755.000000
16903.000000,7013.000000,7977.000000,47751.000000
16882.000000,6950.000000,8006.000000,47797.000000
16903.000000,6891.000000,7925.000000,47674.000000
16874.000000,6935.000000,7780.000000,47570.000000
16940.000000,6880.000000,7828.000000,47690.000000
16826.000000,6874.000000,7899.000000,47735.000000
16959.000000,6848.000000,7853.000000,47605.000000
16820.000000,6811.000000,7892.000000,47606.000000
16834.000000,6918.000000,7894.000000,47706.000000
16780.000000,6884.000000,7821.000000,47639.000000
16810.000000,6862.000000,7843.000000,47628.000000
16711.000000,6873.000000,7714.000000,47596.000000
16802.000000,6827.000000,7895.000000,47635.000000
16739.000000,6774.000000,7756.000000,47749.000000
16658.000000,6773.000000,7783.000000,47640.000000
16771.000000,6713.000000,7759.000000,47596.000000
16799.000000,6868.000000,7682.000000,47482.000000
16615.000000,6759.000000,7789.000000,47632.000000
16683.000000,6796.000000,7724.000000,47588.000000
16774.000000,6862.000000,7884.000000,47515.000000
16655.000000,6738.000000,7685.000000,47627.000000
16690.000000,6692.000000,7657.000000,47513.000000
16651.000000,6709.000000,7622.000000,47561.000000
16554.000000,6607.000000,7607.000000,47478.000000
16600.000000,6719.000000,7631.000000,47507.000000
16628.000000,6769.000000,7611.000000,47431.000000
16660.000000,6656.000000,7615.000000,47531.000000
16566.000000,6536.000000,7777.000000,47727.000000
16607.000000,6700.000000,7522.000000,47564.000000
16606.000000,6636.000000,7528.000000,47505.000000
16528.000000,6660.000000,7469.000000,47462.000000
16309.000000,6464.000000,7524.000000,47392.000000
16544.000000,6608.000000,7418.000000,47417.000000
16457.000000,6590.000000,7423.000000,47395.000000
16429.000000,6511.000000,7381.000000,47482.000000
16312.000000,6420.000000,7434.000000,47462.000000
16317.000000,6450.000000,7384.000000,47393.000000
16089.000000,6518.000000,7214.000000,47369.000000
16367.000000,6281.000000,7405.000000,47302.000000
16228.000000,6403.000000,7296.000000,47292.000000
16194.000000,6384.000000,7192.000000,47351.000000
16123.000000,6309.000000,7274.000000,47338.000000
16246.000000,6414.000000,7245.000000,47337.000000
16222.000000,6439.000000,7323.000000,47357.000000
16306.000000,6441.000000,7342.000000,47427.000000
16265.000000,6489.000000,7347.000000,47398.000000
16250.000000,6508.000000,7309.000000,47383.000000
16222.000000,6479.000000,7252.000000,47357.000000
16503.000000,6504.000000,7476.000000,47509.000000
16344.000000,6586.000000,7448.000000,47339.000000
16263.000000,6465.000000,7317.000000,47461.000000
16391.000000,6500.000000,7441.000000,47415.000000
16427.000000,6592.000000,7464.000000,47427.000000
16418.000000,6591.000000,7512.000000,47433.000000
16397.000000,6531.000000,7540.000000,47483.000000
16454.000000,6631.000000,7518.000000,47456.000000
16503.000000,6663.000000,7619.000000,47461.000000
16521.000000,6675.000000,7578.000000,47554.000000
16469.000000,6698.000000,7587.000000,47532.000000
16686.000000,6726.000000,7566.000000,47452.000000
16553.000000,6760.000000,7642.000000,47492.000000
16616.000000,6803.000000,7682.000000,47636.000000
16604.000000,6643.000000,7585.000000,47623.000000
16716.000000,6770.000000,7760.000000,47633.000000
16716.000000,6809.000000,7799.000000,47549.000000
16755.000000,6882.000000,7867.000000,47614.000000
16768.000000,6801.000000,7783.000000,47688.000000
16846.000000,6899.000000,7824.000000,47691.000000
16930.000000,6981.000000,7977.000000,47766.000000
16903.000000,6957.000000,7972.000000,47681.000000
16832.000000,7050.000000,7944.000000,47767.000000
16992.000000,6973.000000,8013.000000,47815.000000
17059.000000,7057.000000,8094.000000,47909.000000
17114.000000,7021.000000,8124.000000,47811.000000
16989.000000,7023.000000,8174.000000,47942.000000
17200.000000,7139.000000,8218.000000,47878.000000
17245.000000,7209.000000,8244.000000,47911.000000
17223.000000,7159.000000,8283.000000,47892.000000
17244.000000,7184.000000,8327.000000,47960.000000
17348.000000,7318.000000,8327.000000,47972.000000
17382.000000,7277.000000,8420.000000,48050.000000
17484.000000,7416.000000,8467.000000,48035.000000
17446.000000,7348.000000,8533.000000,48131.000000
17582.000000,7371.000000,8389.000000,48070.000000
17407.000000,7355.000000,8550.000000,48089.000000
17422.000000,7416.000000,8548.000000,48147.000000
17478.000000,7410.000000,8489.000000,48060.000000
17431.000000,7324.000000,8539.000000,48032.000000
17479.000000,7337.000000,8500.000000,47853.000000
17530.000000,7373.000000,8542.000000,48019.000000
17463.000000,7327.000000,8493.000000,48039.000000
17341.000000,7264.000000,8509.000000,48001.000000
17441.000000,7347.000000,8415.000000,48054.000000
17283.000000,7256.000000,8477.000000,48007.000000
17261.000000,7374.000000,8368.000000,48086.000000
17267.000000,7348.000000,8340.000000,47897.000000
17314.000000,7267.000000,8385.000000,47991.000000
17187.000000,7292.000000,8387.000000,47927.000000
17256.000000,7255.000000,8333.000000,47957.000000
17262.000000,7277.000000,8297.000000,47875.000000
17296.000000,7205.000000,8327.000000,47934.000000
17220.000000,7169.000000,8309.000000,47792.000000
17210.000000,7244.000000,8366.000000,47845.000000
17333.000000,7282.000000,8247.000000,47908.000000
17207.000000,7141.000000,8316.000000,47909.000000
17155.000000,7213.000000,8297.000000,47871.000000
17289.000000,7258.000000,8245.000000,47836.000000
17310.000000,7124.000000,8299.000000,47933.000000
17184.000000,7088.000000,8267.000000,47919.000000
17075.000000,7208.000000,8195.000000,47782.000000
17086.000000,7210.000000,8219.000000,47816.000000
17187.000000,7119.000000,8207.000000,47742.000000
17173.000000,7178.000000,8198.000000,47727.000000
17057.000000,6984.000000,8124.000000,47830.000000
17037.000000,7129.000000,8219.000000,47828.000000
17067.000000,7056.000000,8094.000000,47857.000000
17071.000000,7090.000000,8058.000000,47663.000000
17080.000000,7110.000000,8004.000000,47896.000000
17089.000000,6973.000000,8162.000000,47707.000000
16963.000000,6986.000000,8079.000000,47741.000000
17004.000000,7027.000000,8037.000000,47745.000000
16891.000000,6830.000000,8003.000000,47830.000000
16851.000000,7032.000000,7941.000000,47960.000000
16963.000000,7061.000000,7816.000000,47669.000000
16978.000000,6945.000000,8079.000000,47754.000000
16847.000000,7000.000000,8000.000000,47813.000000
16766.000000,6923.000000,7934.000000,47649.000000
16802.000000,6895.000000,7890.000000,47681.000000
16785.000000,6835.000000,7832.000000,47663.000000
16796.000000,6999.000000,7855.000000,47623.000000
16822.000000,6822.000000,7809.000000,47643.000000
16822.000000,6848.000000,7830.000000,47674.000000
16620.000000,6795.000000,7787.000000,47627.000000
16745.000000,6806.000000,7803.000000,47588.000000
16734.000000,6903.000000,7710.000000,47825.000000
16662.000000,6779.000000,7707.000000,47621.000000
16618.000000,6756.000000,7752.000000,47562.000000
16658.000000,6800.000000,7736.000000,47590.000000
16775.000000,6789.000000,7705.000000,47576.000000
16632.000000,6737.000000,7723.000000,47571.000000
16510.000000,6650.000000,7749.000000,47605.000000
16610.000000,6676.000000,7666.000000,47561.000000
16683.000000,6751.000000,7599.000000,47606.000000
16635.000000,6637.000000,7454.000000,47647.000000
16390.000000,6602.000000,7638.000000,47542.000000
16552.000000,6598.000000,7587.000000,47590.000000
16514.000000,6661.000000,7550.000000,47511.000000
16388.000000,6709.000000,7482.000000,47451.000000
16386.000000,6548.000000,7461.000000,47450.000000
16462.000000,6631.000000,7534.000000,47408.000000
16456.000000,6570.000000,7579.000000,47589.000000
16467.000000,6607.000000,7523.000000,47492.000000
16402.000000,6613.000000,7465.000000,47530.000000
16324.000000,6621.000000,7570.000000,47522.000000
16452.000000,6438.000000,7470.000000,47502.000000
16363.000000,6578.000000,7513.000000,47393.000000
16506.000000,6533.000000,7455.000000,47477.000000
16344.000000,6471.000000,7477.000000,47477.000000
16266.000000,6493.000000,7476.000000,47448.000000
16419.000000,6589.000000,7331.000000,47405.000000
16275.000000,6388.000000,7378.000000,47394.000000
16290.000000,6454.000000,7361.000000,47227.000000
16248.000000,6413.000000,7333.000000,47325.000000
16160.000000,6365.000000,7341.000000,47510.000000
16146.000000,6415.000000,7284.000000,47406.000000
16164.000000,6335.000000,7271.000000,47331.000000
16122.000000,6355.000000,7155.000000,47344.000000
15938.000000,6249.000000,7262.000000,47325.000000
16029.000000,6327.000000,7262.000000,47412.000000
16169.000000,6375.000000,7187.000000,47284.000000
16061.000000,6381.000000,7102.000000,47252.000000
15999.000000,6223.000000,7079.000000,47131.000000
16006.000000,6270.000000,7108.000000,47352.000000
16051.000000,6247.000000,7177.000000,47308.000000
16064.000000,6302.000000,7257.000000,47372.000000
15942.000000,6252.000000,7168.000000,47204.000000
16068.000000,6236.000000,7261.000000,47337.000000
16173.000000,6321.000000,7222.000000,47155.000000
16036.000000,6401.000000,7319.000000,47289.000000
16128.000000,6316.000000,7225.000000,47139.000000
16184.000000,6373.000000,7192.000000,47282.000000
16216.000000,6356.000000,7307.000000,47344.000000
16207.000000,6475.000000,7352.000000,47375.000000
16247.000000,6422.000000,7369.000000,47365.000000
16246.000000,6646.000000,7364.000000,47549.000000
16390.000000,6364.000000,7394.000000,47419.000000
16276.000000,6509.000000,7474.000000,47442.000000
16215.000000,6526.000000,7656.000000,47311.000000
16454.000000,6598.000000,7543.000000,47461.000000
16414.000000,6504.000000,7465.000000,47454.000000
16351.000000,6525.000000,7587.000000,47534.000000
16367.000000,6565.000000,7616.000000,47677.000000
16524.000000,6694.000000,7697.000000,47484.000000
16456.000000,6725.000000,7726.000000,47490.000000
16527.000000,6719.000000,7778.000000,47569.000000
16404.000000,6641.000000,7756.000000,47575.000000
16669.000000,6746.000000,7727.000000,47558.000000
16695.000000,6862.000000,7748.000000,47508.000000
16653.000000,6901.000000,7843.000000,47669.000000
16764.000000,6815.000000,7816.000000,47599.000000
16829.000000,6731.000000,8057.000000,47563.000000
16735.000000,6966.000000,7994.000000,47730.000000
16776.000000,6914.000000,7990.000000,47712.000000
16847.000000,6887.000000,8031.000000,47720.000000
16995.000000,7046.000000,8028.000000,47747.000000
16982.000000,7082.000000,8192.000000,47781.000000
16840.000000,7069.000000,8160.000000,47811.000000
17208.000000,7147.000000,8405.000000,47932.000000
17151.000000,7123.000000,8614.000000,47940.000000
17358.000000,7310.000000,8651.000000,47995.000000
17390.000000,7269.000000,8540.000000,48014.000000
17331.000000,7349.000000,8668.000000,47853.000000
17307.000000,7321.000000,8578.000000,47942.000000
17504.000000,7380.000000,8620.000000,48114.000000
17522.000000,7422.000000,8583.000000,47999.000000
17558.000000,7461.000000,8705.000000,48103.000000
17486.000000,7266.000000,8598.000000,48267.000000
17542.000000,7372.000000,8680.000000,48093.000000
17362.000000,7290.000000,8644.000000,48053.000000
17494.000000,7433.000000,8651.000000,48039.000000
17362.000000,7396.000000,8626.000000,47900.000000
17405.000000,7395.000000,8576.000000,48086.000000
17327.000000,7348.000000,8672.000000,48035.000000
17423.000000,7298.000000,8638.000000,48087.000000
17433.000000,7264.000000,8599.000000,48026.000000
17428.000000,7312.000000,8461.000000,48053.000000
17315.000000,7329.000000,8522.000000,48033.000000
17371.000000,7332.000000,8377.000000,48050.000000
17424.000000,7347.000000,8590.000000,48018.000000
17344.000000,7189.000000,8573.000000,47953.000000
17259.000000,7178.000000,8532.000000,47929.000000
17388.000000,7252.000000,8422.000000,47995.000000
17231.000000,7062.000000,8330.000000,47795.000000
17275.000000,7208.000000,8340.000000,47930.000000
17246.000000,7179.000000,8408.000000,47860.000000
17121.000000,7229.000000,8431.000000,47838.000000
17159.000000,7053.000000,8213.000000,47997.000000
17239.000000,7151.000000,8312.000000,47901.000000
17130.000000,7111.000000,8284.000000,48100.000000
17152.000000,6963.000000,8340.000000,47844.000000
17124.000000,7157.000000,8325.000000,47937.000000
16980.000000,7074.000000,8276.000000,47853.000000
17193.000000,7116.000000,8245.000000,47748.000000
17027.000000,7107.000000,8291.000000,47945.000000
17091.000000,7076.000000,8378.000000,47912.000000
16943.000000,7046.000000,8189.000000,47812.000000
17023.000000,7048.000000,8331.000000,47767.000000
16835.000000,7117.000000,8259.000000,47714.000000
16995.000000,7074.000000,8211.000000,47704.000000
16881.000000,6909.000000,8180.000000,47787.000000
16973.000000,7012.000000,8201.000000,47717.000000
16997.000000,6940.000000,8208.000000,47748.000000
16919.000000,6944.000000,8179.000000,47798.000000
16841.000000,6954.000000,8096.000000,47697.000000
16886.000000,6976.000000,7986.000000,47747.000000
16917.000000,6951.000000,8146.000000,47745.000000
16902.000000,6870.000000,8101.000000,47790.000000
16777.000000,6801.000000,8066.000000,47733.000000
16792.000000,6931.000000,7993.000000,47712.000000
16747.000000,6840.000000,8049.000000,47740.000000
16872.000000,6856.000000,7919.000000,47729.000000
16737.000000,6773.000000,7998.000000,47660.000000
16721.000000,6851.000000,7978.000000,47659.000000
16611.000000,6789.000000,7829.000000,47580.000000
16735.000000,6764.000000,7792.000000,47662.000000
16764.000000,6805.000000,7875.000000,47642.000000
16674.000000,6722.000000,7836.000000,47639.000000
16601.000000,6690.000000,7809.000000,47600.000000
16649.000000,6716.000000,7846.000000,47612.000000
16555.000000,6741.000000,7773.000000,47509.000000
16489.000000,6606.000000,7726.000000,47505.000000
16529.000000,6595.000000,7591.000000,47501.000000
16583.000000,6670.000000,7790.000000,47537.000000
16454.000000,6566.000000,7711.000000,47577.000000
16560.000000,6608.000000,7759.000000,47628.000000
16460.000000,6649.000000,7736.000000,47568.000000
16391.000000,6565.000000,7648.000000,47518.000000
16453.000000,6565.000000,7679.000000,47585.000000
16419.000000,6621.000000,7685.000000,47523.000000
16436.000000,6604.000000,7673.000000,47577.000000
16388.000000,6605.000000,7642.000000,47490.000000
16405.000000,6578.000000,7669.000000,47497.000000
16302.000000,6742.000000,7467.000000,47553.000000
16423.000000,6583.000000,7622.000000,47498.000000
16387.000000,6554.000000,7651.000000,47414.000000
16405.000000,6583.000000,7544.000000,47374.000000
16444.000000,6539.000000,7935.000000,47637.000000
16390.000000,6575.000000,7589.000000,47448.000000
16306.000000,6450.000000,7574.000000,47475.000000
16385.000000,6509.000000,7581.000000,47430.000000
16214.000000,6484.000000,7493.000000,47402.000000
16350.000000,6464.000000,7603.000000,47456.000000
16174.000000,6369.000000,7591.000000,47352.000000
16427.000000,6483.000000,7532.000000,47438.000000
16242.000000,6534.000000,7563.000000,47595.000000
16132.000000,6437.000000,7575.000000,47413.000000
16104.000000,6316.000000,7516.000000,47410.000000
16261.000000,6316.000000,7528.000000,47356.000000
16158.000000,6369.000000,7434.000000,47332.000000
16210.000000,6410.000000,7449.000000,47367.000000
16203.000000,6330.000000,7421.000000,47325.000000
16118.000000,6402.000000,7369.000000,47406.000000
16116.000000,6359.000000,7401.000000,47385.000000
16123.000000,6372.000000,7392.000000,47339.000000
16104.000000,6363.000000,7301.000000,47378.000000
16110.000000,6326.000000,7430.000000,47376.000000
16107.000000,6379.000000,7530.000000,47395.000000
16204.000000,6395.000000,7492.000000,47396.000000
16353.000000,6426.000000,7531.000000,47390.000000
16239.000000,6447.000000,7460.000000,47342.000000
16383.000000,6432.000000,7509.000000,47426.000000
16336.000000,6457.000000,7548.000000,47536.000000
16349.000000,6450.000000,7643.000000,47497.000000
16318.000000,6598.000000,7670.000000,47403.000000
16218.000000,6500.000000,7630.000000,47449.000000
16457.000000,6596.000000,7662.000000,47511.000000
16527.000000,6569.000000,7835.000000,47440.000000
16529.000000,6718.000000,7674.000000,47574.000000
16541.000000,6644.000000,7865.000000,47597.000000
16476.000000,6600.000000,7854.000000,47610.000000
16513.000000,6669.000000,7843.000000,47553.000000
16646.000000,6716.000000,7865.000000,47602.000000
16679.000000,6718.000000,7976.000000,47661.000000
16572.000000,6758.000000,8240.000000,47637.000000
16669.000000,6728.000000,7970.000000,47771.000000
16877.000000,6833.000000,7997.000000,47710.000000
16807.000000,6874.000000,8098.000000,47740.000000
16744.000000,6842.000000,7894.000000,47614.000000
16815.000000,6849.000000,8110.000000,47792.000000
16850.000000,6833.000000,8060.000000,47923.000000
16901.000000,6965.000000,8201.000000,47817.000000
16847.000000,6970.000000,8282.000000,47850.000000
16968.000000,6990.000000,8340.000000,47854.000000
17078.000000,6977.000000,8232.000000,47896.000000
17204.000000,7145.000000,8359.000000,47944.000000
17185.000000,7068.000000,8476.000000,47966.000000
17325.000000,7076.000000,8570.000000,47966.000000
17341.000000,7244.000000,8633.000000,48130.000000
17520.000000,7361.000000,8577.000000,47997.000000
17455.000000,7293.000000,8798.000000,48189.000000
17636.000000,7393.000000,8844.000000,48093.000000
17409.000000,7336.000000,8713.000000,48221.000000
17593.000000,7424.000000,8799.000000,48146.000000
17502.000000,7415.000000,8764.000000,48094.000000
17508.000000,7396.000000,8767.000000,48235.000000
17417.000000,7336.000000,8741.000000,48016.000000
17582.000000,7348.000000,8759.000000,48177.000000
17454.000000,7443.000000,8676.000000,48167.000000
17402.000000,7397.000000,8748.000000,48179.000000
17544.000000,7274.000000,8736.000000,48178.000000
17419.000000,7389.000000,8723.000000,48103.000000
17434.000000,7275.000000,8638.000000,48041.000000
17437.000000,7248.000000,8699.000000,48102.000000
17407.000000,7220.000000,8614.000000,48134.000000
17371.000000,7407.000000,8751.000000,48034.000000
17446.000000,7215.000000,8621.000000,48112.000000
17380.000000,7263.000000,8648.000000,48051.000000
17278.000000,7242.000000,8606.000000,48022.000000
17207.000000,7135.000000,8557.000000,47985.000000
17217.000000,7238.000000,8540.000000,47984.000000
