660nm,730nm,850nm,940nm
9291.000000,18444.000000,15210.000000,50398.000000
9288.000000,18408.000000,15187.000000,50408.000000
9269.000000,18399.000000,15214.000000,50372.000000
9348.000000,18466.000000,15215.000000,50372.000000
9300.000000,18427.000000,15205.000000,50369.000000
9284.000000,18452.000000,15186.000000,50377.000000
9299.000000,18451.000000,15167.000000,50358.000000
9293.000000,18382.000000,15147.000000,50374.000000
9239.000000,18413.000000,15179.000000,50385.000000
9278.000000,18392.000000,15147.000000,50347.000000
9232.000000,18378.000000,15140.000000,50361.000000
9196.000000,18383.000000,15143.000000,50315.000000
9245.000000,18364.000000,15166.000000,50327.000000
9206.000000,18362.000000,15092.000000,50330.000000
9178.000000,18376.000000,15074.000000,50311.000000
9226.000000,18372.000000,15093.000000,50315.000000
9145.000000,18335.000000,15128.000000,50290.000000
9143.000000,18362.000000,15090.000000,50317.000000
9130.000000,18339.000000,15060.000000,50322.000000
9096.000000,18313.000000,15022.000000,50312.000000
9091.000000,18315.000000,14991.000000,50243.000000
9129.000000,18303.000000,15012.000000,50278.000000
9092.000000,18310.000000,14980.000000,50237.000000
9070.000000,18285.000000,14977.000000,50223.000000
9077.000000,18235.000000,14951.000000,50237.000000
9061.000000,18271.000000,14960.000000,50234.000000
9045.000000,18278.000000,14966.000000,50239.000000
9070.000000,18227.000000,14997.000000,50252.000000
9000.000000,18259.000000,14938.000000,50241.000000
9095.000000,18249.000000,14942.000000,50218.000000
9041.000000,18276.000000,14892.000000,50235.000000
8994.000000,18239.000000,14888.000000,50201.000000
9019.000000,18224.000000,14906.000000,50209.000000
9039.000000,18253.000000,14868.000000,50213.000000
8976.000000,18217.000000,14872.000000,50209.000000
9009.000000,18218.000000,14908.000000,50207.000000
8986.000000,18202.000000,14840.000000,50169.000000
8991.000000,18254.000000,14867.000000,50188.000000
9000.000000,18232.000000,14872.000000,50168.000000
8906.000000,18173.000000,14809.000000,50149.000000
8936.000000,18240.000000,14801.000000,50160.000000
8956.000000,18184.000000,14843.000000,50179.000000
8912.000000,18182.000000,14800.000000,50169.000000
8915.000000,18181.000000,14802.000000,50160.000000
8909.000000,18164.000000,14822.000000,50151.000000
8911.000000,18217.000000,14814.000000,50178.000000
8886.000000,18172.000000,14804.000000,50123.000000
8885.000000,18160.000000,14781.000000,50135.000000
8868.000000,18144.000000,14793.000000,50158.000000
8865.000000,18111.000000,14758.000000,50122.000000
8867.000000,18142.000000,14782.000000,50174.000000
8849.000000,18119.000000,14738.000000,50092.000000
8841.000000,18128.000000,14722.000000,50097.000000
8820.000000,18129.000000,14755.000000,50123.000000
8813.000000,18115.000000,14699.000000,50108.000000
8814.000000,18126.000000,14727.000000,50082.000000
8811.000000,18103.000000,14702.000000,50116.000000
8810.000000,18071.000000,14616.000000,50087.000000
8784.000000,18085.000000,14672.000000,50094.000000
8775.000000,18112.000000,14662.000000,50128.000000
8762.000000,18049.000000,14626.000000,50057.000000
8693.000000,18054.000000,14662.000000,50076.000000
8734.000000,18021.000000,14635.000000,50047.000000
8757.000000,18047.000000,14607.000000,50031.000000
8724.000000,18054.000000,14597.000000,50026.000000
8693.000000,18032.000000,14565.000000,50042.000000
8748.000000,18045.000000,14546.000000,50014.000000
8673.000000,18040.000000,14571.000000,50049.000000
8689.000000,18013.000000,14558.000000,49969.000000
8655.000000,17971.000000,14558.000000,49962.000000
8633.000000,17972.000000,14562.000000,50031.000000
8667.000000,18039.000000,14552.000000,50015.000000
8652.000000,18008.000000,14514.000000,50040.000000
8670.000000,17994.000000,14511.000000,50015.000000
8692.000000,17984.000000,14515.000000,49979.000000
8650.000000,17965.000000,14485.000000,49994.000000
8585.000000,17963.000000,14475.000000,49972.000000
8615.000000,17972.000000,14492.000000,49987.000000
8629.000000,17923.000000,14499.000000,49941.000000
8583.000000,17970.000000,14472.000000,49993.000000
8577.000000,17943.000000,14460.000000,49935.000000
8616.000000,17946.000000,14469.000000,49950.000000
8587.000000,17952.000000,14429.000000,49909.000000
8489.000000,17945.000000,14430.000000,49938.000000
8536.000000,17911.000000,14427.000000,49906.000000
8517.000000,17905.000000,14427.000000,49909.000000
8492.000000,17889.000000,14375.000000,49866.000000
8492.000000,17914.000000,14396.000000,49942.000000
8520.000000,17913.000000,14401.000000,49928.000000
8496.000000,17874.000000,14331.000000,49893.000000
8485.000000,17887.000000,14357.000000,49933.000000
8470.000000,17888.000000,14335.000000,49858.000000
8447.000000,17890.000000,14396.000000,49888.000000
8439.000000,17898.000000,14301.000000,49881.000000
8459.000000,17841.000000,14337.000000,49898.000000
8443.000000,17891.000000,14331.000000,49888.000000
8406.000000,17820.000000,14322.000000,49861.000000
8415.000000,17824.000000,14314.000000,49877.000000
8422.000000,17839.000000,14293.000000,49886.000000
8376.000000,17852.000000,14284.000000,49825.000000
8426.000000,17858.000000,14291.000000,49916.000000
8405.000000,17816.000000,14276.000000,49874.000000
8381.000000,17813.000000,14270.000000,49837.000000
8377.000000,17806.000000,14245.000000,49835.000000
8403.000000,17815.000000,14277.000000,49869.000000
8370.000000,17791.000000,14268.000000,49816.000000
8386.000000,17798.000000,14259.000000,49804.000000
8369.000000,17755.000000,14250.000000,49822.000000
8340.000000,17794.000000,14224.000000,49856.000000
8322.000000,17765.000000,14231.000000,49802.000000
8368.000000,17757.000000,14215.000000,49823.000000
8300.000000,17783.000000,14207.000000,49822.000000
8319.000000,17795.000000,14231.000000,49820.000000
8268.000000,17777.000000,14221.000000,49809.000000
8298.000000,17784.000000,14173.000000,49767.000000
8265.000000,17768.000000,14190.000000,49780.000000
8292.000000,17754.000000,14194.000000,49752.000000
8299.000000,17689.000000,14118.000000,49783.000000
8281.000000,17774.000000,14168.000000,49779.000000
8294.000000,17772.000000,14179.000000,49783.000000
8257.000000,17735.000000,14180.000000,49792.000000
8280.000000,17701.000000,14181.000000,49799.000000
8286.000000,17739.000000,14173.000000,49772.000000
8254.000000,17736.000000,14145.000000,49755.000000
8250.000000,17722.000000,14108.000000,49742.000000
8265.000000,17725.000000,14168.000000,49756.000000
8264.000000,17769.000000,14147.000000,49822.000000
8245.000000,17743.000000,14148.000000,49794.000000
8262.000000,17735.000000,14144.000000,49774.000000
8271.000000,17701.000000,14132.000000,49785.000000
8243.000000,17719.000000,14158.000000,49781.000000
8279.000000,17736.000000,14164.000000,49754.000000
8265.000000,17703.000000,14167.000000,49710.000000
8281.000000,17717.000000,14144.000000,49793.000000
8238.000000,17717.000000,14115.000000,49823.000000
8248.000000,17703.000000,14113.000000,49780.000000
8237.000000,17679.000000,14119.000000,49768.000000
8237.000000,17728.000000,14081.000000,49760.000000
8224.000000,17720.000000,14083.000000,49750.000000
8238.000000,17716.000000,14130.000000,49756.000000
8215.000000,17683.000000,14109.000000,49728.000000
8330.000000,17694.000000,14078.000000,49755.000000
8184.000000,17709.000000,14105.000000,49754.000000
8182.000000,17694.000000,14115.000000,49764.000000
8216.000000,17700.000000,14095.000000,49771.000000
8230.000000,17638.000000,14070.000000,49758.000000
8184.000000,17676.000000,14136.000000,49753.000000
8198.000000,17679.000000,14095.000000,49727.000000
8191.000000,17687.000000,14064.000000,49728.000000
8188.000000,17670.000000,14102.000000,49763.000000
8216.000000,17662.000000,14095.000000,49736.000000
8171.000000,17714.000000,14107.000000,49750.000000
8131.000000,17743.000000,14083.000000,49750.000000
8224.000000,17742.000000,14110.000000,49770.000000
8231.000000,17753.000000,14133.000000,49782.000000
8253.000000,17684.000000,14132.000000,49750.000000
8265.000000,17706.000000,14164.000000,49810.000000
8277.000000,17743.000000,14184.000000,49798.000000
8286.000000,17688.000000,14177.000000,49804.000000
8299.000000,17774.000000,14200.000000,49850.000000
8306.000000,17769.000000,14184.000000,49900.000000
8328.000000,17751.000000,14212.000000,49829.000000
8307.000000,17786.000000,14204.000000,49869.000000
8388.000000,17796.000000,14262.000000,49843.000000
8410.000000,17821.000000,14269.000000,49862.000000
8415.000000,17807.000000,14286.000000,49868.000000
8428.000000,17833.000000,14342.000000,49891.000000
8462.000000,17878.000000,14395.000000,49828.000000
8441.000000,17831.000000,14301.000000,49882.000000
8461.000000,17891.000000,14377.000000,49926.000000
8494.000000,17862.000000,14380.000000,49911.000000
8531.000000,17857.000000,14370.000000,49949.000000
8509.000000,17897.000000,14460.000000,49948.000000
8562.000000,17911.000000,14456.000000,49958.000000
8605.000000,17930.000000,14469.000000,49960.000000
8624.000000,17957.000000,14497.000000,49990.000000
8613.000000,17961.000000,14504.000000,50021.000000
8658.000000,17989.000000,14533.000000,50017.000000
8685.000000,17966.000000,14542.000000,50016.000000
8682.000000,18022.000000,14586.000000,50058.000000
8720.000000,18070.000000,14618.000000,50056.000000
8729.000000,18052.000000,14626.000000,50075.000000
8780.000000,18046.000000,14648.000000,50095.000000
8815.000000,18018.000000,14691.000000,50120.000000
8801.000000,18101.000000,14709.000000,50161.000000
8865.000000,18123.000000,14733.000000,50159.000000
8945.000000,18155.000000,14827.000000,50148.000000
8934.000000,18186.000000,14825.000000,50166.000000
8935.000000,18212.000000,14850.000000,50213.000000
9047.000000,18278.000000,14866.000000,50225.000000
9116.000000,18293.000000,14947.000000,50249.000000
9128.000000,18324.000000,14977.000000,50253.000000
9162.000000,18334.000000,15031.000000,50296.000000
9228.000000,18380.000000,15081.000000,50313.000000
9221.000000,18403.000000,15105.000000,50338.000000
9266.000000,18471.000000,15136.000000,50360.000000
9317.000000,18433.000000,15231.000000,50378.000000
9374.000000,18427.000000,15201.000000,50396.000000
9394.000000,18478.000000,15239.000000,50418.000000
9337.000000,18456.000000,15274.000000,50418.000000
9389.000000,18478.000000,15225.000000,50405.000000
9416.000000,18460.000000,15272.000000,50442.000000
9445.000000,18539.000000,15266.000000,50432.000000
9385.000000,18446.000000,15250.000000,50413.000000
9445.000000,18500.000000,15279.000000,50442.000000
9415.000000,18526.000000,15222.000000,50399.000000
9395.000000,18578.000000,15270.000000,50403.000000
9385.000000,18510.000000,15231.000000,50431.000000
9405.000000,18529.000000,15261.000000,50412.000000
9352.000000,18441.000000,15207.000000,50406.000000
9357.000000,18435.000000,15188.000000,50412.000000
9325.000000,18440.000000,15212.000000,50406.000000
9291.000000,18407.000000,15135.000000,50369.000000
9333.000000,18427.000000,15162.000000,50373.000000
9289.000000,18420.000000,15196.000000,50381.000000
9284.000000,18415.000000,15119.000000,50375.000000
9307.000000,18436.000000,15119.000000,50352.000000
9265.000000,18446.000000,15140.000000,50385.000000
9256.000000,18363.000000,15078.000000,50306.000000
9225.000000,18404.000000,15075.000000,50323.000000
9252.000000,18410.000000,15100.000000,50314.000000
9280.000000,18366.000000,15069.000000,50341.000000
9220.000000,18383.000000,15079.000000,50323.000000
9255.000000,18337.000000,15065.000000,50299.000000
9184.000000,18354.000000,15048.000000,50302.000000
9212.000000,18393.000000,15000.000000,50299.000000
9205.000000,18335.000000,15002.000000,50310.000000
9189.000000,18363.000000,14982.000000,50299.000000
9161.000000,18333.000000,14968.000000,50306.000000
9126.000000,18327.000000,15004.000000,50257.000000
9142.000000,18339.000000,14963.000000,50293.000000
9161.000000,18291.000000,14979.000000,50249.000000
9160.000000,18313.000000,14983.000000,50261.000000
9142.000000,18302.000000,14977.000000,50269.000000
9060.000000,18287.000000,14956.000000,50218.000000
9053.000000,18309.000000,14959.000000,50232.000000
9142.000000,18285.000000,14891.000000,50247.000000
9078.000000,18263.000000,14908.000000,50215.000000
9025.000000,18277.000000,14940.000000,50264.000000
9059.000000,18261.000000,14884.000000,50221.000000
9042.000000,18227.000000,14904.000000,50184.000000
9079.000000,18263.000000,14891.000000,50177.000000
9051.000000,18244.000000,14874.000000,50213.000000
9006.000000,18228.000000,14832.000000,50192.000000
8992.000000,18243.000000,14864.000000,50186.000000
9010.000000,18203.000000,14864.000000,50186.000000
9028.000000,18250.000000,14835.000000,50168.000000
8938.000000,18211.000000,14818.000000,50179.000000
8999.000000,18240.000000,14814.000000,50188.000000
9003.000000,18196.000000,14792.000000,50145.000000
8939.000000,18196.000000,14796.000000,50156.000000
8945.000000,18187.000000,14758.000000,50099.000000
8936.000000,18205.000000,14751.000000,50146.000000
8990.000000,18181.000000,14726.000000,50124.000000
8900.000000,18179.000000,14787.000000,50160.000000
8909.000000,18182.000000,14782.000000,50101.000000
8893.000000,18153.000000,14730.000000,50083.000000
8872.000000,18183.000000,14742.000000,50115.000000
8892.000000,18138.000000,14723.000000,50092.000000
8886.000000,18167.000000,14717.000000,50101.000000
8842.000000,18146.000000,14687.000000,50116.000000
8846.000000,18156.000000,14696.000000,50118.000000
8831.000000,18110.000000,14632.000000,50075.000000
8823.000000,18141.000000,14683.000000,50076.000000
8831.000000,18101.000000,14679.000000,50080.000000
8851.000000,18098.000000,14648.000000,50057.000000
8805.000000,18098.000000,14673.000000,50081.000000
8811.000000,18094.000000,14639.000000,50068.000000
8813.000000,18077.000000,14655.000000,50044.000000
8792.000000,18066.000000,14644.000000,50059.000000
8754.000000,18095.000000,14628.000000,50104.000000
8733.000000,18083.000000,14605.000000,50050.000000
8752.000000,18091.000000,14616.000000,50065.000000
8745.000000,18059.000000,14568.000000,50030.000000
8720.000000,18061.000000,14585.000000,50009.000000
8710.000000,18043.000000,14545.000000,49997.000000
8706.000000,18028.000000,14577.000000,49990.000000
8715.000000,18330.000000,14542.000000,49981.000000
8671.000000,18035.000000,14515.000000,49974.000000
8673.000000,18043.000000,14531.000000,49994.000000
8668.000000,18024.000000,14507.000000,49989.000000
8714.000000,17955.000000,14497.000000,50037.000000
8698.000000,18006.000000,14509.000000,49985.000000
8651.000000,18028.000000,14468.000000,49992.000000
8624.000000,17971.000000,14497.000000,49995.000000
8649.000000,17969.000000,14501.000000,49962.000000
8636.000000,17979.000000,14501.000000,49972.000000
8656.000000,17971.000000,14492.000000,49984.000000
8630.000000,17962.000000,14466.000000,49953.000000
8579.000000,17973.000000,14445.000000,49938.000000
8614.000000,17973.000000,14463.000000,49973.000000
8615.000000,17926.000000,14410.000000,49948.000000
8566.000000,17929.000000,14425.000000,49952.000000
8574.000000,17999.000000,14409.000000,49941.000000
8594.000000,17954.000000,14384.000000,49903.000000
8594.000000,18176.000000,14419.000000,49939.000000
8557.000000,17953.000000,14389.000000,49921.000000
8561.000000,17930.000000,14390.000000,49938.000000
8573.000000,17922.000000,14396.000000,49887.000000
8547.000000,17892.000000,14370.000000,49908.000000
8532.000000,17885.000000,14319.000000,49916.000000
8529.000000,17938.000000,14358.000000,49896.000000
8475.000000,17880.000000,14329.000000,49895.000000
8516.000000,17887.000000,14344.000000,49897.000000
8495.000000,17869.000000,14313.000000,49878.000000
8506.000000,17865.000000,14371.000000,49874.000000
8424.000000,17900.000000,14334.000000,49890.000000
8508.000000,17869.000000,14302.000000,49883.000000
8493.000000,17870.000000,14339.000000,49855.000000
8478.000000,17852.000000,14289.000000,49875.000000
8454.000000,17887.000000,14301.000000,49845.000000
8441.000000,17880.000000,14297.000000,49872.000000
8481.000000,17826.000000,14301.000000,49828.000000
8442.000000,17832.000000,14233.000000,49845.000000
8457.000000,17870.000000,14266.000000,49831.000000
8442.000000,17835.000000,14242.000000,49823.000000
8407.000000,17848.000000,14240.000000,49837.000000
8437.000000,17837.000000,14267.000000,49899.000000
8426.000000,17817.000000,14227.000000,49863.000000
8460.000000,17845.000000,14246.000000,49829.000000
8410.000000,17842.000000,14241.000000,49809.000000
8395.000000,17811.000000,14248.000000,49840.000000
8404.000000,17840.000000,14257.000000,49841.000000
8412.000000,17840.000000,14218.000000,49833.000000
8403.000000,17798.000000,14306.000000,49856.000000
8397.000000,17838.000000,14222.000000,49812.000000
8366.000000,17803.000000,14178.000000,49824.000000
8418.000000,17841.000000,14231.000000,49842.000000
8417.000000,17812.000000,14244.000000,49846.000000
8407.000000,17794.000000,14211.000000,49843.000000
8383.000000,17796.000000,14217.000000,49835.000000
8437.000000,17832.000000,14244.000000,49820.000000
8441.000000,17844.000000,14209.000000,49835.000000
8373.000000,17804.000000,14233.000000,49799.000000
8387.000000,17805.000000,14231.000000,49838.000000
8450.000000,17835.000000,14249.000000,49818.000000
8365.000000,17832.000000,14230.000000,49802.000000
8388.000000,17843.000000,14264.000000,49812.000000
8407.000000,17873.000000,14207.000000,49831.000000
8388.000000,17788.000000,14214.000000,49809.000000
8365.000000,17807.000000,14229.000000,49816.000000
8368.000000,17775.000000,14227.000000,49788.000000
8356.000000,17824.000000,14205.000000,49785.000000
8352.000000,17765.000000,14201.000000,49811.000000
8354.000000,17791.000000,14219.000000,49838.000000
8380.000000,17810.000000,14186.000000,49788.000000
8375.000000,17780.000000,14172.000000,49767.000000
8326.000000,17747.000000,14173.000000,49792.000000
8343.000000,17756.000000,14159.000000,49767.000000
8364.000000,17748.000000,14197.000000,49783.000000
8364.000000,17794.000000,14184.000000,49768.000000
8405.000000,17791.000000,14188.000000,49821.000000
8286.000000,17769.000000,14205.000000,49828.000000
8364.000000,17833.000000,14177.000000,49804.000000
8371.000000,17772.000000,14205.000000,49851.000000
8391.000000,17780.000000,14220.000000,49846.000000
8370.000000,17761.000000,14252.000000,49842.000000
8419.000000,17810.000000,14206.000000,49863.000000
8448.000000,17814.000000,14267.000000,49897.000000
8452.000000,17830.000000,14255.000000,49869.000000
8469.000000,17805.000000,14291.000000,49865.000000
8464.000000,17863.000000,14316.000000,49919.000000
8464.000000,17833.000000,14329.000000,49922.000000
8509.000000,17851.000000,14365.000000,49899.000000
8512.000000,17899.000000,14381.000000,49937.000000
8548.000000,17893.000000,14361.000000,49911.000000
8561.000000,17886.000000,14395.000000,49950.000000
8601.000000,17980.000000,14387.000000,49972.000000
8645.000000,17945.000000,14446.000000,49992.000000
8636.000000,17937.000000,14472.000000,49995.000000
8671.000000,18008.000000,14526.000000,50012.000000
8643.000000,17962.000000,14493.000000,50007.000000
8690.000000,18000.000000,14540.000000,50025.000000
8717.000000,18040.000000,14543.000000,50046.000000
8743.000000,18017.000000,14587.000000,50081.000000
8740.000000,18043.000000,14586.000000,50114.000000
8820.000000,18069.000000,14603.000000,50081.000000
8789.000000,18068.000000,14612.000000,50077.000000
8824.000000,18057.000000,14625.000000,50138.000000
8869.000000,18065.000000,14703.000000,50116.000000
8874.000000,18074.000000,14659.000000,50096.000000
8894.000000,18101.000000,14771.000000,50151.000000
8876.000000,18135.000000,14765.000000,50173.000000
8960.000000,18166.000000,14803.000000,50175.000000
9033.000000,18211.000000,14857.000000,50190.000000
8970.000000,18219.000000,14829.000000,50153.000000
9014.000000,18219.000000,14900.000000,50249.000000
9033.000000,18261.000000,14943.000000,50217.000000
9084.000000,18260.000000,14942.000000,50248.000000
9105.000000,18266.000000,14995.000000,50275.000000
9194.000000,18322.000000,15001.000000,50343.000000
9218.000000,18353.000000,15024.000000,50343.000000
9277.000000,18416.000000,15068.000000,50366.000000
9279.000000,18442.000000,15134.000000,50375.000000
9340.000000,18465.000000,15179.000000,50398.000000
9431.000000,18472.000000,15177.000000,50388.000000
9419.000000,18539.000000,15246.000000,50472.000000
9475.000000,18525.000000,15310.000000,50409.000000
9540.000000,18550.000000,15314.000000,50445.000000
9583.000000,18591.000000,15400.000000,50528.000000
9604.000000,18640.000000,15376.000000,50481.000000
9614.000000,18601.000000,15415.000000,50544.000000
9595.000000,18626.000000,15394.000000,50512.000000
9599.000000,18619.000000,15429.000000,50548.000000
9599.000000,18674.000000,15450.000000,50530.000000
9635.000000,18655.000000,15389.000000,50552.000000
9629.000000,18642.000000,15410.000000,50502.000000
9580.000000,18619.000000,15410.000000,50549.000000
9590.000000,18639.000000,15405.000000,50537.000000
9606.000000,18641.000000,15406.000000,50554.000000
9594.000000,18584.000000,15424.000000,50511.000000
9583.000000,18607.000000,15353.000000,50497.000000
9531.000000,18597.000000,15413.000000,50508.000000
9549.000000,18591.000000,15345.000000,50487.000000
9534.000000,18571.000000,15375.000000,50498.000000
9489.000000,18562.000000,15291.000000,50443.000000
9489.000000,18543.000000,15330.000000,50470.000000
9528.000000,18577.000000,15335.000000,50517.000000
9513.000000,18534.000000,15312.000000,50439.000000
9442.000000,18529.000000,15306.000000,50456.000000
9461.000000,18529.000000,15297.000000,50436.000000
9495.000000,18544.000000,15243.000000,50419.000000
9413.000000,18514.000000,15279.000000,50447.000000
9390.000000,18506.000000,15233.000000,50441.000000
9414.000000,18514.000000,15220.000000,50426.000000
9435.000000,18519.000000,15195.000000,50431.000000
9406.000000,18509.000000,15204.000000,50418.000000
9414.000000,18475.000000,15158.000000,50391.000000
9418.000000,18473.000000,15168.000000,50409.000000
9368.000000,18460.000000,15175.000000,50391.000000
9387.000000,18480.000000,15168.000000,50373.000000
9391.000000,18468.000000,15207.000000,50406.000000
9338.000000,18447.000000,15195.000000,50340.000000
9298.000000,18462.000000,15127.000000,50375.000000
9294.000000,18428.000000,15048.000000,50334.000000
9301.000000,18457.000000,15099.000000,50382.000000
9307.000000,18451.000000,15087.000000,50340.000000
9300.000000,18462.000000,15129.000000,50332.000000
9280.000000,18403.000000,15045.000000,50313.000000
9280.000000,18488.000000,15079.000000,50306.000000
9292.000000,18450.000000,15057.000000,50326.000000
9233.000000,18386.000000,15045.000000,50284.000000
9244.000000,18392.000000,14998.000000,50313.000000
9227.000000,18356.000000,15040.000000,50314.000000
9205.000000,18359.000000,15031.000000,50308.000000
9189.000000,18371.000000,15014.000000,50300.000000
9209.000000,18370.000000,14991.000000,50292.000000
9209.000000,18345.000000,14981.000000,50215.000000
9156.000000,18343.000000,14962.000000,50264.000000
9199.000000,18368.000000,14911.000000,50273.000000
9163.000000,18330.000000,14933.000000,50270.000000
9171.000000,18327.000000,14955.000000,50284.000000
9148.000000,18340.000000,14925.000000,50263.000000
9134.000000,18341.000000,14996.000000,50240.000000
9130.000000,18305.000000,14939.000000,50247.000000
9161.000000,18334.000000,14930.000000,50219.000000
9110.000000,18291.000000,14897.000000,50246.000000
9121.000000,18293.000000,14914.000000,50254.000000
9122.000000,18272.000000,14883.000000,50228.000000
9084.000000,18280.000000,14887.000000,50199.000000
9078.000000,18278.000000,14823.000000,50201.000000
9047.000000,18268.000000,14837.000000,50197.000000
9068.000000,18255.000000,14841.000000,50194.000000
9025.000000,18235.000000,14839.000000,50180.000000
9046.000000,18243.000000,14822.000000,50178.000000
9040.000000,18262.000000,14824.000000,50213.000000
9051.000000,18249.000000,14791.000000,50226.000000
9026.000000,18226.000000,14810.000000,50165.000000
9018.000000,18237.000000,14787.000000,50207.000000
9013.000000,18273.000000,14831.000000,50180.000000
8988.000000,18234.000000,14809.000000,50174.000000
8997.000000,18190.000000,14764.000000,50175.000000
8975.000000,18204.000000,14771.000000,50165.000000
9016.000000,18230.000000,14767.000000,50141.000000
8962.000000,18236.000000,14783.000000,50168.000000
8985.000000,18240.000000,14791.000000,50121.000000
8933.000000,18199.000000,14735.000000,50137.000000
8985.000000,18237.000000,14762.000000,50193.000000
8951.000000,18167.000000,14773.000000,50149.000000
8925.000000,18188.000000,14759.000000,50102.000000
8909.000000,18178.000000,14741.000000,50117.000000
8939.000000,18179.000000,14711.000000,50105.000000
8880.000000,18120.000000,14717.000000,50092.000000
8895.000000,18189.000000,14756.000000,50152.000000
8921.000000,18141.000000,14726.000000,50082.000000
8881.000000,18168.000000,14693.000000,50095.000000
8868.000000,18150.000000,14702.000000,50134.000000
8863.000000,18148.000000,14685.000000,50097.000000
8894.000000,18170.000000,14676.000000,50163.000000
8908.000000,18174.000000,14705.000000,50107.000000
8865.000000,18165.000000,14634.000000,50068.000000
8849.000000,18105.000000,14657.000000,50091.000000
8815.000000,18187.000000,14664.000000,50076.000000
8848.000000,18127.000000,14645.000000,50023.000000
8780.000000,18106.000000,14642.000000,50017.000000
8799.000000,18138.000000,14661.000000,50069.000000
8792.000000,18107.000000,14653.000000,50035.000000
8784.000000,18096.000000,14641.000000,50093.000000
8726.000000,18129.000000,14626.000000,50070.000000
8804.000000,18064.000000,14597.000000,50041.000000
8796.000000,18062.000000,14587.000000,50047.000000
8755.000000,18013.000000,14579.000000,50016.000000
8740.000000,18117.000000,14573.000000,50050.000000
8782.000000,18069.000000,14584.000000,50056.000000
8741.000000,18084.000000,14594.000000,50009.000000
8758.000000,18110.000000,14575.000000,50011.000000
8741.000000,18071.000000,14592.000000,50036.000000
8717.000000,18064.000000,14541.000000,50032.000000
8712.000000,18045.000000,14543.000000,50020.000000
8723.000000,18043.000000,14547.000000,49992.000000
8726.000000,18014.000000,14495.000000,50014.000000
8715.000000,18026.000000,14545.000000,50008.000000
8696.000000,18055.000000,14532.000000,50032.000000
8662.000000,17991.000000,14504.000000,49976.000000
8680.000000,18022.000000,14460.000000,49974.000000
8670.000000,18014.000000,14535.000000,49970.000000
8653.000000,17997.000000,14503.000000,49989.000000
8660.000000,17998.000000,14496.000000,50007.000000
8672.000000,17999.000000,14496.000000,49960.000000
8652.000000,17962.000000,14465.000000,49984.000000
8617.000000,17985.000000,14453.000000,49999.000000
8643.000000,18002.000000,14457.000000,49968.000000
8660.000000,18002.000000,14542.000000,49961.000000
8624.000000,18016.000000,14460.000000,49966.000000
8626.000000,18017.000000,14436.000000,49965.000000
8620.000000,17983.000000,14476.000000,49982.000000
8683.000000,18029.000000,14468.000000,49967.000000
8606.000000,17992.000000,14481.000000,49971.000000
8637.000000,18000.000000,14514.000000,49990.000000
8647.000000,17970.000000,14469.000000,49979.000000
8630.000000,18022.000000,14454.000000,49951.000000
8584.000000,17990.000000,14448.000000,49973.000000
8607.000000,18019.000000,14468.000000,49994.000000
8632.000000,18256.000000,14457.000000,49942.000000
8635.000000,17980.000000,14501.000000,49961.000000
8596.000000,17978.000000,14422.000000,49957.000000
8682.000000,17982.000000,14477.000000,49938.000000
8641.000000,17988.000000,14428.000000,49928.000000
8585.000000,17994.000000,14426.000000,49974.000000
8585.000000,18007.000000,14463.000000,49976.000000
8610.000000,18014.000000,14418.000000,49945.000000
8579.000000,18008.000000,14516.000000,49967.000000
8598.000000,17978.000000,14434.000000,49984.000000
8624.000000,17981.000000,14419.000000,49921.000000
8573.000000,17925.000000,14432.000000,49981.000000
8630.000000,17966.000000,14433.000000,49899.000000
8549.000000,17934.000000,14435.000000,49908.000000
8563.000000,17965.000000,14380.000000,49933.000000
8592.000000,17973.000000,14433.000000,49882.000000
8562.000000,17986.000000,14427.000000,49931.000000
8598.000000,17994.000000,14492.000000,49951.000000
8610.000000,17989.000000,14438.000000,49950.000000
8600.000000,17924.000000,14377.000000,49973.000000
8572.000000,17923.000000,14429.000000,49944.000000
8611.000000,17998.000000,14405.000000,49982.000000
8613.000000,17986.000000,14435.000000,49970.000000
8661.000000,18003.000000,14466.000000,49977.000000
8640.000000,17983.000000,14489.000000,49938.000000
8693.000000,17962.000000,14550.000000,50028.000000
8689.000000,18013.000000,14565.000000,50053.000000
8670.000000,18064.000000,14516.000000,50030.000000
8714.000000,17983.000000,14581.000000,50113.000000
8715.000000,18033.000000,14580.000000,50032.000000
8711.000000,18082.000000,14610.000000,50082.000000
8738.000000,18061.000000,14582.000000,50007.000000
8799.000000,18107.000000,14633.000000,50103.000000
8792.000000,18122.000000,14655.000000,50045.000000
8824.000000,18074.000000,14648.000000,50093.000000
8833.000000,18114.000000,14648.000000,50069.000000
8828.000000,18132.000000,14694.000000,50132.000000
8834.000000,18157.000000,14681.000000,50145.000000
8874.000000,18188.000000,14724.000000,50146.000000
8880.000000,18121.000000,14751.000000,50124.000000
8904.000000,18161.000000,14768.000000,50151.000000
8933.000000,18172.000000,14793.000000,50162.000000
8921.000000,18215.000000,14786.000000,50192.000000
8970.000000,18184.000000,14835.000000,50182.000000
8973.000000,18246.000000,14843.000000,50198.000000
9006.000000,18220.000000,14880.000000,50229.000000
9054.000000,18289.000000,14863.000000,50207.000000
9048.000000,18308.000000,14897.000000,50235.000000
9113.000000,18317.000000,14971.000000,50275.000000
9176.000000,18355.000000,14999.000000,50289.000000
9184.000000,18360.000000,15042.000000,50322.000000
9216.000000,18403.000000,15072.000000,50329.000000
9233.000000,18411.000000,15075.000000,50331.000000
9296.000000,18425.000000,15128.000000,50375.000000
9335.000000,18447.000000,15143.000000,50344.000000
9416.000000,18487.000000,15209.000000,50372.000000
9415.000000,18527.000000,15255.000000,50454.000000
9458.000000,18554.000000,15298.000000,50449.000000
9499.000000,18557.000000,15357.000000,50448.000000
9561.000000,18626.000000,15356.000000,50506.000000
9599.000000,18652.000000,15369.000000,50461.000000
9597.000000,18671.000000,15442.000000,50562.000000
9623.000000,18694.000000,15424.000000,50486.000000
9628.000000,18640.000000,15420.000000,50530.000000
9631.000000,18687.000000,15437.000000,50540.000000
9665.000000,18680.000000,15465.000000,50518.000000
9606.000000,18657.000000,15455.000000,50487.000000
9635.000000,18687.000000,15431.000000,50517.000000
9634.000000,18642.000000,15420.000000,50516.000000
9583.000000,18682.000000,15411.000000,50510.000000
9607.000000,18665.000000,15430.000000,50562.000000
9631.000000,18719.000000,15383.000000,50503.000000
9574.000000,18631.000000,15391.000000,50497.000000
9557.000000,18661.000000,15396.000000,50460.000000
9553.000000,18632.000000,15375.000000,50480.000000
9559.000000,18625.000000,15360.000000,50481.000000
9520.000000,18615.000000,15350.000000,50480.000000
9464.000000,18585.000000,15331.000000,50494.000000
9541.000000,18584.000000,15343.000000,50480.000000
9484.000000,18577.000000,15301.000000,50424.000000
9514.000000,18552.000000,15238.000000,50442.000000
9484.000000,18584.000000,15318.000000,50473.000000
9471.000000,18573.000000,15265.000000,50442.000000
9481.000000,18526.000000,15280.000000,50428.000000
9393.000000,18572.000000,15309.000000,50464.000000
9416.000000,18518.000000,15188.000000,50390.000000
9449.000000,18539.000000,15247.000000,50426.000000
9407.000000,18530.000000,15230.000000,50424.000000
9378.000000,18512.000000,15228.000000,50394.000000
9404.000000,18522.000000,15220.000000,50399.000000
9354.000000,18525.000000,15164.000000,50344.000000
9356.000000,18488.000000,15156.000000,50382.000000
9349.000000,18489.000000,15160.000000,50381.000000
9337.000000,18497.000000,15162.000000,50346.000000
9328.000000,18483.000000,15156.000000,50357.000000
9319.000000,18436.000000,15120.000000,50381.000000
9256.000000,18438.000000,15100.000000,50342.000000
9261.000000,18466.000000,15128.000000,50340.000000
9281.000000,18450.000000,15110.000000,50362.000000
9278.000000,18391.000000,15077.000000,50305.000000
9281.000000,18411.000000,15048.000000,50313.000000
9264.000000,18449.000000,15021.000000,50323.000000
9227.000000,18403.000000,15070.000000,50282.000000
9234.000000,18401.000000,15039.000000,50222.000000
9240.000000,18413.000000,15044.000000,50317.000000
9220.000000,18365.000000,15034.000000,50263.000000
9145.000000,18382.000000,15028.000000,50267.000000
9169.000000,18355.000000,14994.000000,50246.000000
9225.000000,18325.000000,14954.000000,50242.000000
9172.000000,18318.000000,15000.000000,50224.000000
9100.000000,18352.000000,14959.000000,50265.000000
9163.000000,18351.000000,15007.000000,50222.000000
9117.000000,18379.000000,14962.000000,50223.000000
9115.000000,18346.000000,14970.000000,50217.000000
9037.000000,18352.000000,14959.000000,50218.000000
9091.000000,18319.000000,14923.000000,50208.000000
9091.000000,18310.000000,14941.000000,50189.000000
9070.000000,18253.000000,14886.000000,50213.000000
9047.000000,18295.000000,14897.000000,50175.000000
9033.000000,18299.000000,14886.000000,50168.000000
9033.000000,18288.000000,14869.000000,50163.000000
9032.000000,18217.000000,14871.000000,50172.000000
8981.000000,18261.000000,14829.000000,50228.000000
9031.000000,18298.000000,14820.000000,50190.000000
8953.000000,18212.000000,14831.000000,50203.000000
8978.000000,18247.000000,14795.000000,50128.000000
8965.000000,18218.000000,14769.000000,50203.000000
9010.000000,18243.000000,14798.000000,50146.000000
8945.000000,18225.000000,14740.000000,50115.000000
8958.000000,18221.000000,14720.000000,50098.000000
8961.000000,18235.000000,14787.000000,50112.000000
8965.000000,18188.000000,14746.000000,50150.000000
8908.000000,18207.000000,14750.000000,50132.000000
8921.000000,18237.000000,14757.000000,50114.000000
8891.000000,18173.000000,14698.000000,50098.000000
8890.000000,18171.000000,14692.000000,50090.000000
8867.000000,18134.000000,14659.000000,50089.000000
8882.000000,18133.000000,14680.000000,50063.000000
8866.000000,18185.000000,14684.000000,50027.000000
8891.000000,18104.000000,14695.000000,50074.000000
8797.000000,18119.000000,14709.000000,50079.000000
8854.000000,18182.000000,14661.000000,50076.000000
8860.000000,18127.000000,14641.000000,50055.000000
8801.000000,18130.000000,14615.000000,50047.000000
8823.000000,18150.000000,14599.000000,50086.000000
8835.000000,18121.000000,14593.000000,50055.000000
8813.000000,18151.000000,14650.000000,50065.000000
8795.000000,18091.000000,14610.000000,50067.000000
8780.000000,18095.000000,14568.000000,50032.000000
8799.000000,18088.000000,14640.000000,50046.000000
8768.000000,18101.000000,14577.000000,50021.000000
8786.000000,18110.000000,14613.000000,50048.000000
8736.000000,18104.000000,14599.000000,50043.000000
8818.000000,18077.000000,14636.000000,50038.000000
8765.000000,18071.000000,14558.000000,49998.000000
8736.000000,18003.000000,14542.000000,50010.000000
8721.000000,18049.000000,14566.000000,49996.000000
8712.000000,18038.000000,14517.000000,50007.000000
8712.000000,18034.000000,14516.000000,50008.000000
8729.000000,18063.000000,14558.000000,49987.000000
8689.000000,18074.000000,14510.000000,49999.000000
8714.000000,18043.000000,14498.000000,50008.000000
8668.000000,18049.000000,14535.000000,49986.000000
8703.000000,18035.000000,14507.000000,50020.000000
8693.000000,18011.000000,14501.000000,49973.000000
8671.000000,17999.000000,14468.000000,49936.000000
8630.000000,18030.000000,14444.000000,49973.000000
8642.000000,18037.000000,14509.000000,49970.000000
8722.000000,17968.000000,14432.000000,49994.000000
8645.000000,17966.000000,14455.000000,49963.000000
8673.000000,18000.000000,14453.000000,49955.000000
8650.000000,17987.000000,14483.000000,49960.000000
8623.000000,17971.000000,14448.000000,49979.000000
8640.000000,17996.000000,14449.000000,49966.000000
8616.000000,17930.000000,14448.000000,49880.000000
8623.000000,17998.000000,14452.000000,49917.000000
8607.000000,17987.000000,14434.000000,49932.000000
8623.000000,17990.000000,14422.000000,49947.000000
8589.000000,17998.000000,14429.000000,49901.000000
8647.000000,17974.000000,14384.000000,49952.000000
8605.000000,17954.000000,14369.000000,49917.000000
8611.000000,17964.000000,14399.000000,49912.000000
8592.000000,17954.000000,14398.000000,49952.000000
8598.000000,17941.000000,14382.000000,49933.000000
8565.000000,17984.000000,14401.000000,49893.000000
8591.000000,17957.000000,14429.000000,49879.000000
8567.000000,17977.000000,14420.000000,49920.000000
8561.000000,17934.000000,14412.000000,49924.000000
8571.000000,17945.000000,14396.000000,49944.000000
8590.000000,17938.000000,14389.000000,49931.000000
8633.000000,17981.000000,14410.000000,49916.000000
8612.000000,17961.000000,14412.000000,49888.000000
8590.000000,17952.000000,14398.000000,49972.000000
8633.000000,17977.000000,14400.000000,49905.000000
8611.000000,17940.000000,14345.000000,49854.000000
8605.000000,17931.000000,14377.000000,49898.000000
8540.000000,17956.000000,14358.000000,49916.000000
8552.000000,17938.000000,14360.000000,49917.000000
8582.000000,17992.000000,14400.000000,49928.000000
8561.000000,17970.000000,14382.000000,49895.000000
8584.000000,17942.000000,14404.000000,49899.000000
8533.000000,17921.000000,14361.000000,49869.000000
8536.000000,17917.000000,14330.000000,49906.000000
8525.000000,17965.000000,14362.000000,49893.000000
8526.000000,17896.000000,14352.000000,49882.000000
8545.000000,17977.000000,14344.000000,49885.000000
8547.000000,17925.000000,14354.000000,49945.000000
8606.000000,17926.000000,14340.000000,49902.000000
8534.000000,17914.000000,14367.000000,49844.000000
8650.000000,17932.000000,14350.000000,49916.000000
8551.000000,17921.000000,14349.000000,49883.000000
8580.000000,17929.000000,14408.000000,49925.000000
8569.000000,17943.000000,14375.000000,49917.000000
8584.000000,17937.000000,14380.000000,49955.000000
8625.000000,17950.000000,14415.000000,49983.000000
8620.000000,17969.000000,14400.000000,49916.000000
8610.000000,17975.000000,14420.000000,49975.000000
8621.000000,18023.000000,14457.000000,49964.000000
8639.000000,18020.000000,14477.000000,50015.000000
8684.000000,18027.000000,14512.000000,50027.000000
8747.000000,18095.000000,14546.000000,50060.000000
8771.000000,18022.000000,14534.000000,50010.000000
8776.000000,18068.000000,14510.000000,50049.000000
8792.000000,18057.000000,14605.000000,50044.000000
8814.000000,18096.000000,14637.000000,50031.000000
8787.000000,18078.000000,14640.000000,50093.000000
8839.000000,18135.000000,14653.000000,50099.000000
8844.000000,18159.000000,14714.000000,50078.000000
8906.000000,18142.000000,14684.000000,50144.000000
8911.000000,18170.000000,14729.000000,50152.000000
8905.000000,18172.000000,14766.000000,50143.000000
8953.000000,18207.000000,14791.000000,50207.000000
9005.000000,18210.000000,14833.000000,50208.000000
9026.000000,18255.000000,14810.000000,50186.000000
8959.000000,18243.000000,14814.000000,50223.000000
9052.000000,18277.000000,14842.000000,50270.000000
9071.000000,18280.000000,14859.000000,50230.000000
9100.000000,18284.000000,14884.000000,50231.000000
9118.000000,18303.000000,14923.000000,50273.000000
9180.000000,18343.000000,14981.000000,50272.000000
9208.000000,18314.000000,14982.000000,50298.000000
9190.000000,18388.000000,15040.000000,50307.000000
9293.000000,18400.000000,15065.000000,50315.000000
9304.000000,18377.000000,15076.000000,50318.000000
9315.000000,18436.000000,15129.000000,50347.000000
9338.000000,18462.000000,15132.000000,50414.000000
9406.000000,18467.000000,15168.000000,50409.000000
9452.000000,18525.000000,15230.000000,50448.000000
9490.000000,18567.000000,15278.000000,50467.000000
9539.000000,18566.000000,15343.000000,50462.000000
9561.000000,18663.000000,15343.000000,50555.000000
9598.000000,18656.000000,15429.000000,50541.000000
9709.000000,18665.000000,15441.000000,50563.000000
9696.000000,18716.000000,15486.000000,50609.000000
9682.000000,18746.000000,15587.000000,50613.000000
9798.000000,18736.000000,15556.000000,50590.000000
9804.000000,18837.000000,15618.000000,50639.000000
9806.000000,18744.000000,15574.000000,50642.000000
9802.000000,18819.000000,15615.000000,50627.000000
9816.000000,18818.000000,15587.000000,50646.000000
9847.000000,18802.000000,15595.000000,50683.000000
9797.000000,18831.000000,15547.000000,50603.000000
9832.000000,18810.000000,15609.000000,50642.000000
9899.000000,18799.000000,15589.000000,50608.000000
9775.000000,18808.000000,15599.000000,50649.000000
9833.000000,18880.000000,15640.000000,50591.000000
9824.000000,18775.000000,15579.000000,50613.000000
9788.000000,18809.000000,15606.000000,50533.000000
9777.000000,18771.000000,15559.000000,50590.000000
9810.000000,18771.000000,15545.000000,50601.000000
9758.000000,18734.000000,15526.000000,50589.000000
9743.000000,18733.000000,15540.000000,50581.000000
10015.000000,18742.000000,15535.000000,50563.000000
9728.000000,18709.000000,15490.000000,50561.000000
9690.000000,18707.000000,15494.000000,50568.000000
9674.000000,18710.000000,15473.000000,50573.000000
9694.000000,18751.000000,15494.000000,50518.000000
9652.000000,18675.000000,15474.000000,50544.000000
9637.000000,18711.000000,15400.000000,50503.000000
9683.000000,18669.000000,15425.000000,50504.000000
9678.000000,18680.000000,15351.000000,50528.000000
9646.000000,18669.000000,15430.000000,50523.000000
9624.000000,18639.000000,15388.000000,50535.000000
9619.000000,18625.000000,15380.000000,50500.000000
9619.000000,18656.000000,15357.000000,50510.000000
9596.000000,18629.000000,15332.000000,50522.000000
9568.000000,18615.000000,15381.000000,50527.000000
9534.000000,18621.000000,15325.000000,50451.000000
9546.000000,18594.000000,15310.000000,50469.000000
9560.000000,18583.000000,15270.000000,50486.000000
9543.000000,18555.000000,15301.000000,50468.000000
9527.000000,18606.000000,15272.000000,50487.000000
9529.000000,18605.000000,15282.000000,50445.000000
9532.000000,18543.000000,15305.000000,50467.000000
9464.000000,18586.000000,15295.000000,50454.000000
9473.000000,18603.000000,15270.000000,50434.000000
9464.000000,18558.000000,15259.000000,50465.000000
9510.000000,18567.000000,15224.000000,50429.000000
9461.000000,18541.000000,15212.000000,50407.000000
9470.000000,18543.000000,15212.000000,50416.000000
9443.000000,18532.000000,15226.000000,50423.000000
9420.000000,18497.000000,15245.000000,50393.000000
9440.000000,18549.000000,15210.000000,50397.000000
9378.000000,18518.000000,15190.000000,50342.000000
9375.000000,18496.000000,15182.000000,50400.000000
9369.000000,18512.000000,15173.000000,50386.000000
9404.000000,18494.000000,15178.000000,50339.000000
9368.000000,18478.000000,15137.000000,50334.000000
9386.000000,18481.000000,15187.000000,50400.000000
9375.000000,18464.000000,15151.000000,50350.000000
9319.000000,18470.000000,15100.000000,50361.000000
9347.000000,18465.000000,15137.000000,50379.000000
9295.000000,18454.000000,15071.000000,50304.000000
9292.000000,18489.000000,15083.000000,50319.000000
9300.000000,18432.000000,15076.000000,50307.000000
9304.000000,18444.000000,15085.000000,50326.000000
9307.000000,18411.000000,15057.000000,50279.000000
9316.000000,18433.000000,15072.000000,50324.000000
9243.000000,18428.000000,15071.000000,50343.000000
9210.000000,18387.000000,15017.000000,50285.000000
9266.000000,18367.000000,15056.000000,50322.000000
9212.000000,18387.000000,14989.000000,50326.000000
9181.000000,18413.000000,14993.000000,50250.000000
9147.000000,18374.000000,14937.000000,50217.000000
9188.000000,18398.000000,14989.000000,50261.000000
9185.000000,18350.000000,14978.000000,50299.000000
9187.000000,18365.000000,14995.000000,50269.000000
9147.000000,18337.000000,14925.000000,50215.000000
9145.000000,18392.000000,14971.000000,50258.000000
9130.000000,18351.000000,14954.000000,50246.000000
9145.000000,18351.000000,14903.000000,50245.000000
9117.000000,18353.000000,14915.000000,50259.000000
9135.000000,18316.000000,14904.000000,50180.000000
9090.000000,18333.000000,14891.000000,50231.000000
9105.000000,18299.000000,14879.000000,50246.000000
9132.000000,18308.000000,14879.000000,50214.000000
9103.000000,18335.000000,14906.000000,50156.000000
9082.000000,18297.000000,14874.000000,50178.000000
9077.000000,18309.000000,14909.000000,50180.000000
9041.000000,18283.000000,14834.000000,50200.000000
9041.000000,18320.000000,14842.000000,50219.000000
9056.000000,18292.000000,14824.000000,50153.000000
9008.000000,18241.000000,14830.000000,50162.000000
9051.000000,18258.000000,14814.000000,50141.000000
9027.000000,18305.000000,14809.000000,50176.000000
9036.000000,18249.000000,14842.000000,50158.000000
9021.000000,18246.000000,14774.000000,50171.000000
9033.000000,18245.000000,14801.000000,50156.000000
8964.000000,18239.000000,14797.000000,50147.000000
8924.000000,18209.000000,14734.000000,50151.000000
9003.000000,18223.000000,14746.000000,50131.000000
8958.000000,18284.000000,14733.000000,50105.000000
8964.000000,18230.000000,14751.000000,50149.000000
8954.000000,18242.000000,14769.000000,50134.000000
8946.000000,18247.000000,14752.000000,50117.000000
8945.000000,18206.000000,14736.000000,50136.000000
8958.000000,18220.000000,14732.000000,50102.000000
8931.000000,18206.000000,14696.000000,50113.000000
8924.000000,18216.000000,14694.000000,50107.000000
8891.000000,18225.000000,14718.000000,50091.000000
8913.000000,18190.000000,14716.000000,50106.000000
8908.000000,18188.000000,14711.000000,50121.000000
8825.000000,18162.000000,14673.000000,50064.000000
8887.000000,18158.000000,14707.000000,50098.000000
8925.000000,18199.000000,14646.000000,50034.000000
8886.000000,18141.000000,14690.000000,50077.000000
8900.000000,18144.000000,14650.000000,50135.000000
8901.000000,18176.000000,14656.000000,50075.000000
8846.000000,18152.000000,14616.000000,50074.000000
8850.000000,18142.000000,14612.000000,50045.000000
8819.000000,18172.000000,14636.000000,50033.000000
8849.000000,18116.000000,14595.000000,50046.000000
8813.000000,18154.000000,14632.000000,50040.000000
8819.000000,18164.000000,14619.000000,50058.000000
8825.000000,18142.000000,14579.000000,50028.000000
8824.000000,18132.000000,14605.000000,50057.000000
8852.000000,18138.000000,14639.000000,50060.000000
8788.000000,18107.000000,14573.000000,50047.000000
8782.000000,18126.000000,14555.000000,50046.000000
8849.000000,18034.000000,14607.000000,50057.000000
8788.000000,18112.000000,14581.000000,50022.000000
8836.000000,18132.000000,14568.000000,50018.000000
8782.000000,18124.000000,14581.000000,50066.000000
8792.000000,18094.000000,14563.000000,50078.000000
8813.000000,18109.000000,14588.000000,50050.000000
8782.000000,18123.000000,14606.000000,50029.000000
8738.000000,18091.000000,14569.000000,50024.000000
8794.000000,18123.000000,14587.000000,50053.000000
8756.000000,18113.000000,14563.000000,50053.000000
8824.000000,18094.000000,14605.000000,50028.000000
8806.000000,18099.000000,14562.000000,50040.000000
8812.000000,18115.000000,14590.000000,50072.000000
8780.000000,18077.000000,14601.000000,50046.000000
8780.000000,18117.000000,14584.000000,50049.000000
8740.000000,18098.000000,14572.000000,50096.000000
8772.000000,18127.000000,14570.000000,50027.000000
8744.000000,18113.000000,14560.000000,50033.000000
8784.000000,18096.000000,14559.000000,50012.000000
8820.000000,18070.000000,14582.000000,50044.000000
8777.000000,18107.000000,14543.000000,50025.000000
8760.000000,18152.000000,14615.000000,50027.000000
8821.000000,18081.000000,14600.000000,50027.000000
8771.000000,18044.000000,14541.000000,50018.000000
8765.000000,18104.000000,14546.000000,50022.000000
8776.000000,18085.000000,14560.000000,50041.000000
8732.000000,17991.000000,14585.000000,50033.000000
8740.000000,18052.000000,14534.000000,50010.000000
8722.000000,18074.000000,14548.000000,50029.000000
8786.000000,18080.000000,14538.000000,49972.000000
8806.000000,18102.000000,14587.000000,50054.000000
8789.000000,18088.000000,14608.000000,50025.000000
8785.000000,18078.000000,14540.000000,50022.000000
8744.000000,18044.000000,14573.000000,50056.000000
8821.000000,18076.000000,14587.000000,50069.000000
8856.000000,18078.000000,14587.000000,50083.000000
8847.000000,18070.000000,14619.000000,50101.000000
8832.000000,18125.000000,14653.000000,50057.000000
8830.000000,18120.000000,14637.000000,50100.000000
8902.000000,18164.000000,14684.000000,50133.000000
8942.000000,18144.000000,14695.000000,50122.000000
8901.000000,18209.000000,14777.000000,50198.000000
8909.000000,18172.000000,14732.000000,50147.000000
8969.000000,18185.000000,14760.000000,50170.000000
9002.000000,18210.000000,14785.000000,50137.000000
9051.000000,18214.000000,14811.000000,50201.000000
9080.000000,18229.000000,14819.000000,50209.000000
9046.000000,18252.000000,14852.000000,50178.000000
9055.000000,18301.000000,14863.000000,50234.000000
9112.000000,18356.000000,14886.000000,50235.000000
9153.000000,18335.000000,14888.000000,50217.000000
9131.000000,18313.000000,14896.000000,50292.000000
9150.000000,18335.000000,14929.000000,50281.000000
9195.000000,18373.000000,14988.000000,50301.000000
9221.000000,18364.000000,15007.000000,50319.000000
9240.000000,18382.000000,15021.000000,50305.000000
9284.000000,18494.000000,15016.000000,50381.000000
9330.000000,18385.000000,15101.000000,50364.000000
9330.000000,18432.000000,15115.000000,50426.000000
9318.000000,18440.000000,15130.000000,50356.000000
9387.000000,18505.000000,15156.000000,50426.000000
9411.000000,18498.000000,15216.000000,50434.000000
9482.000000,18535.000000,15211.000000,50450.000000
9439.000000,18536.000000,15225.000000,50430.000000
9500.000000,18542.000000,15281.000000,50520.000000
9524.000000,18564.000000,15289.000000,50501.000000
9535.000000,18553.000000,15354.000000,50498.000000
9546.000000,18576.000000,15336.000000,50548.000000
9586.000000,18631.000000,15377.000000,50504.000000
9663.000000,18650.000000,15412.000000,50598.000000
9699.000000,18682.000000,15476.000000,50596.000000
9762.000000,18642.000000,15474.000000,50596.000000
9738.000000,18746.000000,15545.000000,50595.000000
9826.000000,18777.000000,15564.000000,50661.000000
9900.000000,18810.000000,15610.000000,50678.000000
9899.000000,18832.000000,15641.000000,50706.000000
9947.000000,18890.000000,15697.000000,50717.000000
9987.000000,18900.000000,15727.000000,50723.000000
10016.000000,18883.000000,15750.000000,50762.000000
10076.000000,18976.000000,15824.000000,50767.000000
10045.000000,19216.000000,15818.000000,50776.000000
10076.000000,18963.000000,15809.000000,50810.000000
10129.000000,18956.000000,15856.000000,50749.000000
10079.000000,18943.000000,15825.000000,50758.000000
10084.000000,18948.000000,15847.000000,50788.000000
10126.000000,18972.000000,15832.000000,50808.000000
10080.000000,18952.000000,15859.000000,50783.000000
10085.000000,18963.000000,15820.000000,50789.000000
10073.000000,18989.000000,15831.000000,50782.000000
10053.000000,18939.000000,15817.000000,50774.000000
10035.000000,18977.000000,15820.000000,50757.000000
10058.000000,18922.000000,15805.000000,50746.000000
10047.000000,18944.000000,15797.000000,50723.000000
9998.000000,18864.000000,15760.000000,50728.000000
10025.000000,18918.000000,15771.000000,50766.000000
9979.000000,18869.000000,15763.000000,50739.000000
10002.000000,18863.000000,15702.000000,50696.000000
9943.000000,18864.000000,15738.000000,50732.000000
9978.000000,18870.000000,15698.000000,50685.000000
9947.000000,18858.000000,15712.000000,50673.000000
9954.000000,18884.000000,15706.000000,50690.000000
9937.000000,18883.000000,15693.000000,50709.000000
9950.000000,18894.000000,15677.000000,50702.000000
9943.000000,18865.000000,15651.000000,50694.000000
9894.000000,18838.000000,15642.000000,50661.000000
9921.000000,18827.000000,15630.000000,50666.000000
9900.000000,18837.000000,15637.000000,50638.000000
9848.000000,18843.000000,15629.000000,50671.000000
9865.000000,18832.000000,15608.000000,50678.000000
9863.000000,18831.000000,15600.000000,50658.000000
9898.000000,18799.000000,15569.000000,50613.000000
9886.000000,18804.000000,15578.000000,50644.000000
9875.000000,18801.000000,15557.000000,50631.000000
9788.000000,18796.000000,15573.000000,50653.000000
9876.000000,18834.000000,15538.000000,50598.000000
9800.000000,18776.000000,15537.000000,50594.000000
9822.000000,18761.000000,15545.000000,50604.000000
9804.000000,18802.000000,15527.000000,50617.000000
9831.000000,18733.000000,15540.000000,50637.000000
9795.000000,18731.000000,15528.000000,50600.000000
9755.000000,18752.000000,15476.000000,50614.000000
9798.000000,18733.000000,15492.000000,50575.000000
9740.000000,18796.000000,15513.000000,50594.000000
9727.000000,18688.000000,15482.000000,50575.000000
9765.000000,18725.000000,15525.000000,50561.000000
9754.000000,18763.000000,15514.000000,50521.000000
9718.000000,18747.000000,15512.000000,50566.000000
9709.000000,18715.000000,15445.000000,50555.000000
9700.000000,18713.000000,15469.000000,50533.000000
9714.000000,18731.000000,15452.000000,50617.000000
9686.000000,18729.000000,15456.000000,50522.000000
9699.000000,18668.000000,15426.000000,50570.000000
9692.000000,18690.000000,15418.000000,50517.000000
9722.000000,18682.000000,15417.000000,50504.000000
9682.000000,18667.000000,15351.000000,50507.000000
9676.000000,18690.000000,15383.000000,50512.000000
9626.000000,18677.000000,15400.000000,50506.000000
9623.000000,18692.000000,15404.000000,50549.000000
9605.000000,18729.000000,15368.000000,50525.000000
9604.000000,18641.000000,15350.000000,50506.000000
9613.000000,18662.000000,15359.000000,50485.000000
9589.000000,18650.000000,15331.000000,50495.000000
9610.000000,18659.000000,15284.000000,50504.000000
9583.000000,18628.000000,15368.000000,50502.000000
9587.000000,18621.000000,15324.000000,50483.000000
9567.000000,18609.000000,15311.000000,50477.000000
9569.000000,18636.000000,15265.000000,50487.000000
9605.000000,18584.000000,15265.000000,50475.000000
9538.000000,18598.000000,15312.000000,50452.000000
9534.000000,18590.000000,15277.000000,50432.000000
9549.000000,18589.000000,15277.000000,50500.000000
9555.000000,18588.000000,15308.000000,50440.000000
9515.000000,18600.000000,15264.000000,50422.000000
9484.000000,18582.000000,15271.000000,50443.000000
9523.000000,18558.000000,15233.000000,50443.000000
9517.000000,18545.000000,15222.000000,50410.000000
9489.000000,18555.000000,15255.000000,50458.000000
9481.000000,18520.000000,15220.000000,50418.000000
9464.000000,18524.000000,15223.000000,50404.000000
9463.000000,18553.000000,15207.000000,50400.000000
9479.000000,18596.000000,15193.000000,50421.000000
9452.000000,18566.000000,15225.000000,50446.000000
9492.000000,18567.000000,15203.000000,50429.000000
9446.000000,18545.000000,15160.000000,50408.000000
9418.000000,18531.000000,15203.000000,50430.000000
9428.000000,18554.000000,15174.000000,50373.000000
9373.000000,18491.000000,15179.000000,50363.000000
9397.000000,18502.000000,15172.000000,50381.000000
9405.000000,18530.000000,15133.000000,50383.000000
9378.000000,18503.000000,15188.000000,50353.000000
9397.000000,18555.000000,15121.000000,50376.000000
9375.000000,18485.000000,15156.000000,50370.000000
9371.000000,18492.000000,15138.000000,50378.000000
9387.000000,18473.000000,15136.000000,50362.000000
9374.000000,18458.000000,15127.000000,50350.000000
9358.000000,18458.000000,15092.000000,50364.000000
9344.000000,18503.000000,15136.000000,50358.000000
9347.000000,18456.000000,15096.000000,50319.000000
9361.000000,18485.000000,15101.000000,50361.000000
9379.000000,18455.000000,15098.000000,50389.000000
9319.000000,18473.000000,15094.000000,50317.000000
9273.000000,18450.000000,15069.000000,50343.000000
9282.000000,18411.000000,15055.000000,50306.000000
9277.000000,18427.000000,15066.000000,50289.000000
9280.000000,18407.000000,15054.000000,50331.000000
9274.000000,18450.000000,15014.000000,50356.000000
9284.000000,18415.000000,15043.000000,50342.000000
9225.000000,18406.000000,15014.000000,50299.000000
9284.000000,18437.000000,15038.000000,50337.000000
9243.000000,18435.000000,15041.000000,50311.000000
9297.000000,18387.000000,15014.000000,50294.000000
9256.000000,18393.000000,15047.000000,50297.000000
9253.000000,18373.000000,15055.000000,50344.000000
9269.000000,18379.000000,14988.000000,50304.000000
9259.000000,18460.000000,15025.000000,50281.000000
9259.000000,18407.000000,15006.000000,50314.000000
9302.000000,18434.000000,15017.000000,50300.000000
9228.000000,18432.000000,15013.000000,50318.000000
9225.000000,18438.000000,15027.000000,50303.000000
9209.000000,18402.000000,14986.000000,50264.000000
9192.000000,18401.000000,15047.000000,50291.000000
9246.000000,18400.000000,15002.000000,50312.000000
9217.000000,18394.000000,14979.000000,50228.000000
9223.000000,18398.000000,14996.000000,50288.000000
9238.000000,18436.000000,15007.000000,50307.000000
9216.000000,18404.000000,15022.000000,50323.000000
9208.000000,18408.000000,15006.000000,50293.000000
9223.000000,18377.000000,14990.000000,50304.000000
9213.000000,18401.000000,14951.000000,50264.000000
9261.000000,18455.000000,14963.000000,50296.000000
9198.000000,18415.000000,14944.000000,50277.000000
9221.000000,18409.000000,15036.000000,50278.000000
9234.000000,18373.000000,15009.000000,50295.000000
9243.000000,18384.000000,14983.000000,50282.000000
9167.000000,18375.000000,14993.000000,50286.000000
9231.000000,18350.000000,14962.000000,50246.000000
9254.000000,18432.000000,14995.000000,50303.000000
9225.000000,18364.000000,14999.000000,50331.000000
9212.000000,18387.000000,14971.000000,50302.000000
9224.000000,18394.000000,15011.000000,50286.000000
9193.000000,18446.000000,14970.000000,50289.000000
9184.000000,18365.000000,14947.000000,50266.000000
9210.000000,18378.000000,14979.000000,50313.000000
9244.000000,18373.000000,14977.000000,50277.000000
9190.000000,18319.000000,15002.000000,50184.000000
9207.000000,18362.000000,14977.000000,50285.000000
9216.000000,18373.000000,14993.000000,50262.000000
9221.000000,18381.000000,14952.000000,50273.000000
9245.000000,18340.000000,14994.000000,50308.000000
9254.000000,18424.000000,15002.000000,50329.000000
9225.000000,18364.000000,14974.000000,50300.000000
9246.000000,18415.000000,15019.000000,50303.000000
9228.000000,18431.000000,15008.000000,50309.000000
9261.000000,18405.000000,15029.000000,50320.000000
9292.000000,18415.000000,15042.000000,50367.000000
9277.000000,18388.000000,15101.000000,50348.000000
9319.000000,18436.000000,15066.000000,50366.000000
9356.000000,18426.000000,15076.000000,50363.000000
9364.000000,18480.000000,15105.000000,50410.000000
9348.000000,18438.000000,15206.000000,50374.000000
9383.000000,18511.000000,15163.000000,50383.000000
9394.000000,18512.000000,15166.000000,50386.000000
9433.000000,18546.000000,15191.000000,50432.000000
9439.000000,18549.000000,15222.000000,50450.000000
9397.000000,18534.000000,15244.000000,50464.000000
9528.000000,18540.000000,15270.000000,50442.000000
9495.000000,18559.000000,15278.000000,50481.000000
9512.000000,18579.000000,15257.000000,50492.000000
9521.000000,18571.000000,15318.000000,50528.000000
9566.000000,18585.000000,15346.000000,50524.000000
9531.000000,18598.000000,15358.000000,50511.000000
9589.000000,18632.000000,15357.000000,50523.000000
9593.000000,18632.000000,15439.000000,50535.000000
9629.000000,18669.000000,15398.000000,50582.000000
9676.000000,18671.000000,15432.000000,50621.000000
9688.000000,18670.000000,15431.000000,50541.000000
9720.000000,18712.000000,15476.000000,50623.000000
9748.000000,18759.000000,15498.000000,50603.000000
9732.000000,18757.000000,15550.000000,50624.000000
9786.000000,18772.000000,15567.000000,50646.000000
9830.000000,18744.000000,15554.000000,50631.000000
9876.000000,18782.000000,15524.000000,50668.000000
9884.000000,18836.000000,15657.000000,50674.000000
9874.000000,18838.000000,15698.000000,50732.000000
9933.000000,18814.000000,15729.000000,50744.000000
9967.000000,18845.000000,15786.000000,50776.000000
10061.000000,18913.000000,15814.000000,50769.000000
10048.000000,18976.000000,15846.000000,50849.000000
10120.000000,18994.000000,15902.000000,50819.000000
10131.000000,19020.000000,15891.000000,50877.000000
10208.000000,19046.000000,15948.000000,50864.000000
10244.000000,19331.000000,15985.000000,50900.000000
10263.000000,19117.000000,15984.000000,50895.000000
10297.000000,19107.000000,16052.000000,50911.000000
10328.000000,19167.000000,16092.000000,50957.000000
10366.000000,19149.000000,16088.000000,50935.000000
10364.000000,19095.000000,16127.000000,50941.000000
10371.000000,19153.000000,16129.000000,50909.000000
10344.000000,19137.000000,16087.000000,50931.000000
10341.000000,19174.000000,16063.000000,50945.000000
10359.000000,19146.000000,16039.000000,50905.000000
10334.000000,19173.000000,16043.000000,50908.000000
10385.000000,19115.000000,16054.000000,50934.000000
10339.000000,19131.000000,16071.000000,50948.000000
10289.000000,19120.000000,16066.000000,50896.000000
10275.000000,19118.000000,16028.000000,50894.000000
10315.000000,19139.000000,16041.000000,50910.000000
10256.000000,19106.000000,16055.000000,50891.000000
10247.000000,19053.000000,16020.000000,50915.000000
10287.000000,19134.000000,16039.000000,50880.000000
10226.000000,19087.000000,15957.000000,50866.000000
10247.000000,19096.000000,15950.000000,50866.000000
10222.000000,19031.000000,15932.000000,50865.000000
10188.000000,19037.000000,15941.000000,50814.000000
10180.000000,19064.000000,15926.000000,50829.000000
10149.000000,19065.000000,15900.000000,50768.000000
10148.000000,19030.000000,15893.000000,50825.000000
10140.000000,19002.000000,15904.000000,50780.000000
10103.000000,19013.000000,15879.000000,50808.000000
10150.000000,19005.000000,15872.000000,50768.000000
10112.000000,18979.000000,15873.000000,50754.000000
10123.000000,18977.000000,15865.000000,50805.000000
10151.000000,18961.000000,15877.000000,50791.000000
10092.000000,19007.000000,15794.000000,50750.000000
10133.000000,18996.000000,15842.000000,50782.000000
10066.000000,19002.000000,15842.000000,50787.000000
9986.000000,18908.000000,15799.000000,50794.000000
10084.000000,18937.000000,15796.000000,50771.000000
10085.000000,18945.000000,15809.000000,50792.000000
10010.000000,18949.000000,15758.000000,50756.000000
10054.000000,18960.000000,15800.000000,50764.000000
10023.000000,18919.000000,15758.000000,50758.000000
10011.000000,18905.000000,15734.000000,50727.000000
10009.000000,18915.000000,15773.000000,50755.000000
9984.000000,18904.000000,15715.000000,50701.000000
10042.000000,18919.000000,15713.000000,50705.000000
9957.000000,18899.000000,15745.000000,50694.000000
9955.000000,18920.000000,15736.000000,50711.000000
9955.000000,18863.000000,15684.000000,50692.000000
9979.000000,18862.000000,15687.000000,50684.000000
9961.000000,18856.000000,15709.000000,50740.000000
10015.000000,18828.000000,15692.000000,50677.000000
9958.000000,18868.000000,15652.000000,50699.000000
9964.000000,18846.000000,15719.000000,50690.000000
9907.000000,18879.000000,15619.000000,50726.000000
9940.000000,18847.000000,15676.000000,50671.000000
9921.000000,18874.000000,15650.000000,50724.000000
9905.000000,18867.000000,15639.000000,50655.000000
9901.000000,18840.000000,15607.000000,50708.000000
9898.000000,18818.000000,15616.000000,50712.000000
9854.000000,18849.000000,15621.000000,50652.000000
9903.000000,18852.000000,15621.000000,50679.000000
9885.000000,18857.000000,15607.000000,50665.000000
9880.000000,18778.000000,15645.000000,50656.000000
9845.000000,18872.000000,15652.000000,50606.000000
9864.000000,18807.000000,15607.000000,50680.000000
9818.000000,18815.000000,15578.000000,50628.000000
9820.000000,18804.000000,15569.000000,50641.000000
9869.000000,18839.000000,15597.000000,50610.000000
9806.000000,18785.000000,15527.000000,50611.000000
9809.000000,18768.000000,15540.000000,50606.000000
9799.000000,18781.000000,15527.000000,50596.000000
9802.000000,18765.000000,15524.000000,50652.000000
9799.000000,18767.000000,15505.000000,50589.000000
9792.000000,18769.000000,15499.000000,50581.000000
9812.000000,18742.000000,15579.000000,50610.000000
9777.000000,18785.000000,15513.000000,50629.000000
9777.000000,18776.000000,15480.000000,50538.000000
9755.000000,18821.000000,15496.000000,50565.000000
9755.000000,18739.000000,15483.000000,50592.000000
9757.000000,18749.000000,15502.000000,50591.000000
9745.000000,18752.000000,15431.000000,50611.000000
9719.000000,18734.000000,15466.000000,50569.000000
9729.000000,18746.000000,15460.000000,50578.000000
9713.000000,18741.000000,15478.000000,50577.000000
9653.000000,18717.000000,15473.000000,50557.000000
9723.000000,18723.000000,15480.000000,50560.000000
9719.000000,18735.000000,15429.000000,50539.000000
9675.000000,18732.000000,15459.000000,50554.000000
9673.000000,18722.000000,15423.000000,50550.000000
9715.000000,18683.000000,15458.000000,50549.000000
9646.000000,18689.000000,15418.000000,50532.000000
9599.000000,18669.000000,15381.000000,50539.000000
9650.000000,18669.000000,15377.000000,50497.000000
9652.000000,18701.000000,15374.000000,50504.000000
9610.000000,18686.000000,15353.000000,50468.000000
9629.000000,18650.000000,15371.000000,50576.000000
9634.000000,18681.000000,15361.000000,50506.000000
9623.000000,18637.000000,15372.000000,50488.000000
9621.000000,18677.000000,15315.000000,50523.000000
9617.000000,18655.000000,15350.000000,50501.000000
9609.000000,18558.000000,15344.000000,50527.000000
9666.000000,18674.000000,15364.000000,50543.000000
9603.000000,18663.000000,15377.000000,50507.000000
9596.000000,18636.000000,15349.000000,50473.000000
9561.000000,18607.000000,15358.000000,50511.000000
9594.000000,18645.000000,15303.000000,50473.000000
9523.000000,18682.000000,15321.000000,50504.000000
9609.000000,18597.000000,15332.000000,50438.000000
9572.000000,18669.000000,15294.000000,50508.000000
9564.000000,18605.000000,15332.000000,50461.000000
9544.000000,18600.000000,15306.000000,50449.000000
9582.000000,18611.000000,15296.000000,50492.000000
9567.000000,18628.000000,15296.000000,50435.000000
9588.000000,18640.000000,15306.000000,50491.000000
9554.000000,18611.000000,15299.000000,50446.000000
9594.000000,18608.000000,15258.000000,50484.000000
9551.000000,18612.000000,15271.000000,50475.000000
9537.000000,18614.000000,15322.000000,50469.000000
9554.000000,18602.000000,15294.000000,50471.000000
9565.000000,18650.000000,15278.000000,50436.000000
9557.000000,18621.000000,15274.000000,50451.000000
9529.000000,18580.000000,15244.000000,50479.000000
9569.000000,18581.000000,15306.000000,50429.000000
9583.000000,18590.000000,15298.000000,50461.000000
9559.000000,18616.000000,15278.000000,50456.000000
9555.000000,18663.000000,15289.000000,50468.000000
9571.000000,18641.000000,15298.000000,50471.000000
9530.000000,18540.000000,15276.000000,50446.000000
9558.000000,18615.000000,15330.000000,50471.000000
9535.000000,18607.000000,15266.000000,50459.000000
9528.000000,18570.000000,15259.000000,50447.000000
9530.000000,18580.000000,15281.000000,50435.000000
9531.000000,18582.000000,15276.000000,50451.000000
9519.000000,18594.000000,15251.000000,50459.000000
9493.000000,18582.000000,15249.000000,50499.000000
9519.000000,18562.000000,15255.000000,50452.000000
9478.000000,18577.000000,15262.000000,50435.000000
9508.000000,18570.000000,15256.000000,50455.000000
9497.000000,18584.000000,15258.000000,50430.000000
9511.000000,18574.000000,15255.000000,50444.000000
9524.000000,18600.000000,15242.000000,50425.000000
9481.000000,18567.000000,15255.000000,50448.000000
9497.000000,18592.000000,15222.000000,50403.000000
9542.000000,18580.000000,15287.000000,50462.000000
9486.000000,18620.000000,15240.000000,50463.000000
9555.000000,18578.000000,15286.000000,50454.000000
9548.000000,18606.000000,15308.000000,50467.000000
9496.000000,18629.000000,15314.000000,50477.000000
9564.000000,18574.000000,15297.000000,50530.000000
9606.000000,18581.000000,15384.000000,50493.000000
9581.000000,18636.000000,15355.000000,50495.000000
9602.000000,18630.000000,15337.000000,50493.000000
9630.000000,18646.000000,15356.000000,50534.000000
9637.000000,18656.000000,15391.000000,50561.000000
9695.000000,18673.000000,15401.000000,50543.000000
9657.000000,18703.000000,15400.000000,50581.000000
9713.000000,18672.000000,15436.000000,50597.000000
9711.000000,18747.000000,15416.000000,50581.000000
9721.000000,18662.000000,15446.000000,50600.000000
9728.000000,18745.000000,15493.000000,50618.000000
9773.000000,18763.000000,15507.000000,50620.000000
9770.000000,18717.000000,15541.000000,50654.000000
9796.000000,18775.000000,15541.000000,50631.000000
10108.000000,18747.000000,15539.000000,50659.000000
9868.000000,18808.000000,15540.000000,50642.000000
9856.000000,18791.000000,15609.000000,50667.000000
9871.000000,18847.000000,15620.000000,50704.000000
9934.000000,18837.000000,15622.000000,50735.000000
9936.000000,18865.000000,15710.000000,50712.000000
9957.000000,18874.000000,15719.000000,50687.000000
9985.000000,18876.000000,15715.000000,50761.000000
9990.000000,18901.000000,15756.000000,50763.000000
10057.000000,18900.000000,15760.000000,50755.000000
10035.000000,18953.000000,15809.000000,50780.000000
10093.000000,18933.000000,15798.000000,50778.000000
10139.000000,18997.000000,15865.000000,50821.000000
10135.000000,19006.000000,15885.000000,50859.000000
10202.000000,19039.000000,15931.000000,50883.000000
10265.000000,19062.000000,15953.000000,50899.000000
10312.000000,19113.000000,16057.000000,50906.000000
10303.000000,19145.000000,16049.000000,50934.000000
10382.000000,19146.000000,16118.000000,50950.000000
10420.000000,19198.000000,16132.000000,50979.000000
10460.000000,19218.000000,16212.000000,51011.000000
10490.000000,19234.000000,16222.000000,51006.000000
10514.000000,19237.000000,16244.000000,51020.000000
10570.000000,19272.000000,16280.000000,51062.000000
10600.000000,19346.000000,16319.000000,51081.000000
10557.000000,19375.000000,16304.000000,51103.000000
10594.000000,19329.000000,16296.000000,51055.000000
10627.000000,19346.000000,16346.000000,51107.000000
10631.000000,19306.000000,16354.000000,51083.000000
10604.000000,19329.000000,16371.000000,51066.000000
10637.000000,19322.000000,16345.000000,51075.000000
10601.000000,19288.000000,16291.000000,51056.000000
10597.000000,19332.000000,16340.000000,51069.000000
10607.000000,19289.000000,16333.000000,51069.000000
10639.000000,19302.000000,16298.000000,51043.000000
10595.000000,19296.000000,16309.000000,51080.000000
10584.000000,19289.000000,16257.000000,51078.000000
10525.000000,19286.000000,16272.000000,51043.000000
10535.000000,19317.000000,16276.000000,51044.000000
10525.000000,19253.000000,16232.000000,51009.000000
10561.000000,19245.000000,16252.000000,50975.000000
10542.000000,19265.000000,16220.000000,51026.000000
10498.000000,19233.000000,16260.000000,50987.000000
10511.000000,19244.000000,16239.000000,51035.000000
10467.000000,19221.000000,16194.000000,50927.000000
10489.000000,19256.000000,16113.000000,50953.000000
10472.000000,19213.000000,16200.000000,50975.000000
10426.000000,19161.000000,16119.000000,50949.000000
10399.000000,19173.000000,16098.000000,50929.000000
10412.000000,19177.000000,16145.000000,50971.000000
10370.000000,19157.000000,16093.000000,50942.000000
10429.000000,19192.000000,16118.000000,50940.000000
10402.000000,19146.000000,16089.000000,50929.000000
10410.000000,19178.000000,16109.000000,50966.000000
10383.000000,19194.000000,16075.000000,50939.000000
10328.000000,19144.000000,15956.000000,50929.000000
10352.000000,19180.000000,16090.000000,50923.000000
10330.000000,19134.000000,16053.000000,50903.000000
10349.000000,19162.000000,16033.000000,50918.000000
10321.000000,19143.000000,16051.000000,50879.000000
10271.000000,19124.000000,15992.000000,50888.000000
10315.000000,19085.000000,16001.000000,50908.000000
10283.000000,19100.000000,16031.000000,50877.000000
10281.000000,19114.000000,15986.000000,50860.000000
10285.000000,19107.000000,15958.000000,50826.000000
10266.000000,19093.000000,15937.000000,50880.000000
10274.000000,19082.000000,15955.000000,50898.000000
10230.000000,19064.000000,15954.000000,50852.000000
10266.000000,19049.000000,15904.000000,50873.000000
10252.000000,19074.000000,15926.000000,50856.000000
10216.000000,19044.000000,15944.000000,50841.000000
10201.000000,19047.000000,15895.000000,50838.000000
10180.000000,19078.000000,15872.000000,50832.000000
10166.000000,19042.000000,15885.000000,50821.000000
10167.000000,19010.000000,15882.000000,50804.000000
10207.000000,19040.000000,15842.000000,50822.000000
10173.000000,19021.000000,15880.000000,50800.000000
10142.000000,19042.000000,15859.000000,50811.000000
10110.000000,19004.000000,15801.000000,50809.000000
10146.000000,19016.000000,15841.000000,50805.000000
10170.000000,18999.000000,15792.000000,50767.000000
10120.000000,19007.000000,15794.000000,50779.000000
10108.000000,19005.000000,15788.000000,50790.000000
10161.000000,18976.000000,15796.000000,50739.000000
10085.000000,19002.000000,15793.000000,50788.000000
10080.000000,18951.000000,15769.000000,50777.000000
10062.000000,18930.000000,15750.000000,50745.000000
10093.000000,19002.000000,15759.000000,50772.000000
10041.000000,18913.000000,15736.000000,50739.000000
10018.000000,18934.000000,15751.000000,50748.000000
10073.000000,18951.000000,15739.000000,50763.000000
10059.000000,18876.000000,15705.000000,50728.000000
10033.000000,18973.000000,15742.000000,50750.000000
10000.000000,18928.000000,15732.000000,50706.000000
10051.000000,18915.000000,15700.000000,50718.000000
10034.000000,18931.000000,15752.000000,50691.000000
9965.000000,18923.000000,15693.000000,50660.000000
9998.000000,18907.000000,15724.000000,50720.000000
9961.000000,18857.000000,15659.000000,50704.000000
9951.000000,18876.000000,15625.000000,50716.000000
9948.000000,18906.000000,15633.000000,50707.000000
9967.000000,18865.000000,15633.000000,50700.000000
9982.000000,18882.000000,15660.000000,50704.000000
9936.000000,18847.000000,15630.000000,50714.000000
9899.000000,18864.000000,15620.000000,50670.000000
9937.000000,18857.000000,15640.000000,50744.000000
9932.000000,18870.000000,15591.000000,50660.000000
9915.000000,18870.000000,15609.000000,50681.000000
9899.000000,18843.000000,15593.000000,50700.000000
9867.000000,18819.000000,15592.000000,50664.000000
9877.000000,18843.000000,15551.000000,50646.000000
9882.000000,18809.000000,15539.000000,50631.000000
9851.000000,18833.000000,15537.000000,50620.000000
9858.000000,18825.000000,15573.000000,50656.000000
9887.000000,18804.000000,15561.000000,50590.000000
9856.000000,18797.000000,15574.000000,50621.000000
9862.000000,18824.000000,15544.000000,50634.000000
9852.000000,18786.000000,15514.000000,50629.000000
9842.000000,18799.000000,15511.000000,50587.000000
9853.000000,18805.000000,15541.000000,50618.000000
9892.000000,18787.000000,15498.000000,50613.000000
9798.000000,18785.000000,15498.000000,50589.000000
9833.000000,18784.000000,15515.000000,50604.000000
9837.000000,18778.000000,15497.000000,50571.000000
9813.000000,18812.000000,15507.000000,50612.000000
9780.000000,18782.000000,15484.000000,50597.000000
9785.000000,18778.000000,15484.000000,50601.000000
9775.000000,18735.000000,15505.000000,50611.000000
9781.000000,18729.000000,15429.000000,50589.000000
9780.000000,18755.000000,15478.000000,50593.000000
9780.000000,18760.000000,15462.000000,50578.000000
9795.000000,18796.000000,15446.000000,50561.000000
9815.000000,18738.000000,15456.000000,50580.000000
9743.000000,18716.000000,15446.000000,50581.000000
9753.000000,18711.000000,15390.000000,50603.000000
9753.000000,18735.000000,15427.000000,50585.000000
9731.000000,18696.000000,15430.000000,50523.000000
9722.000000,18719.000000,15416.000000,50559.000000
9746.000000,18775.000000,15435.000000,50575.000000
9723.000000,18685.000000,15430.000000,50553.000000
9752.000000,18729.000000,15431.000000,50571.000000
10005.000000,18710.000000,15403.000000,50540.000000
9751.000000,18685.000000,15393.000000,50576.000000
9760.000000,18749.000000,15443.000000,50584.000000
9739.000000,18737.000000,15384.000000,50561.000000
9739.000000,18692.000000,15377.000000,50574.000000
9718.000000,18693.000000,15422.000000,50573.000000
9748.000000,18699.000000,15392.000000,50547.000000
9747.000000,18719.000000,15433.000000,50524.000000
9704.000000,18679.000000,15428.000000,50540.000000
9727.000000,18743.000000,15469.000000,50493.000000
9753.000000,18708.000000,15402.000000,50557.000000
9753.000000,18740.000000,15429.000000,50580.000000
9763.000000,18705.000000,15426.000000,50512.000000
9743.000000,18700.000000,15416.000000,50551.000000
9726.000000,18740.000000,15410.000000,50564.000000
9725.000000,18739.000000,15396.000000,50522.000000
9716.000000,18712.000000,15434.000000,50561.000000
9721.000000,18719.000000,15393.000000,50516.000000
9724.000000,18729.000000,15371.000000,50533.000000
9730.000000,18695.000000,15378.000000,50522.000000
9777.000000,18712.000000,15398.000000,50566.000000
9716.000000,18716.000000,15393.000000,50535.000000
9744.000000,18724.000000,15468.000000,50567.000000
9729.000000,18684.000000,15377.000000,50529.000000
9685.000000,18752.000000,15424.000000,50521.000000
9699.000000,18721.000000,15379.000000,50548.000000
9713.000000,18683.000000,15361.000000,50566.000000
9737.000000,18696.000000,15410.000000,50558.000000
9710.000000,18676.000000,15374.000000,50527.000000
9739.000000,18710.000000,15385.000000,50559.000000
9714.000000,18701.000000,15419.000000,50532.000000
9747.000000,18701.000000,15421.000000,50535.000000
9717.000000,18743.000000,15437.000000,50533.000000
9790.000000,18727.000000,15462.000000,50584.000000
9761.000000,18762.000000,15448.000000,50601.000000
9727.000000,18720.000000,15407.000000,50656.000000
9812.000000,18762.000000,15463.000000,50611.000000
9793.000000,18744.000000,15551.000000,50633.000000
9811.000000,18753.000000,15524.000000,50593.000000
9885.000000,18802.000000,15438.000000,50656.000000
9859.000000,18767.000000,15553.000000,50660.000000
9887.000000,18805.000000,15555.000000,50662.000000
9924.000000,18828.000000,15628.000000,50684.000000
9931.000000,18827.000000,15633.000000,50732.000000
9951.000000,18827.000000,15663.000000,50682.000000
10205.000000,18881.000000,15615.000000,50716.000000
9918.000000,18900.000000,15665.000000,50727.000000
10008.000000,18900.000000,15722.000000,50752.000000
9995.000000,18878.000000,15686.000000,50725.000000
10043.000000,18897.000000,15752.000000,50793.000000
10091.000000,18948.000000,15775.000000,50764.000000
10071.000000,18926.000000,15748.000000,50804.000000
10096.000000,18958.000000,15793.000000,50805.000000
10138.000000,18983.000000,15797.000000,50828.000000
10132.000000,18971.000000,15835.000000,50837.000000
10200.000000,19005.000000,15872.000000,50862.000000
10195.000000,19040.000000,15921.000000,50878.000000
10216.000000,19034.000000,15912.000000,50866.000000
10264.000000,19072.000000,15960.000000,50912.000000
10288.000000,19079.000000,15954.000000,50925.000000
10265.000000,19076.000000,16023.000000,50930.000000
10304.000000,19082.000000,16054.000000,50936.000000
10335.000000,19129.000000,16027.000000,50953.000000
10402.000000,19189.000000,16077.000000,50970.000000
10395.000000,19164.000000,16104.000000,50982.000000
10432.000000,19162.000000,16154.000000,50997.000000
10519.000000,19206.000000,16162.000000,51023.000000
10523.000000,19249.000000,16206.000000,51063.000000
10563.000000,19265.000000,16266.000000,51057.000000
10592.000000,19281.000000,16336.000000,51105.000000
10686.000000,19341.000000,16328.000000,51127.000000
10707.000000,19332.000000,16385.000000,51137.000000
10770.000000,19389.000000,16446.000000,51178.000000
10792.000000,19434.000000,16497.000000,51160.000000
10864.000000,19427.000000,16490.000000,51238.000000
10845.000000,19477.000000,16534.000000,51210.000000
10931.000000,19477.000000,16526.000000,51196.000000
10894.000000,19504.000000,16590.000000,51249.000000
10911.000000,19526.000000,16567.000000,51261.000000
10880.000000,19534.000000,16599.000000,51242.000000
10891.000000,19505.000000,16606.000000,51236.000000
10911.000000,19487.000000,16600.000000,51265.000000
10875.000000,19515.000000,16541.000000,51231.000000
10913.000000,19490.000000,16570.000000,51246.000000
10881.000000,19485.000000,16580.000000,51244.000000
10885.000000,19474.000000,16532.000000,51240.000000
10902.000000,19447.000000,16578.000000,51228.000000
10844.000000,19442.000000,16564.000000,51244.000000
10904.000000,19484.000000,16525.000000,51226.000000
10859.000000,19468.000000,16488.000000,51226.000000
10866.000000,19487.000000,16466.000000,51195.000000
10826.000000,19456.000000,16532.000000,51174.000000
10785.000000,19462.000000,16496.000000,51148.000000
10790.000000,19488.000000,16525.000000,51166.000000
10839.000000,19473.000000,16503.000000,51177.000000
10772.000000,19425.000000,16430.000000,51160.000000
10803.000000,19445.000000,16473.000000,51169.000000
10744.000000,19453.000000,16458.000000,51147.000000
10747.000000,19388.000000,16422.000000,51168.000000
10775.000000,19422.000000,16447.000000,51170.000000
10740.000000,19417.000000,16396.000000,51136.000000
10725.000000,19432.000000,16437.000000,51173.000000
10713.000000,19370.000000,16403.000000,51137.000000
10745.000000,19412.000000,16390.000000,51140.000000
10686.000000,19374.000000,16383.000000,51139.000000
10714.000000,19342.000000,16376.000000,51109.000000
10726.000000,19334.000000,16361.000000,51110.000000
10688.000000,19386.000000,16345.000000,51118.000000
10672.000000,19263.000000,16313.000000,51087.000000
10664.000000,19335.000000,16324.000000,51061.000000
10670.000000,19337.000000,16302.000000,51087.000000
10631.000000,19308.000000,16299.000000,51072.000000
10664.000000,19334.000000,16333.000000,51068.000000
10604.000000,19329.000000,16306.000000,51057.000000
10596.000000,19285.000000,16290.000000,51075.000000
10654.000000,19341.000000,16286.000000,51063.000000
10599.000000,19294.000000,16234.000000,51084.000000
10530.000000,19333.000000,16255.000000,51052.000000
10612.000000,19284.000000,16281.000000,51050.000000
10556.000000,19250.000000,16217.000000,51018.000000
10589.000000,19286.000000,16228.000000,51056.000000
10593.000000,19244.000000,16206.000000,51024.000000
10526.000000,19286.000000,16219.000000,51028.000000
10576.000000,19264.000000,16237.000000,51036.000000
10524.000000,19234.000000,16183.000000,51025.000000
10518.000000,19255.000000,16214.000000,51056.000000
10521.000000,19267.000000,16215.000000,51049.000000
10492.000000,19245.000000,16147.000000,50985.000000
10539.000000,19243.000000,16175.000000,50992.000000
10473.000000,19240.000000,16159.000000,50973.000000
10514.000000,19207.000000,16176.000000,51001.000000
10468.000000,19236.000000,16147.000000,51005.000000
10466.000000,19181.000000,16102.000000,50979.000000
10498.000000,19217.000000,16124.000000,50989.000000
10480.000000,19245.000000,16203.000000,50946.000000
10435.000000,19154.000000,16126.000000,50982.000000
10361.000000,19170.000000,16089.000000,50989.000000
10440.000000,19189.000000,16087.000000,50964.000000
10465.000000,19196.000000,16096.000000,50950.000000
10427.000000,19191.000000,16107.000000,50951.000000
10420.000000,19171.000000,16074.000000,50934.000000
10396.000000,19162.000000,16101.000000,50960.000000
10384.000000,19167.000000,16042.000000,50928.000000
10375.000000,19113.000000,16041.000000,50881.000000
10389.000000,19150.000000,16043.000000,50935.000000
10422.000000,19190.000000,16051.000000,50916.000000
10363.000000,19150.000000,16020.000000,50926.000000
10364.000000,19178.000000,16035.000000,50920.000000
10375.000000,19157.000000,16009.000000,50881.000000
10327.000000,19134.000000,15997.000000,50884.000000
10345.000000,19112.000000,16001.000000,50895.000000
10307.000000,19136.000000,15976.000000,50881.000000
10346.000000,19147.000000,15982.000000,50922.000000
10343.000000,19142.000000,15959.000000,50918.000000
10300.000000,19093.000000,15979.000000,50882.000000
10334.000000,19085.000000,16017.000000,50926.000000
10329.000000,19087.000000,16008.000000,50863.000000
10310.000000,19085.000000,15934.000000,50849.000000
10322.000000,19110.000000,15935.000000,50917.000000
10289.000000,19102.000000,15931.000000,50868.000000
10338.000000,19128.000000,15935.000000,50868.000000
10262.000000,19081.000000,15939.000000,50892.000000
10242.000000,19083.000000,15900.000000,50864.000000
10309.000000,19097.000000,15931.000000,50908.000000
10273.000000,19092.000000,15931.000000,50860.000000
10277.000000,19077.000000,15932.000000,50863.000000
10276.000000,19074.000000,15855.000000,50814.000000
10266.000000,19062.000000,15905.000000,50820.000000
10255.000000,19093.000000,15895.000000,50815.000000
10214.000000,19073.000000,15871.000000,50833.000000
10247.000000,19335.000000,15900.000000,50852.000000
10196.000000,19040.000000,15875.000000,50828.000000
10240.000000,19076.000000,15858.000000,50830.000000
10223.000000,19024.000000,15914.000000,50825.000000
10195.000000,19022.000000,15844.000000,50850.000000
10220.000000,19029.000000,15825.000000,50830.000000
10187.000000,19027.000000,15822.000000,50825.000000
10190.000000,19010.000000,15825.000000,50862.000000
10217.000000,19043.000000,15855.000000,50830.000000
10167.000000,19012.000000,15852.000000,50809.000000
10207.000000,19025.000000,15845.000000,50817.000000
10164.000000,19007.000000,15833.000000,50765.000000
10178.000000,18986.000000,15844.000000,50779.000000
10182.000000,19002.000000,15825.000000,50794.000000
10145.000000,18981.000000,15782.000000,50783.000000
10163.000000,19030.000000,15805.000000,50809.000000
10168.000000,19009.000000,15840.000000,50806.000000
10167.000000,18979.000000,15778.000000,50800.000000
10159.000000,18981.000000,15777.000000,50809.000000
10177.000000,19010.000000,15811.000000,50811.000000
10135.000000,18947.000000,15827.000000,50804.000000
10169.000000,18992.000000,15796.000000,50784.000000
10096.000000,19008.000000,15777.000000,50816.000000
10128.000000,19000.000000,15797.000000,50787.000000
10133.000000,18981.000000,15812.000000,50796.000000
10123.000000,18977.000000,15785.000000,50776.000000
10154.000000,18978.000000,15788.000000,50813.000000
10115.000000,18967.000000,15751.000000,50775.000000
10112.000000,18983.000000,15751.000000,50790.000000
10138.000000,18978.000000,15727.000000,50737.000000
10111.000000,18949.000000,15750.000000,50771.000000
10114.000000,19000.000000,15786.000000,50836.000000
10135.000000,18993.000000,15787.000000,50758.000000
10122.000000,18971.000000,15802.000000,50814.000000
10158.000000,18964.000000,15785.000000,50794.000000
10118.000000,19014.000000,15759.000000,50808.000000
10150.000000,19001.000000,15792.000000,50780.000000
10129.000000,18979.000000,15810.000000,50788.000000
10150.000000,19020.000000,15790.000000,50821.000000
10135.000000,18997.000000,15791.000000,50811.000000
10111.000000,18952.000000,15751.000000,50788.000000
10136.000000,18995.000000,15775.000000,50797.000000
10154.000000,19014.000000,15801.000000,50815.000000
10128.000000,19012.000000,15776.000000,50781.000000
10135.000000,18994.000000,15789.000000,50795.000000
10114.000000,18951.000000,15761.000000,50750.000000
10148.000000,19020.000000,15803.000000,50834.000000
10123.000000,18977.000000,15757.000000,50797.000000
10114.000000,18946.000000,15771.000000,50785.000000
10150.000000,18992.000000,15778.000000,50773.000000
10128.000000,18962.000000,15736.000000,50764.000000
10101.000000,18967.000000,15758.000000,50769.000000
10061.000000,18981.000000,15760.000000,50819.000000
10117.000000,18945.000000,15765.000000,50754.000000
10170.000000,18974.000000,15812.000000,50803.000000
10103.000000,18953.000000,15768.000000,50781.000000
10102.000000,18982.000000,15774.000000,50775.000000
10114.000000,18999.000000,15757.000000,50765.000000
10102.000000,18974.000000,15814.000000,50777.000000
10136.000000,18956.000000,15759.000000,50780.000000
10120.000000,18991.000000,15782.000000,50771.000000
10124.000000,19012.000000,15792.000000,50799.000000
10106.000000,18945.000000,15814.000000,50774.000000
10170.000000,18996.000000,15804.000000,50811.000000
10196.000000,19041.000000,15838.000000,50843.000000
10204.000000,19010.000000,15844.000000,50830.000000
10221.000000,19042.000000,15859.000000,50873.000000
10262.000000,19044.000000,15873.000000,50882.000000
10221.000000,19074.000000,15914.000000,50857.000000
10258.000000,19049.000000,15924.000000,50887.000000
10286.000000,19047.000000,15955.000000,50926.000000
10287.000000,19127.000000,15968.000000,50883.000000
10318.000000,19147.000000,15978.000000,50912.000000
10308.000000,19077.000000,15988.000000,50917.000000
10357.000000,19114.000000,16000.000000,50893.000000
10348.000000,19122.000000,16052.000000,50962.000000
10374.000000,19164.000000,16068.000000,50929.000000
10388.000000,19186.000000,16089.000000,51008.000000
10416.000000,19164.000000,16097.000000,50937.000000
10438.000000,19210.000000,16110.000000,50999.000000
10441.000000,19207.000000,16143.000000,50968.000000
10461.000000,19189.000000,16127.000000,51015.000000
10478.000000,19190.000000,16210.000000,51042.000000
10504.000000,19197.000000,16207.000000,51007.000000
10509.000000,19236.000000,16207.000000,51039.000000
10537.000000,19275.000000,16214.000000,51083.000000
10559.000000,19296.000000,16239.000000,51099.000000
10534.000000,19310.000000,16295.000000,51108.000000
10639.000000,19280.000000,16330.000000,51075.000000
10638.000000,19357.000000,16314.000000,51145.000000
10700.000000,19389.000000,16365.000000,51144.000000
10695.000000,19370.000000,16417.000000,51178.000000
10760.000000,19394.000000,16465.000000,51174.000000
10814.000000,19458.000000,16471.000000,51185.000000
10870.000000,19455.000000,16493.000000,51216.000000
10888.000000,19517.000000,16555.000000,51239.000000
10908.000000,19495.000000,16568.000000,51257.000000
10981.000000,19564.000000,16650.000000,51297.000000
11090.000000,19559.000000,16700.000000,51327.000000
11093.000000,19635.000000,16719.000000,51365.000000
11164.000000,19650.000000,16801.000000,51385.000000
11188.000000,19712.000000,16859.000000,51395.000000
11238.000000,19720.000000,16868.000000,51453.000000
11239.000000,19725.000000,16876.000000,51478.000000
11275.000000,19809.000000,16929.000000,51442.000000
11301.000000,19761.000000,16935.000000,51506.000000
11304.000000,19817.000000,16946.000000,51450.000000
11337.000000,19764.000000,16977.000000,51475.000000
11321.000000,19786.000000,16981.000000,51495.000000
11345.000000,19782.000000,16929.000000,51469.000000
11372.000000,19766.000000,16986.000000,51468.000000
11327.000000,19764.000000,16945.000000,51512.000000
11281.000000,19780.000000,16984.000000,51475.000000
11301.000000,19770.000000,16953.000000,51484.000000
11292.000000,19782.000000,16928.000000,51446.000000
11280.000000,19755.000000,16901.000000,51387.000000
11247.000000,19775.000000,16898.000000,51449.000000
11317.000000,19754.000000,16924.000000,51417.000000
11222.000000,19737.000000,16885.000000,51437.000000
11229.000000,19760.000000,16876.000000,51439.000000
11229.000000,19690.000000,16891.000000,51417.000000
11218.000000,19751.000000,16872.000000,51388.000000
11216.000000,19696.000000,16850.000000,51431.000000
11200.000000,19684.000000,16861.000000,51395.000000
11193.000000,19694.000000,16842.000000,51435.000000
11199.000000,19671.000000,16838.000000,51383.000000
11164.000000,19715.000000,16810.000000,51318.000000
11127.000000,19675.000000,16798.000000,51356.000000
11155.000000,19661.000000,16805.000000,51349.000000
11158.000000,19673.000000,16775.000000,51371.000000
11112.000000,19655.000000,16751.000000,51381.000000
11088.000000,19646.000000,16745.000000,51329.000000
11122.000000,19587.000000,16762.000000,51356.000000
11080.000000,19648.000000,16763.000000,51336.000000
11094.000000,19574.000000,16701.000000,51312.000000
11102.000000,19633.000000,16722.000000,51323.000000
11093.000000,19581.000000,16750.000000,51327.000000
11073.000000,19636.000000,16667.000000,51314.000000
11064.000000,19626.000000,16688.000000,51319.000000
11054.000000,19598.000000,16691.000000,51304.000000
11048.000000,19611.000000,16628.000000,51275.000000
11025.000000,19545.000000,16666.000000,51299.000000
11046.000000,19566.000000,16649.000000,51267.000000
11058.000000,19585.000000,16673.000000,51277.000000
10977.000000,19582.000000,16624.000000,51268.000000
10979.000000,19586.000000,16577.000000,51254.000000
10981.000000,19543.000000,16622.000000,51260.000000
11016.000000,19585.000000,16678.000000,51306.000000
10978.000000,19571.000000,16586.000000,51260.000000
10950.000000,19538.000000,16616.000000,51296.000000
10972.000000,19558.000000,16569.000000,51270.000000
10978.000000,19514.000000,16535.000000,51242.000000
10954.000000,19552.000000,16560.000000,51239.000000
10923.000000,19510.000000,16586.000000,51267.000000
10937.000000,19525.000000,16530.000000,51251.000000
10950.000000,19480.000000,16544.000000,51251.000000
10917.000000,19485.000000,16537.000000,51227.000000
10945.000000,19500.000000,16513.000000,51200.000000
10933.000000,19548.000000,16529.000000,51184.000000
10915.000000,19490.000000,16462.000000,51205.000000
10899.000000,19464.000000,16509.000000,51240.000000
10909.000000,19529.000000,16498.000000,51186.000000
10861.000000,19512.000000,16471.000000,51220.000000
10869.000000,19475.000000,16470.000000,51216.000000
10817.000000,19481.000000,16459.000000,51204.000000
10860.000000,19439.000000,16467.000000,51150.000000
10846.000000,19463.000000,16467.000000,51177.000000
10823.000000,19485.000000,16447.000000,51173.000000
10772.000000,19433.000000,16416.000000,51179.000000
10805.000000,19427.000000,16415.000000,51178.000000
10828.000000,19461.000000,16430.000000,51140.000000
10770.000000,19501.000000,16442.000000,51154.000000
10779.000000,19437.000000,16410.000000,51146.000000
10789.000000,19451.000000,16439.000000,51141.000000
10742.000000,19405.000000,16346.000000,51130.000000
10751.000000,19409.000000,16383.000000,51176.000000
10745.000000,19409.000000,16334.000000,51093.000000
10750.000000,19393.000000,16339.000000,51123.000000
10735.000000,19372.000000,16365.000000,51141.000000
10742.000000,19388.000000,16344.000000,51121.000000
10714.000000,19411.000000,16333.000000,51077.000000
10754.000000,19374.000000,16364.000000,51110.000000
10697.000000,19387.000000,16344.000000,51112.000000
10707.000000,19356.000000,16322.000000,51066.000000
10672.000000,19365.000000,16325.000000,51099.000000
10739.000000,19404.000000,16326.000000,51082.000000
10710.000000,19351.000000,16228.000000,51084.000000
10693.000000,19358.000000,16313.000000,51086.000000
10698.000000,19327.000000,16260.000000,51063.000000
10671.000000,19301.000000,16224.000000,51044.000000
10643.000000,19330.000000,16284.000000,51105.000000
10654.000000,19317.000000,16253.000000,51104.000000
10642.000000,19304.000000,16263.000000,51091.000000
10612.000000,19338.000000,16241.000000,51076.000000
10635.000000,19321.000000,16203.000000,51037.000000
10599.000000,19298.000000,16224.000000,51029.000000
10613.000000,19323.000000,16212.000000,51048.000000
10605.000000,19302.000000,16153.000000,51024.000000
10604.000000,19297.000000,16213.000000,51029.000000
10619.000000,19311.000000,16203.000000,51082.000000
10616.000000,19247.000000,16166.000000,51042.000000
10608.000000,19268.000000,16191.000000,51007.000000
10575.000000,19270.000000,16177.000000,51053.000000
10552.000000,19276.000000,16141.000000,50994.000000
10559.000000,19279.000000,16162.000000,51031.000000
10576.000000,19255.000000,16149.000000,51001.000000
10553.000000,19282.000000,16148.000000,51023.000000
10532.000000,19238.000000,16173.000000,50983.000000
10545.000000,19211.000000,16128.000000,50976.000000
10545.000000,19283.000000,16149.000000,50986.000000
10544.000000,19205.000000,16129.000000,51005.000000
10546.000000,19298.000000,16099.000000,51053.000000
10526.000000,19250.000000,16105.000000,50973.000000
10547.000000,19214.000000,16131.000000,50967.000000
10568.000000,19261.000000,16133.000000,50986.000000
10542.000000,19219.000000,16136.000000,50989.000000
10518.000000,19236.000000,16096.000000,50944.000000
10496.000000,19223.000000,16127.000000,50976.000000
10490.000000,19251.000000,16104.000000,50915.000000
10515.000000,19189.000000,16101.000000,50960.000000
10468.000000,19244.000000,16106.000000,50964.000000
10509.000000,19206.000000,16097.000000,50939.000000
10495.000000,19223.000000,16114.000000,50960.000000
10512.000000,19241.000000,16044.000000,50970.000000
10489.000000,19222.000000,16064.000000,50937.000000
10458.000000,19222.000000,16069.000000,50976.000000
10568.000000,19212.000000,16125.000000,50965.000000
10465.000000,19212.000000,16030.000000,50961.000000
10505.000000,19208.000000,16072.000000,50980.000000
10476.000000,19196.000000,16046.000000,50972.000000
10497.000000,19178.000000,16113.000000,50961.000000
10524.000000,19200.000000,16071.000000,50937.000000
10499.000000,19215.000000,16101.000000,50945.000000
10503.000000,19200.000000,16085.000000,50952.000000
10498.000000,19231.000000,16079.000000,50960.000000
10474.000000,19193.000000,16053.000000,50970.000000
10512.000000,19205.000000,16056.000000,50935.000000
10456.000000,19181.000000,16064.000000,50963.000000
10448.000000,19185.000000,16052.000000,50956.000000
10507.000000,19231.000000,16060.000000,50952.000000
10439.000000,19175.000000,16037.000000,50966.000000
10503.000000,19187.000000,16078.000000,50960.000000
10452.000000,19146.000000,16053.000000,50932.000000
10526.000000,19193.000000,16097.000000,50916.000000
10461.000000,19149.000000,16053.000000,50954.000000
10481.000000,19187.000000,16037.000000,50928.000000
10480.000000,19240.000000,16038.000000,50947.000000
10466.000000,19181.000000,16043.000000,50967.000000
10481.000000,19212.000000,16055.000000,50943.000000
10478.000000,19182.000000,16032.000000,50962.000000
10449.000000,19163.000000,16037.000000,50957.000000
10468.000000,19227.000000,16053.000000,50942.000000
10466.000000,19212.000000,16025.000000,50939.000000
10477.000000,19178.000000,16077.000000,50956.000000
10476.000000,19192.000000,16085.000000,50989.000000
10482.000000,19200.000000,16050.000000,50915.000000
10544.000000,19191.000000,16065.000000,50976.000000
10523.000000,19199.000000,16098.000000,50994.000000
10516.000000,19202.000000,16139.000000,50975.000000
10565.000000,19240.000000,16140.000000,50995.000000
10503.000000,19233.000000,16119.000000,51015.000000
10553.000000,19236.000000,16159.000000,51019.000000
10592.000000,19273.000000,16157.000000,51023.000000
10594.000000,19231.000000,16191.000000,51008.000000
10625.000000,19287.000000,16221.000000,51024.000000
10599.000000,19269.000000,16229.000000,51041.000000
10596.000000,19280.000000,16227.000000,51074.000000
10681.000000,19282.000000,16251.000000,51076.000000
10641.000000,19328.000000,16272.000000,51057.000000
10678.000000,19324.000000,16264.000000,51075.000000
10719.000000,19305.000000,16276.000000,51075.000000
10710.000000,19336.000000,16324.000000,51119.000000
10700.000000,19339.000000,16280.000000,51077.000000
10692.000000,19361.000000,16330.000000,51118.000000
10749.000000,19445.000000,16379.000000,51130.000000
10769.000000,19371.000000,16383.000000,51166.000000
10792.000000,19418.000000,16368.000000,51207.000000
10795.000000,19413.000000,16429.000000,51202.000000
10837.000000,19475.000000,16455.000000,51188.000000
10835.000000,19432.000000,16473.000000,51203.000000
10914.000000,19433.000000,16508.000000,51212.000000
10938.000000,19518.000000,16520.000000,51212.000000
10939.000000,19550.000000,16597.000000,51281.000000
11043.000000,19558.000000,16592.000000,51255.000000
10999.000000,19577.000000,16627.000000,51300.000000
11080.000000,19616.000000,16649.000000,51328.000000
11111.000000,19603.000000,16746.000000,51342.000000
11137.000000,19662.000000,16791.000000,51388.000000
11204.000000,19702.000000,16790.000000,51375.000000
11285.000000,19726.000000,16860.000000,51445.000000
11288.000000,19774.000000,16916.000000,51435.000000
11342.000000,19786.000000,16934.000000,51472.000000
11384.000000,19820.000000,17000.000000,51478.000000
11453.000000,19831.000000,17020.000000,51493.000000
11459.000000,19921.000000,17067.000000,51563.000000
11466.000000,19913.000000,17087.000000,51519.000000
11498.000000,19918.000000,17104.000000,51533.000000
11508.000000,19918.000000,17035.000000,51570.000000
11461.000000,19915.000000,17075.000000,51523.000000
11524.000000,19904.000000,17097.000000,51575.000000
11450.000000,19915.000000,17064.000000,51512.000000
11456.000000,19924.000000,17058.000000,51545.000000
11470.000000,19901.000000,17092.000000,51503.000000
11458.000000,19869.000000,17035.000000,51507.000000
11486.000000,19886.000000,17067.000000,51475.000000
11436.000000,19875.000000,17043.000000,51535.000000
11413.000000,19850.000000,17045.000000,51486.000000
11419.000000,19865.000000,17024.000000,51520.000000
11393.000000,19893.000000,17002.000000,51513.000000
11387.000000,19882.000000,17001.000000,51469.000000
11419.000000,19804.000000,16999.000000,51463.000000
11406.000000,19841.000000,17006.000000,51509.000000
11403.000000,19851.000000,16992.000000,51476.000000
11369.000000,19802.000000,16968.000000,51428.000000
11376.000000,19786.000000,16930.000000,51475.000000
11346.000000,19794.000000,16916.000000,51426.000000
11340.000000,19786.000000,16942.000000,51489.000000
11302.000000,19791.000000,16885.000000,51420.000000
11294.000000,19800.000000,16849.000000,51426.000000
11329.000000,19781.000000,16836.000000,51436.000000
11308.000000,19755.000000,16883.000000,51425.000000
11252.000000,19740.000000,16874.000000,51391.000000
11277.000000,19787.000000,16827.000000,51400.000000
11256.000000,19707.000000,16823.000000,51381.000000
11247.000000,19720.000000,16813.000000,51381.000000
11259.000000,19737.000000,16827.000000,51363.000000
11213.000000,19730.000000,16821.000000,51328.000000
11238.000000,19734.000000,16792.000000,51344.000000
11193.000000,19693.000000,16816.000000,51361.000000
11202.000000,19668.000000,16785.000000,51353.000000
11258.000000,19717.000000,16768.000000,51345.000000
11163.000000,19655.000000,16754.000000,51325.000000
11202.000000,19695.000000,16698.000000,51342.000000
11198.000000,19705.000000,16741.000000,51358.000000
11143.000000,19656.000000,16775.000000,51350.000000
11189.000000,19602.000000,16760.000000,51338.000000
11153.000000,19664.000000,16730.000000,51323.000000
11165.000000,19650.000000,16706.000000,51287.000000
11123.000000,19643.000000,16707.000000,51316.000000
11124.000000,19646.000000,16666.000000,51311.000000
11118.000000,19655.000000,16711.000000,51338.000000
11113.000000,19620.000000,16681.000000,51309.000000
11084.000000,19637.000000,16658.000000,51302.000000
11081.000000,19672.000000,16648.000000,51295.000000
11047.000000,19599.000000,16654.000000,51254.000000
11086.000000,19622.000000,16691.000000,51315.000000
11072.000000,19617.000000,16668.000000,51253.000000
11049.000000,19609.000000,16646.000000,51261.000000
11070.000000,19619.000000,16631.000000,51274.000000
11049.000000,19563.000000,16591.000000,51255.000000
11047.000000,19611.000000,16568.000000,51266.000000
11002.000000,19588.000000,16551.000000,51274.000000
11058.000000,19587.000000,16578.000000,51207.000000
11019.000000,19593.000000,16582.000000,51253.000000
11012.000000,19594.000000,16546.000000,51221.000000
11029.000000,19567.000000,16564.000000,51252.000000
10959.000000,19485.000000,16544.000000,51213.000000
10982.000000,19565.000000,16515.000000,51214.000000
10991.000000,19565.000000,16552.000000,51193.000000
10937.000000,19549.000000,16501.000000,51220.000000
11020.000000,19546.000000,16517.000000,51255.000000
10955.000000,19541.000000,16489.000000,51192.000000
10958.000000,19550.000000,16533.000000,51215.000000
10971.000000,19518.000000,16547.000000,51187.000000
10911.000000,19539.000000,16532.000000,51193.000000
10903.000000,19530.000000,16490.000000,51200.000000
10894.000000,19471.000000,16471.000000,51173.000000
10944.000000,19560.000000,16474.000000,51242.000000
10917.000000,19455.000000,16435.000000,51201.000000
10896.000000,19521.000000,16429.000000,51115.000000
10920.000000,19512.000000,16469.000000,51149.000000
10883.000000,19550.000000,16439.000000,51167.000000
10868.000000,19493.000000,16429.000000,51173.000000
10819.000000,19489.000000,16408.000000,51219.000000
10855.000000,19479.000000,16434.000000,51144.000000
10848.000000,19493.000000,16437.000000,51178.000000
10814.000000,19450.000000,16372.000000,51140.000000
10838.000000,19463.000000,16399.000000,51113.000000
10863.000000,19456.000000,16452.000000,51138.000000
10862.000000,19420.000000,16359.000000,51120.000000
10788.000000,19440.000000,16403.000000,51136.000000
10749.000000,19429.000000,16371.000000,51112.000000
10774.000000,19425.000000,16371.000000,51104.000000
10784.000000,19409.000000,16354.000000,51114.000000
10765.000000,19428.000000,16334.000000,51047.000000
10744.000000,19416.000000,16330.000000,51104.000000
10751.000000,19459.000000,16326.000000,51094.000000
10744.000000,19352.000000,16297.000000,51076.000000
10771.000000,19429.000000,16283.000000,51094.000000
10722.000000,19393.000000,16275.000000,51090.000000
10783.000000,19395.000000,16292.000000,51059.000000
10727.000000,19435.000000,16266.000000,51072.000000
10705.000000,19336.000000,16281.000000,51057.000000
10762.000000,19371.000000,16305.000000,51064.000000
10715.000000,19333.000000,16244.000000,51017.000000
10691.000000,19364.000000,16281.000000,51115.000000
10700.000000,19342.000000,16241.000000,51097.000000
10701.000000,19350.000000,16263.000000,51091.000000
10687.000000,19377.000000,16249.000000,51104.000000
10629.000000,19353.000000,16228.000000,51037.000000
10700.000000,19359.000000,16252.000000,51041.000000
10680.000000,19328.000000,16187.000000,51097.000000
10684.000000,19371.000000,16280.000000,51057.000000
10667.000000,19301.000000,16187.000000,51041.000000
10708.000000,19343.000000,16235.000000,51035.000000
10679.000000,19298.000000,16214.000000,51028.000000
10593.000000,19319.000000,16197.000000,51003.000000
10674.000000,19346.000000,16202.000000,51045.000000
10619.000000,19302.000000,16182.000000,51025.000000
10670.000000,19323.000000,16206.000000,51027.000000
10682.000000,19288.000000,16190.000000,51026.000000
10625.000000,19319.000000,16206.000000,50984.000000
10621.000000,19311.000000,16197.000000,51004.000000
10662.000000,19334.000000,16170.000000,51008.000000
10652.000000,19324.000000,16203.000000,51047.000000
10648.000000,19341.000000,16201.000000,51021.000000
10632.000000,19310.000000,16205.000000,51019.000000
10623.000000,19307.000000,16181.000000,51013.000000
10636.000000,19300.000000,16178.000000,51012.000000
10636.000000,19332.000000,16168.000000,51003.000000
10642.000000,19320.000000,16144.000000,50982.000000
10655.000000,19326.000000,16170.000000,51002.000000
10590.000000,19296.000000,16154.000000,50989.000000
10621.000000,19296.000000,16153.000000,50986.000000
10604.000000,19275.000000,16147.000000,51035.000000
10588.000000,19272.000000,16124.000000,51012.000000
10593.000000,19324.000000,16138.000000,51005.000000
10613.000000,19304.000000,16099.000000,50990.000000
10570.000000,19286.000000,16148.000000,51016.000000
10602.000000,19275.000000,16122.000000,51049.000000
10586.000000,19295.000000,16118.000000,50998.000000
10589.000000,19270.000000,16137.000000,50997.000000
10571.000000,19218.000000,16097.000000,50992.000000
10562.000000,19233.000000,16120.000000,50951.000000
10597.000000,19241.000000,16129.000000,50998.000000
10544.000000,19219.000000,16110.000000,50990.000000
10547.000000,19290.000000,16142.000000,51022.000000
10578.000000,19276.000000,16088.000000,50977.000000
10592.000000,19273.000000,16119.000000,50982.000000
10572.000000,19247.000000,16152.000000,51009.000000
10616.000000,19278.000000,16130.000000,51021.000000
10635.000000,19213.000000,16164.000000,51042.000000
10644.000000,19285.000000,16174.000000,51018.000000
10628.000000,19324.000000,16184.000000,51031.000000
10644.000000,19354.000000,16189.000000,51040.000000
10696.000000,19324.000000,16188.000000,51041.000000
10670.000000,19358.000000,16233.000000,51018.000000
10700.000000,19325.000000,16223.000000,51053.000000
10692.000000,19364.000000,16219.000000,51058.000000
10701.000000,19425.000000,16275.000000,51068.000000
10749.000000,19376.000000,16273.000000,51099.000000
10750.000000,19343.000000,16284.000000,51080.000000
10759.000000,19372.000000,16308.000000,51125.000000
10830.000000,19389.000000,16333.000000,51137.000000
10816.000000,19415.000000,16328.000000,51128.000000
10808.000000,19409.000000,16338.000000,51112.000000
10822.000000,19423.000000,16377.000000,51143.000000
10906.000000,19448.000000,16371.000000,51136.000000
10868.000000,19466.000000,16472.000000,51186.000000
10882.000000,19501.000000,16450.000000,51192.000000
10918.000000,19460.000000,16457.000000,51156.000000
10940.000000,19511.000000,16499.000000,51212.000000
10938.000000,19470.000000,16470.000000,51200.000000
10979.000000,19530.000000,16518.000000,51217.000000
10995.000000,19568.000000,16567.000000,51267.000000
11023.000000,19575.000000,16611.000000,51227.000000
11058.000000,19581.000000,16595.000000,51240.000000
11105.000000,19597.000000,16642.000000,51292.000000
11124.000000,19634.000000,16647.000000,51294.000000
11188.000000,19665.000000,16723.000000,51321.000000
11230.000000,19776.000000,16784.000000,51328.000000
11335.000000,19731.000000,16850.000000,51391.000000
11339.000000,19798.000000,16843.000000,51421.000000
11367.000000,19809.000000,16913.000000,51442.000000
11439.000000,19813.000000,16945.000000,51466.000000
11453.000000,19845.000000,17025.000000,51514.000000
11535.000000,19907.000000,17040.000000,51526.000000
11578.000000,19901.000000,17100.000000,51536.000000
11600.000000,19970.000000,17143.000000,51560.000000
11618.000000,20003.000000,17116.000000,51581.000000
11630.000000,20001.000000,17124.000000,51570.000000
11661.000000,19941.000000,17171.000000,51603.000000
11623.000000,19944.000000,17160.000000,51601.000000
11651.000000,20002.000000,17200.000000,51601.000000
11629.000000,19986.000000,17152.000000,51568.000000
11644.000000,19993.000000,17136.000000,51577.000000
11650.000000,19970.000000,17122.000000,51573.000000
11639.000000,19947.000000,17159.000000,51584.000000
11617.000000,19990.000000,17139.000000,51576.000000
11647.000000,19949.000000,17117.000000,51577.000000
11588.000000,19959.000000,17105.000000,51555.000000
11615.000000,19938.000000,17101.000000,51563.000000
11580.000000,19914.000000,17068.000000,51582.000000
11558.000000,19897.000000,17082.000000,51505.000000
11581.000000,19936.000000,17074.000000,51554.000000
11553.000000,19870.000000,17039.000000,51463.000000
11593.000000,19931.000000,17026.000000,51536.000000
11562.000000,19858.000000,17038.000000,51500.000000
11506.000000,19913.000000,16996.000000,51484.000000
11481.000000,19898.000000,16991.000000,51490.000000
11466.000000,19882.000000,16994.000000,51492.000000
11481.000000,19850.000000,16970.000000,51519.000000
11505.000000,19883.000000,16964.000000,51468.000000
11467.000000,19846.000000,16952.000000,51462.000000
11476.000000,19845.000000,16921.000000,51472.000000
11454.000000,19889.000000,16970.000000,51462.000000
11430.000000,19833.000000,16900.000000,51462.000000
11404.000000,19788.000000,16934.000000,51412.000000
11398.000000,19819.000000,16862.000000,51450.000000
11445.000000,19805.000000,16914.000000,51482.000000
11393.000000,19773.000000,16843.000000,51439.000000
11358.000000,19799.000000,16879.000000,51408.000000
11340.000000,19799.000000,16834.000000,51383.000000
11369.000000,19811.000000,16823.000000,51445.000000
11317.000000,19786.000000,16860.000000,51414.000000
11317.000000,19771.000000,16809.000000,51370.000000
11336.000000,19778.000000,16807.000000,51381.000000
11312.000000,19755.000000,16806.000000,51378.000000
11248.000000,19747.000000,16790.000000,51373.000000
11275.000000,19720.000000,16765.000000,51362.000000
11311.000000,19744.000000,16794.000000,51370.000000
11260.000000,19717.000000,16732.000000,51323.000000
11204.000000,19731.000000,16749.000000,51378.000000
11268.000000,19694.000000,16709.000000,51309.000000
11257.000000,19707.000000,16693.000000,51331.000000
11257.000000,19722.000000,16704.000000,51334.000000
11215.000000,19690.000000,16654.000000,51320.000000
11229.000000,19721.000000,16683.000000,51334.000000
11206.000000,19670.000000,16651.000000,51292.000000
11199.000000,19688.000000,16684.000000,51316.000000
11202.000000,19649.000000,16685.000000,51309.000000
11174.000000,19698.000000,16609.000000,51283.000000
11178.000000,19707.000000,16605.000000,51313.000000
11168.000000,19587.000000,16595.000000,51266.000000
11141.000000,19625.000000,16636.000000,51268.000000
11139.000000,19673.000000,16620.000000,51242.000000
11131.000000,19610.000000,16576.000000,51246.000000
11144.000000,19609.000000,16576.000000,51235.000000
11115.000000,19557.000000,16526.000000,51238.000000
11096.000000,19641.000000,16581.000000,51323.000000
11059.000000,19579.000000,16566.000000,51231.000000
11070.000000,19540.000000,16538.000000,51238.000000
11069.000000,19588.000000,16554.000000,51236.000000
11074.000000,19586.000000,16525.000000,51255.000000
11049.000000,19612.000000,16528.000000,51203.000000
11027.000000,19587.000000,16489.000000,51222.000000
11072.000000,19615.000000,16529.000000,51222.000000
11037.000000,19567.000000,16461.000000,51217.000000
11044.000000,19588.000000,16485.000000,51240.000000
11021.000000,19528.000000,16435.000000,51224.000000
10990.000000,19528.000000,16472.000000,51260.000000
11016.000000,19502.000000,16461.000000,51195.000000
10935.000000,19560.000000,16437.000000,51151.000000
11005.000000,19520.000000,16457.000000,51231.000000
10968.000000,19496.000000,16445.000000,51172.000000
10996.000000,19537.000000,16438.000000,51156.000000
10991.000000,19516.000000,16442.000000,51168.000000
10973.000000,19521.000000,16393.000000,51165.000000
10979.000000,19536.000000,16403.000000,51178.000000
10944.000000,19470.000000,16377.000000,51110.000000
10949.000000,19510.000000,16418.000000,51142.000000
10938.000000,19505.000000,16419.000000,51143.000000
10898.000000,19475.000000,16339.000000,51134.000000
10930.000000,19504.000000,16398.000000,51092.000000
10904.000000,19463.000000,16303.000000,51134.000000
10890.000000,19479.000000,16305.000000,51105.000000
10851.000000,19452.000000,16346.000000,51091.000000
10837.000000,19486.000000,16351.000000,51128.000000
10884.000000,19432.000000,16311.000000,51092.000000
10884.000000,19482.000000,16307.000000,51098.000000
10873.000000,19439.000000,16322.000000,51122.000000
10821.000000,19458.000000,16274.000000,51121.000000
10842.000000,19431.000000,16325.000000,51089.000000
10775.000000,19421.000000,16252.000000,51079.000000
10803.000000,19386.000000,16277.000000,51096.000000
10802.000000,19404.000000,16312.000000,51075.000000
10777.000000,19393.000000,16286.000000,51034.000000
10790.000000,19429.000000,16267.000000,51071.000000
10793.000000,19383.000000,16270.000000,51059.000000
10780.000000,19366.000000,16240.000000,51096.000000
10814.000000,19388.000000,16236.000000,51109.000000
10743.000000,19405.000000,16257.000000,51048.000000
10736.000000,19396.000000,16219.000000,51035.000000
10751.000000,19364.000000,16178.000000,51034.000000
10815.000000,19367.000000,16205.000000,51042.000000
10714.000000,19332.000000,16212.000000,51019.000000
10736.000000,19240.000000,16198.000000,51081.000000
10760.000000,19346.000000,16191.000000,51021.000000
10710.000000,19329.000000,16194.000000,51055.000000
10739.000000,19347.000000,16169.000000,51055.000000
10726.000000,19373.000000,16146.000000,51021.000000
10723.000000,19328.000000,16164.000000,51031.000000
10673.000000,19284.000000,16134.000000,50977.000000
10668.000000,19333.000000,16159.000000,51015.000000
10671.000000,19322.000000,16120.000000,50998.000000
10647.000000,19377.000000,16105.000000,51000.000000
10663.000000,19310.000000,16098.000000,50985.000000
10680.000000,19266.000000,16121.000000,50933.000000
10695.000000,19289.000000,16130.000000,51000.000000
10686.000000,19330.000000,16123.000000,50977.000000
10629.000000,19342.000000,16125.000000,50984.000000
10640.000000,19296.000000,16054.000000,50930.000000
10649.000000,19295.000000,16136.000000,50947.000000
10652.000000,19286.000000,16124.000000,50981.000000
10655.000000,19342.000000,16093.000000,50975.000000
10644.000000,19276.000000,16096.000000,50976.000000
10621.000000,19315.000000,16039.000000,50987.000000
10648.000000,19271.000000,16071.000000,50970.000000
10580.000000,19287.000000,16031.000000,50888.000000
10646.000000,19281.000000,16065.000000,50965.000000
10615.000000,19331.000000,16093.000000,50960.000000
10612.000000,19288.000000,16031.000000,50963.000000
10612.000000,19288.000000,16053.000000,50941.000000
10597.000000,19255.000000,16052.000000,50989.000000
10638.000000,19267.000000,16064.000000,50962.000000
10619.000000,19242.000000,16043.000000,50963.000000
10550.000000,19287.000000,16077.000000,50963.000000
10599.000000,19258.000000,16047.000000,50976.000000
10572.000000,19275.000000,16058.000000,51020.000000
10572.000000,19261.000000,16038.000000,50913.000000
10610.000000,19227.000000,16032.000000,50911.000000
10597.000000,19281.000000,16107.000000,50956.000000
10572.000000,19259.000000,16039.000000,50943.000000
10622.000000,19208.000000,15961.000000,51000.000000
10559.000000,19250.000000,16024.000000,50960.000000
10569.000000,19273.000000,16029.000000,50948.000000
10573.000000,19235.000000,16025.000000,50909.000000
10588.000000,19229.000000,16037.000000,50954.000000
10561.000000,19195.000000,16017.000000,50920.000000
10547.000000,19237.000000,16009.000000,50939.000000
10567.000000,19234.000000,16016.000000,50921.000000
10577.000000,19238.000000,15968.000000,50953.000000
10581.000000,19239.000000,16010.000000,50939.000000
10593.000000,19224.000000,16039.000000,50956.000000
10578.000000,19309.000000,16026.000000,50980.000000
10612.000000,19258.000000,16030.000000,50971.000000
10677.000000,19268.000000,16034.000000,50934.000000
10591.000000,19260.000000,16063.000000,50981.000000
10626.000000,19267.000000,16049.000000,50972.000000
10641.000000,19267.000000,16081.000000,50977.000000
10612.000000,19290.000000,16092.000000,50989.000000
10671.000000,19309.000000,16123.000000,51019.000000
10679.000000,19300.000000,16133.000000,51000.000000
10726.000000,19360.000000,16182.000000,51064.000000
10717.000000,19337.000000,16186.000000,51031.000000
10704.000000,19367.000000,16214.000000,51050.000000
10739.000000,19357.000000,16189.000000,51047.000000
10754.000000,19338.000000,16191.000000,51061.000000
10787.000000,19355.000000,16220.000000,51050.000000
10777.000000,19366.000000,16268.000000,51065.000000
10784.000000,19414.000000,16304.000000,51111.000000
10805.000000,19383.000000,16229.000000,51106.000000
10833.000000,19420.000000,16309.000000,51140.000000
10867.000000,19434.000000,16332.000000,51121.000000
10877.000000,19420.000000,16336.000000,51158.000000
10899.000000,19450.000000,16368.000000,51119.000000
10905.000000,19466.000000,16371.000000,51175.000000
10932.000000,19471.000000,16354.000000,51168.000000
10974.000000,19473.000000,16445.000000,51194.000000
10988.000000,19496.000000,16468.000000,51180.000000
10984.000000,19573.000000,16439.000000,51219.000000
11013.000000,19555.000000,16545.000000,51217.000000
11047.000000,19564.000000,16556.000000,51229.000000
11073.000000,19589.000000,16520.000000,51218.000000
11077.000000,19552.000000,16565.000000,51278.000000
11131.000000,19637.000000,16637.000000,51321.000000
11189.000000,19685.000000,16646.000000,51364.000000
11188.000000,19678.000000,16707.000000,51348.000000
11252.000000,19654.000000,16743.000000,51358.000000
11301.000000,19738.000000,16780.000000,51396.000000
11342.000000,19767.000000,16817.000000,51416.000000
11436.000000,19805.000000,16860.000000,51431.000000
11383.000000,19818.000000,16906.000000,51438.000000
11467.000000,19875.000000,16952.000000,51428.000000
11526.000000,19910.000000,16974.000000,51543.000000
11525.000000,19904.000000,17014.000000,51522.000000
