660nm,730nm,850nm,940nm
29157.000000,20122.000000,12521.000000,51796.000000
29148.000000,20179.000000,12520.000000,51812.000000
29132.000000,20194.000000,12517.000000,51832.000000
29120.000000,20176.000000,12500.000000,51806.000000
29066.000000,20149.000000,12441.000000,51862.000000
29078.000000,20140.000000,12496.000000,51777.000000
29077.000000,20232.000000,12480.000000,51753.000000
29089.000000,20162.000000,12420.000000,51744.000000
29085.000000,20207.000000,12459.000000,51850.000000
29081.000000,20117.000000,12445.000000,51783.000000
29146.000000,20148.000000,12445.000000,51787.000000
28975.000000,20151.000000,12469.000000,51736.000000
29015.000000,20079.000000,12375.000000,51758.000000
29003.000000,20142.000000,12398.000000,51717.000000
29004.000000,20103.000000,12377.000000,51754.000000
28992.000000,20107.000000,12421.000000,51757.000000
29041.000000,20076.000000,12352.000000,51722.000000
28898.000000,20073.000000,12430.000000,51704.000000
28978.000000,20066.000000,12346.000000,51713.000000
28978.000000,20108.000000,12379.000000,51536.000000
28970.000000,20018.000000,12299.000000,51714.000000
28968.000000,19998.000000,12385.000000,51641.000000
29008.000000,20094.000000,12361.000000,51698.000000
28913.000000,20127.000000,12205.000000,51628.000000
28881.000000,20033.000000,12318.000000,51652.000000
28945.000000,19990.000000,12193.000000,51656.000000
28880.000000,20000.000000,12229.000000,51675.000000
28838.000000,19953.000000,12215.000000,51654.000000
28848.000000,20025.000000,12222.000000,51622.000000
28850.000000,20014.000000,12226.000000,51593.000000
28784.000000,19960.000000,12186.000000,51577.000000
28842.000000,19928.000000,12149.000000,51558.000000
28835.000000,19927.000000,12107.000000,51513.000000
28870.000000,19904.000000,12108.000000,51558.000000
28807.000000,19887.000000,12055.000000,51642.000000
28799.000000,19946.000000,12049.000000,51576.000000
28853.000000,19914.000000,12079.000000,51510.000000
28794.000000,19818.000000,12082.000000,51527.000000
28836.000000,19890.000000,12095.000000,51527.000000
28782.000000,19841.000000,12064.000000,51513.000000
28793.000000,19896.000000,12021.000000,51542.000000
28762.000000,19830.000000,12044.000000,51523.000000
28773.000000,19882.000000,12010.000000,51544.000000
28730.000000,19923.000000,12034.000000,51538.000000
28719.000000,19852.000000,12064.000000,51520.000000
28753.000000,19782.000000,11969.000000,51517.000000
28687.000000,19806.000000,11913.000000,51478.000000
28668.000000,19797.000000,11991.000000,51443.000000
28672.000000,19746.000000,11866.000000,51438.000000
28662.000000,19834.000000,11905.000000,51431.000000
28624.000000,19716.000000,11865.000000,51478.000000
28637.000000,19826.000000,11827.000000,51442.000000
28593.000000,19691.000000,11835.000000,51410.000000
28635.000000,19634.000000,11932.000000,51373.000000
28610.000000,19727.000000,11787.000000,51419.000000
28562.000000,19632.000000,11712.000000,51381.000000
28559.000000,19733.000000,11733.000000,51387.000000
28589.000000,19642.000000,11711.000000,51345.000000
28633.000000,19628.000000,11742.000000,51352.000000
28541.000000,19614.000000,11705.000000,51358.000000
28613.000000,19702.000000,11727.000000,51353.000000
28604.000000,19658.000000,11656.000000,51308.000000
28583.000000,19615.000000,11740.000000,51365.000000
28504.000000,19630.000000,11647.000000,51351.000000
28602.000000,19664.000000,11658.000000,51419.000000
28542.000000,19639.000000,11703.000000,51355.000000
28549.000000,19499.000000,11680.000000,51322.000000
28572.000000,19630.000000,11661.000000,51354.000000
28524.000000,19631.000000,11640.000000,51421.000000
28528.000000,19584.000000,11647.000000,51338.000000
28527.000000,19574.000000,11629.000000,51323.000000
28527.000000,19611.000000,11642.000000,51312.000000
28541.000000,19542.000000,11586.000000,51293.000000
28440.000000,19484.000000,11632.000000,51207.000000
28459.000000,19492.000000,11551.000000,51244.000000
28458.000000,19477.000000,11614.000000,51274.000000
28413.000000,19460.000000,11468.000000,51292.000000
28439.000000,19478.000000,11498.000000,51222.000000
28415.000000,19489.000000,11506.000000,51240.000000
28371.000000,19434.000000,11477.000000,51251.000000
28427.000000,19469.000000,11458.000000,51233.000000
28378.000000,19437.000000,11475.000000,51243.000000
28398.000000,19460.000000,11450.000000,51210.000000
28368.000000,19422.000000,11399.000000,51190.000000
28330.000000,19438.000000,11445.000000,51209.000000
28284.000000,19408.000000,11426.000000,51218.000000
28347.000000,19311.000000,11337.000000,51180.000000
28320.000000,19386.000000,11411.000000,51200.000000
28363.000000,19344.000000,11476.000000,51164.000000
28287.000000,19337.000000,11337.000000,51162.000000
28312.000000,19280.000000,11266.000000,51168.000000
28318.000000,19343.000000,11320.000000,51149.000000
28285.000000,19270.000000,11329.000000,51093.000000
28282.000000,19343.000000,11318.000000,51141.000000
28238.000000,19294.000000,11323.000000,51126.000000
28270.000000,19323.000000,11253.000000,51120.000000
28257.000000,19247.000000,11248.000000,51074.000000
28308.000000,19303.000000,11319.000000,51095.000000
28219.000000,19297.000000,11245.000000,51106.000000
28208.000000,19256.000000,11285.000000,51114.000000
28197.000000,19247.000000,11191.000000,51087.000000
28305.000000,19268.000000,11184.000000,51069.000000
28221.000000,19234.000000,11177.000000,51072.000000
28206.000000,19236.000000,11169.000000,51109.000000
28137.000000,19216.000000,11174.000000,51052.000000
28207.000000,19153.000000,11093.000000,51096.000000
28138.000000,19215.000000,11163.000000,51036.000000
28140.000000,19186.000000,11109.000000,51019.000000
28150.000000,19210.000000,11105.000000,51034.000000
28129.000000,19204.000000,11011.000000,50995.000000
28107.000000,19141.000000,11028.000000,50935.000000
28080.000000,19154.000000,11010.000000,50989.000000
28107.000000,19107.000000,11006.000000,51036.000000
28101.000000,19170.000000,10976.000000,50996.000000
27980.000000,19100.000000,10909.000000,50842.000000
28015.000000,19065.000000,10932.000000,50935.000000
28046.000000,18993.000000,10976.000000,51017.000000
28056.000000,19124.000000,10970.000000,50904.000000
27992.000000,19171.000000,10937.000000,50872.000000
28026.000000,19053.000000,10922.000000,50898.000000
27961.000000,19016.000000,10950.000000,50954.000000
28006.000000,19026.000000,10925.000000,50926.000000
28015.000000,19048.000000,10877.000000,50994.000000
27998.000000,19033.000000,10930.000000,50928.000000
28005.000000,19041.000000,10885.000000,50904.000000
28010.000000,19030.000000,10868.000000,50917.000000
28002.000000,19006.000000,10863.000000,50876.000000
27956.000000,19103.000000,10851.000000,50822.000000
27996.000000,18985.000000,10870.000000,50907.000000
27945.000000,19007.000000,10791.000000,50879.000000
27984.000000,19026.000000,10846.000000,50936.000000
27938.000000,18977.000000,10846.000000,50837.000000
28002.000000,18982.000000,10874.000000,50879.000000
28015.000000,19035.000000,10867.000000,50949.000000
27999.000000,19038.000000,10884.000000,50911.000000
27966.000000,19004.000000,10885.000000,50923.000000
27950.000000,18994.000000,10858.000000,50907.000000
28009.000000,19017.000000,10909.000000,50936.000000
27852.000000,19033.000000,10860.000000,50873.000000
28008.000000,19072.000000,10884.000000,50881.000000
27968.000000,19044.000000,10960.000000,50954.000000
28012.000000,19047.000000,10927.000000,50968.000000
28010.000000,19057.000000,10938.000000,50951.000000
28090.000000,19065.000000,10931.000000,50930.000000
28010.000000,18986.000000,10858.000000,51018.000000
28080.000000,19096.000000,11009.000000,51029.000000
28166.000000,19058.000000,10964.000000,51004.000000
28107.000000,19131.000000,11019.000000,50973.000000
28123.000000,19130.000000,11048.000000,51053.000000
28208.000000,19127.000000,11057.000000,51044.000000
28231.000000,19162.000000,11095.000000,51122.000000
28329.000000,19170.000000,11026.000000,51065.000000
28331.000000,19241.000000,11125.000000,51074.000000
28313.000000,19242.000000,11154.000000,51088.000000
28419.000000,19258.000000,11159.000000,51084.000000
28417.000000,19271.000000,11153.000000,51128.000000
28385.000000,19312.000000,11195.000000,51094.000000
28456.000000,19286.000000,11259.000000,51071.000000
28451.000000,19334.000000,11250.000000,51171.000000
28395.000000,19335.000000,11246.000000,51085.000000
28423.000000,19331.000000,11275.000000,51151.000000
28409.000000,19322.000000,11252.000000,51153.000000
28373.000000,19305.000000,11303.000000,51142.000000
28378.000000,19339.000000,11237.000000,51143.000000
28406.000000,19340.000000,11252.000000,51092.000000
28392.000000,19292.000000,11228.000000,51153.000000
28323.000000,19292.000000,11134.000000,51127.000000
28398.000000,19287.000000,11167.000000,51110.000000
28387.000000,19386.000000,11185.000000,51023.000000
28377.000000,19275.000000,11180.000000,51130.000000
28388.000000,19273.000000,11163.000000,51116.000000
28377.000000,19223.000000,11194.000000,51084.000000
28340.000000,19243.000000,11117.000000,51131.000000
28345.000000,19190.000000,11163.000000,51104.000000
28324.000000,19196.000000,11131.000000,51057.000000
28583.000000,19166.000000,11102.000000,51062.000000
28340.000000,19184.000000,11131.000000,51038.000000
28391.000000,19236.000000,11132.000000,51079.000000
28340.000000,19205.000000,11031.000000,51067.000000
28329.000000,19203.000000,11002.000000,50932.000000
28312.000000,19160.000000,10982.000000,51040.000000
28184.000000,19210.000000,11009.000000,51059.000000
28245.000000,19150.000000,11008.000000,51003.000000
28291.000000,19122.000000,11046.000000,50998.000000
28321.000000,19107.000000,10995.000000,51002.000000
28269.000000,19136.000000,10977.000000,51000.000000
28300.000000,19127.000000,10935.000000,51008.000000
28335.000000,19108.000000,10969.000000,51013.000000
28304.000000,19091.000000,10935.000000,50999.000000
28283.000000,19112.000000,11013.000000,50966.000000
28250.000000,19031.000000,10922.000000,50978.000000
28291.000000,19086.000000,10957.000000,50996.000000
28298.000000,18938.000000,10896.000000,50896.000000
28279.000000,19055.000000,10887.000000,51019.000000
28267.000000,19198.000000,10904.000000,50971.000000
28259.000000,19048.000000,10915.000000,50974.000000
28279.000000,19066.000000,10988.000000,50928.000000
28280.000000,19046.000000,10871.000000,50935.000000
28309.000000,19020.000000,10818.000000,50961.000000
28244.000000,19018.000000,10852.000000,50933.000000
28185.000000,19072.000000,10768.000000,50933.000000
28225.000000,19033.000000,10822.000000,50972.000000
28231.000000,19050.000000,10895.000000,50899.000000
28224.000000,18983.000000,10797.000000,50948.000000
28201.000000,18987.000000,10798.000000,50852.000000
28224.000000,18954.000000,10812.000000,50904.000000
28199.000000,19014.000000,10863.000000,50942.000000
28108.000000,19003.000000,10795.000000,50935.000000
28217.000000,18972.000000,10770.000000,50896.000000
28121.000000,18986.000000,10775.000000,50977.000000
28229.000000,18982.000000,10770.000000,50958.000000
28215.000000,19119.000000,10724.000000,50936.000000
28211.000000,19024.000000,10814.000000,50937.000000
28263.000000,19013.000000,10781.000000,50870.000000
28236.000000,18955.000000,10793.000000,50924.000000
28210.000000,19021.000000,10796.000000,50850.000000
28214.000000,19056.000000,10847.000000,50951.000000
28221.000000,18994.000000,11083.000000,50884.000000
28231.000000,19011.000000,10864.000000,50913.000000
28210.000000,19039.000000,10831.000000,50981.000000
28246.000000,18998.000000,10853.000000,50990.000000
28246.000000,19059.000000,10845.000000,50948.000000
28229.000000,19090.000000,10909.000000,50971.000000
28211.000000,19042.000000,10823.000000,50947.000000
28236.000000,19024.000000,10913.000000,50948.000000
28216.000000,19117.000000,10952.000000,50938.000000
28191.000000,19137.000000,10883.000000,50977.000000
28184.000000,19087.000000,10883.000000,50983.000000
28217.000000,19085.000000,11016.000000,50886.000000
28189.000000,19107.000000,10953.000000,50922.000000
28233.000000,19089.000000,11041.000000,50966.000000
28166.000000,19116.000000,10947.000000,50979.000000
28216.000000,19084.000000,10984.000000,51000.000000
28148.000000,19118.000000,10968.000000,50991.000000
28180.000000,19097.000000,10958.000000,50958.000000
28172.000000,19139.000000,10969.000000,50959.000000
28169.000000,19122.000000,10967.000000,50917.000000
28049.000000,19149.000000,10965.000000,51054.000000
28139.000000,19094.000000,10998.000000,51041.000000
28141.000000,19167.000000,11018.000000,51002.000000
28142.000000,19120.000000,11027.000000,51016.000000
28144.000000,19141.000000,11007.000000,50990.000000
28194.000000,19157.000000,11004.000000,51014.000000
28063.000000,19133.000000,11031.000000,50981.000000
28147.000000,19143.000000,11060.000000,50966.000000
28184.000000,19116.000000,11074.000000,50992.000000
28182.000000,19142.000000,10971.000000,51112.000000
28122.000000,19178.000000,11124.000000,51000.000000
28092.000000,19088.000000,11031.000000,51049.000000
28167.000000,19110.000000,11050.000000,51017.000000
28108.000000,19155.000000,11125.000000,51015.000000
28101.000000,19154.000000,11045.000000,51053.000000
28111.000000,19198.000000,11106.000000,50933.000000
28167.000000,19164.000000,11082.000000,51034.000000
28114.000000,19149.000000,11141.000000,50964.000000
28162.000000,19215.000000,11105.000000,51005.000000
28166.000000,19206.000000,11098.000000,51056.000000
28138.000000,19161.000000,11083.000000,51070.000000
28196.000000,19193.000000,11180.000000,51068.000000
28223.000000,19207.000000,11084.000000,51068.000000
28215.000000,19253.000000,11214.000000,51110.000000
28131.000000,19301.000000,11142.000000,51094.000000
28192.000000,19305.000000,11194.000000,51094.000000
28209.000000,19315.000000,11213.000000,51126.000000
28119.000000,19357.000000,11271.000000,51146.000000
28178.000000,19399.000000,11225.000000,51215.000000
28185.000000,19250.000000,11311.000000,51099.000000
28172.000000,19272.000000,11263.000000,51144.000000
28129.000000,19258.000000,11303.000000,51133.000000
28126.000000,19309.000000,11292.000000,51135.000000
28145.000000,19320.000000,11339.000000,51136.000000
28117.000000,19318.000000,11406.000000,51133.000000
28184.000000,19247.000000,11408.000000,51149.000000
28196.000000,19375.000000,11403.000000,51150.000000
28122.000000,19335.000000,11361.000000,51165.000000
28179.000000,19371.000000,11455.000000,51184.000000
28232.000000,19356.000000,11466.000000,51183.000000
28228.000000,19375.000000,11470.000000,51251.000000
28208.000000,19436.000000,11484.000000,51299.000000
28211.000000,19455.000000,11491.000000,51233.000000
28209.000000,19462.000000,11528.000000,51221.000000
28192.000000,19436.000000,11583.000000,51231.000000
28196.000000,19449.000000,11556.000000,51204.000000
28211.000000,19499.000000,11620.000000,51278.000000
28214.000000,19489.000000,11585.000000,51265.000000
28133.000000,19543.000000,11643.000000,51259.000000
28176.000000,19480.000000,11583.000000,51321.000000
28217.000000,19508.000000,11630.000000,51315.000000
28235.000000,19483.000000,11663.000000,51234.000000
28182.000000,19455.000000,11697.000000,51161.000000
28243.000000,19526.000000,11674.000000,51298.000000
28174.000000,19654.000000,11630.000000,51327.000000
28184.000000,19496.000000,11690.000000,51322.000000
28249.000000,19552.000000,11814.000000,51291.000000
28200.000000,19505.000000,11692.000000,51313.000000
28226.000000,19542.000000,11664.000000,51342.000000
28227.000000,19577.000000,11788.000000,51311.000000
28177.000000,19567.000000,11710.000000,51326.000000
28211.000000,19511.000000,11722.000000,51343.000000
28234.000000,19546.000000,11774.000000,51329.000000
28188.000000,19573.000000,11670.000000,51343.000000
28214.000000,19551.000000,11768.000000,51379.000000
28257.000000,19536.000000,11718.000000,51463.000000
28209.000000,19534.000000,11714.000000,51373.000000
28034.000000,19556.000000,11668.000000,51356.000000
28272.000000,19590.000000,11737.000000,51369.000000
28249.000000,19556.000000,11787.000000,51381.000000
28337.000000,19572.000000,11724.000000,51368.000000
28357.000000,19594.000000,11824.000000,51393.000000
28643.000000,19616.000000,11832.000000,51375.000000
28397.000000,19656.000000,11809.000000,51424.000000
28418.000000,19655.000000,11862.000000,51436.000000
28447.000000,19672.000000,11857.000000,51454.000000
28571.000000,19717.000000,11880.000000,51483.000000
28566.000000,19735.000000,11950.000000,51476.000000
28598.000000,19711.000000,11921.000000,51461.000000
28692.000000,19766.000000,11942.000000,51551.000000
28699.000000,19743.000000,11944.000000,51561.000000
28771.000000,19811.000000,12041.000000,51549.000000
28770.000000,19747.000000,12033.000000,51549.000000
28718.000000,19858.000000,12011.000000,51556.000000
28711.000000,19759.000000,11944.000000,51530.000000
28723.000000,19826.000000,12043.000000,51555.000000
28780.000000,19857.000000,11974.000000,51525.000000
28751.000000,19827.000000,12033.000000,51540.000000
28732.000000,19830.000000,12015.000000,51559.000000
28724.000000,19866.000000,12074.000000,51560.000000
28748.000000,19827.000000,12102.000000,51533.000000
28712.000000,19816.000000,12114.000000,51540.000000
28732.000000,19836.000000,12066.000000,51568.000000
28754.000000,19804.000000,12094.000000,51573.000000
28788.000000,19854.000000,12076.000000,51587.000000
28792.000000,19894.000000,12088.000000,51548.000000
28789.000000,19855.000000,12135.000000,51561.000000
28754.000000,19880.000000,12099.000000,51592.000000
28760.000000,19899.000000,12168.000000,51627.000000
28751.000000,19872.000000,12154.000000,51618.000000
28768.000000,19893.000000,12135.000000,51606.000000
28766.000000,19870.000000,12151.000000,51603.000000
28769.000000,19895.000000,12148.000000,51573.000000
28767.000000,19891.000000,12202.000000,51617.000000
28701.000000,19970.000000,12143.000000,51601.000000
28725.000000,19944.000000,12133.000000,51586.000000
28781.000000,19937.000000,12091.000000,51578.000000
28722.000000,19898.000000,12176.000000,51530.000000
28674.000000,19895.000000,12159.000000,51612.000000
28675.000000,19881.000000,12129.000000,51595.000000
28757.000000,19875.000000,12096.000000,51595.000000
28701.000000,19888.000000,12048.000000,51566.000000
28672.000000,19899.000000,12103.000000,51631.000000
28702.000000,19873.000000,12093.000000,51571.000000
28686.000000,19846.000000,12057.000000,51574.000000
28679.000000,19842.000000,12158.000000,51584.000000
28671.000000,19858.000000,12116.000000,51584.000000
28760.000000,19907.000000,12094.000000,51579.000000
28716.000000,19844.000000,12106.000000,51546.000000
28733.000000,19892.000000,12135.000000,51613.000000
28699.000000,19871.000000,12120.000000,51582.000000
28748.000000,19915.000000,12173.000000,51515.000000
28745.000000,19952.000000,12143.000000,51593.000000
28722.000000,19873.000000,12142.000000,51504.000000
28739.000000,19917.000000,12172.000000,51556.000000
28717.000000,19836.000000,12177.000000,51567.000000
28694.000000,19886.000000,12171.000000,51572.000000
28686.000000,19896.000000,12115.000000,51579.000000
28734.000000,19892.000000,12164.000000,51591.000000
28702.000000,19909.000000,12125.000000,51594.000000
28713.000000,19892.000000,12152.000000,51589.000000
28614.000000,19902.000000,12148.000000,51597.000000
28699.000000,19853.000000,12120.000000,51515.000000
28651.000000,19858.000000,12123.000000,51573.000000
28734.000000,19849.000000,12133.000000,51581.000000
28689.000000,19833.000000,12096.000000,51600.000000
28697.000000,19885.000000,12114.000000,51526.000000
28705.000000,19842.000000,12193.000000,51556.000000
28700.000000,19863.000000,12075.000000,51657.000000
28704.000000,19864.000000,12093.000000,51540.000000
28665.000000,19787.000000,12062.000000,51574.000000
28684.000000,19873.000000,12135.000000,51561.000000
28635.000000,19846.000000,12083.000000,51637.000000
28675.000000,19853.000000,12120.000000,51599.000000
28636.000000,19815.000000,12114.000000,51584.000000
28663.000000,19859.000000,12191.000000,51545.000000
28659.000000,19830.000000,12133.000000,51622.000000
28622.000000,19863.000000,12100.000000,51569.000000
28621.000000,19836.000000,12091.000000,51580.000000
28742.000000,19809.000000,12104.000000,51517.000000
28579.000000,19798.000000,12086.000000,51539.000000
28601.000000,19893.000000,12082.000000,51548.000000
28632.000000,19792.000000,12060.000000,51555.000000
28651.000000,19826.000000,12067.000000,51536.000000
28590.000000,19771.000000,12030.000000,51465.000000
28562.000000,19787.000000,12035.000000,51541.000000
28592.000000,19796.000000,12031.000000,51555.000000
28600.000000,19782.000000,12011.000000,51512.000000
28539.000000,19821.000000,12068.000000,51529.000000
28568.000000,19808.000000,11991.000000,51540.000000
28597.000000,19654.000000,11995.000000,51589.000000
28575.000000,19767.000000,12024.000000,51523.000000
28583.000000,19706.000000,11994.000000,51445.000000
28592.000000,19759.000000,11990.000000,51517.000000
28443.000000,19753.000000,12019.000000,51500.000000
28557.000000,19747.000000,11991.000000,51531.000000
28668.000000,19717.000000,12019.000000,51557.000000
28589.000000,19761.000000,12016.000000,51503.000000
28532.000000,19777.000000,11908.000000,51498.000000
28539.000000,19762.000000,11961.000000,51479.000000
28534.000000,19772.000000,12009.000000,51527.000000
28536.000000,19709.000000,11964.000000,51444.000000
28510.000000,19736.000000,12003.000000,51491.000000
28532.000000,19771.000000,11962.000000,51446.000000
28496.000000,19720.000000,11908.000000,51454.000000
28545.000000,19721.000000,11943.000000,51442.000000
28513.000000,19730.000000,11899.000000,51469.000000
28520.000000,19700.000000,11945.000000,51456.000000
28558.000000,19669.000000,11933.000000,51464.000000
28580.000000,19693.000000,11944.000000,51484.000000
28538.000000,19739.000000,11930.000000,51473.000000
28502.000000,19736.000000,11924.000000,51498.000000
28519.000000,19701.000000,11887.000000,51432.000000
28499.000000,19665.000000,11961.000000,51480.000000
28499.000000,19707.000000,11894.000000,51460.000000
28495.000000,19712.000000,11913.000000,51452.000000
28467.000000,19681.000000,11858.000000,51450.000000
28489.000000,19642.000000,11845.000000,51446.000000
28475.000000,19640.000000,11885.000000,51503.000000
28472.000000,19633.000000,11838.000000,51410.000000
28483.000000,19651.000000,11803.000000,51471.000000
28463.000000,19700.000000,11875.000000,51427.000000
28434.000000,19574.000000,11849.000000,51437.000000
28401.000000,19658.000000,11864.000000,51446.000000
28491.000000,19646.000000,11853.000000,51464.000000
28437.000000,19623.000000,11830.000000,51442.000000
28433.000000,19630.000000,11871.000000,51432.000000
28430.000000,19643.000000,11863.000000,51380.000000
28468.000000,19657.000000,11857.000000,51445.000000
28450.000000,19652.000000,11876.000000,51427.000000
28463.000000,19691.000000,11854.000000,51462.000000
28451.000000,19800.000000,11885.000000,51428.000000
28485.000000,19716.000000,11888.000000,51431.000000
28507.000000,19708.000000,11900.000000,51397.000000
28452.000000,19674.000000,11916.000000,51452.000000
28508.000000,19676.000000,11884.000000,51432.000000
28440.000000,19726.000000,11976.000000,51440.000000
28429.000000,19727.000000,11941.000000,51489.000000
28469.000000,19713.000000,11924.000000,51408.000000
28545.000000,19727.000000,11976.000000,51490.000000
28513.000000,19714.000000,11939.000000,51466.000000
28480.000000,19682.000000,11976.000000,51436.000000
28568.000000,19708.000000,11978.000000,51514.000000
28532.000000,19684.000000,11975.000000,51428.000000
28548.000000,19698.000000,12016.000000,51489.000000
28536.000000,19705.000000,11978.000000,51508.000000
28534.000000,19732.000000,11988.000000,51507.000000
28572.000000,19759.000000,11991.000000,51510.000000
28524.000000,19773.000000,12085.000000,51475.000000
28558.000000,19740.000000,11992.000000,51511.000000
28518.000000,19739.000000,12063.000000,51534.000000
28547.000000,19810.000000,12032.000000,51501.000000
28555.000000,19719.000000,12066.000000,51546.000000
28563.000000,19780.000000,12030.000000,51515.000000
28577.000000,19723.000000,12125.000000,51610.000000
28633.000000,19808.000000,12064.000000,51572.000000
28678.000000,19875.000000,12099.000000,51607.000000
28712.000000,19837.000000,12115.000000,51582.000000
28758.000000,19911.000000,12191.000000,51647.000000
28793.000000,19824.000000,12233.000000,51608.000000
28775.000000,19942.000000,12211.000000,51686.000000
28872.000000,20000.000000,12284.000000,51692.000000
28929.000000,19988.000000,12299.000000,51739.000000
28942.000000,20021.000000,12326.000000,51715.000000
29010.000000,19991.000000,12458.000000,51769.000000
28967.000000,20078.000000,12410.000000,51769.000000
29050.000000,20098.000000,12491.000000,51818.000000
29071.000000,20133.000000,12496.000000,51868.000000
29116.000000,20160.000000,12510.000000,51829.000000
29078.000000,20145.000000,12559.000000,51821.000000
29080.000000,20140.000000,12532.000000,51858.000000
29114.000000,20161.000000,12463.000000,51853.000000
29098.000000,20058.000000,12510.000000,51844.000000
29052.000000,20098.000000,12526.000000,51827.000000
29015.000000,20122.000000,12463.000000,51732.000000
29045.000000,20082.000000,12457.000000,51871.000000
29087.000000,20012.000000,12428.000000,51834.000000
29050.000000,20084.000000,12425.000000,51799.000000
29033.000000,20069.000000,12379.000000,51731.000000
29067.000000,20075.000000,12465.000000,51815.000000
29139.000000,20128.000000,12348.000000,51766.000000
29087.000000,20072.000000,12372.000000,51820.000000
29060.000000,20087.000000,12422.000000,51749.000000
29074.000000,20075.000000,12347.000000,51781.000000
29042.000000,20029.000000,12385.000000,51767.000000
29151.000000,20091.000000,12390.000000,51710.000000
29076.000000,20019.000000,12357.000000,51776.000000
29054.000000,20020.000000,12314.000000,51751.000000
29036.000000,20037.000000,12345.000000,51726.000000
29009.000000,20054.000000,12278.000000,51735.000000
29026.000000,20043.000000,12363.000000,51745.000000
28994.000000,20072.000000,12306.000000,51764.000000
28991.000000,20067.000000,12318.000000,51721.000000
28976.000000,19987.000000,12240.000000,51697.000000
28957.000000,19968.000000,12303.000000,51682.000000
28960.000000,19994.000000,12309.000000,51808.000000
28942.000000,19950.000000,12286.000000,51677.000000
28953.000000,19999.000000,12264.000000,51712.000000
28942.000000,19955.000000,12232.000000,51704.000000
28925.000000,19937.000000,12267.000000,51653.000000
28972.000000,19958.000000,12223.000000,51656.000000
28970.000000,19926.000000,12183.000000,51657.000000
28942.000000,19949.000000,12229.000000,51632.000000
28960.000000,19929.000000,12197.000000,51670.000000
28948.000000,19887.000000,12229.000000,51695.000000
28923.000000,19892.000000,12219.000000,51657.000000
28883.000000,19911.000000,12181.000000,51657.000000
28932.000000,19919.000000,12211.000000,51612.000000
28984.000000,19915.000000,12155.000000,51652.000000
28925.000000,19937.000000,12216.000000,51692.000000
28927.000000,19876.000000,12174.000000,51620.000000
28913.000000,19904.000000,12181.000000,51675.000000
28966.000000,19916.000000,12199.000000,51669.000000
28933.000000,19910.000000,12203.000000,51647.000000
28908.000000,19889.000000,12145.000000,51592.000000
28944.000000,19908.000000,12145.000000,51598.000000
28981.000000,19916.000000,12177.000000,51624.000000
29057.000000,19951.000000,12173.000000,51618.000000
28934.000000,19912.000000,12168.000000,51650.000000
28980.000000,19906.000000,12297.000000,51665.000000
28968.000000,19905.000000,12229.000000,51651.000000
29098.000000,19923.000000,12327.000000,51658.000000
28954.000000,19917.000000,12230.000000,51681.000000
28894.000000,19939.000000,12238.000000,51664.000000
28938.000000,19970.000000,12257.000000,51682.000000
28938.000000,19954.000000,12210.000000,51697.000000
28972.000000,19953.000000,12302.000000,51687.000000
28968.000000,19928.000000,12252.000000,51755.000000
28931.000000,20000.000000,12271.000000,51705.000000
28946.000000,19977.000000,12243.000000,51695.000000
28995.000000,19993.000000,12227.000000,51758.000000
28955.000000,20019.000000,12316.000000,51685.000000
28882.000000,20006.000000,12295.000000,51719.000000
28956.000000,19948.000000,12334.000000,51726.000000
28943.000000,20029.000000,12285.000000,51751.000000
28936.000000,20027.000000,12324.000000,51725.000000
28953.000000,20001.000000,12404.000000,51740.000000
28951.000000,19989.000000,12332.000000,51721.000000
28953.000000,19950.000000,12395.000000,51748.000000
28970.000000,19988.000000,12300.000000,51742.000000
28933.000000,19989.000000,12318.000000,51709.000000
28938.000000,20035.000000,12319.000000,51751.000000
28910.000000,20013.000000,12291.000000,51733.000000
28942.000000,19960.000000,12340.000000,51692.000000
28941.000000,20000.000000,12370.000000,51720.000000
29029.000000,20035.000000,12303.000000,51684.000000
28925.000000,19981.000000,12373.000000,51687.000000
28912.000000,19988.000000,12238.000000,51694.000000
28885.000000,19971.000000,12290.000000,51687.000000
28867.000000,19954.000000,12256.000000,51768.000000
28907.000000,19977.000000,12301.000000,51681.000000
28876.000000,20001.000000,12316.000000,51711.000000
28906.000000,19946.000000,12291.000000,51726.000000
28881.000000,19932.000000,12276.000000,51673.000000
28856.000000,19933.000000,12250.000000,51714.000000
28886.000000,19981.000000,12315.000000,51685.000000
28883.000000,19994.000000,12320.000000,51667.000000
28912.000000,19955.000000,12308.000000,51695.000000
28897.000000,20018.000000,12313.000000,51611.000000
28963.000000,19948.000000,12263.000000,51691.000000
28910.000000,20057.000000,12310.000000,51695.000000
28923.000000,19941.000000,12287.000000,51711.000000
28903.000000,19968.000000,12285.000000,51744.000000
28851.000000,19985.000000,12262.000000,51710.000000
28889.000000,19895.000000,12324.000000,51702.000000
28877.000000,19969.000000,12224.000000,51683.000000
28900.000000,19930.000000,12303.000000,51702.000000
28848.000000,19929.000000,12201.000000,51637.000000
28868.000000,19911.000000,12181.000000,51698.000000
28820.000000,19874.000000,12210.000000,51664.000000
28825.000000,19879.000000,12239.000000,51660.000000
28753.000000,19970.000000,12225.000000,51662.000000
28807.000000,19843.000000,12145.000000,51604.000000
28745.000000,19894.000000,12181.000000,51584.000000
28798.000000,19840.000000,12144.000000,51615.000000
28762.000000,19792.000000,12152.000000,51655.000000
28775.000000,19811.000000,12148.000000,51626.000000
28780.000000,19868.000000,12101.000000,51578.000000
28726.000000,19789.000000,12039.000000,51586.000000
28761.000000,19851.000000,12072.000000,51548.000000
28712.000000,19804.000000,12048.000000,51577.000000
28773.000000,19765.000000,12066.000000,51549.000000
28729.000000,19737.000000,12050.000000,51558.000000
28733.000000,19860.000000,12023.000000,51557.000000
28716.000000,19814.000000,12103.000000,51604.000000
28681.000000,19803.000000,12083.000000,51573.000000
28739.000000,19802.000000,12099.000000,51584.000000
28724.000000,19835.000000,12058.000000,51548.000000
28743.000000,19873.000000,12065.000000,51691.000000
28762.000000,19818.000000,12101.000000,51557.000000
28683.000000,19839.000000,12141.000000,51591.000000
28798.000000,19833.000000,12120.000000,51582.000000
28789.000000,19860.000000,12127.000000,51634.000000
28819.000000,19824.000000,12117.000000,51645.000000
28823.000000,19915.000000,12233.000000,51639.000000
28880.000000,19869.000000,12141.000000,51650.000000
28838.000000,19845.000000,12183.000000,51617.000000
28852.000000,19873.000000,12249.000000,51689.000000
28754.000000,19927.000000,12223.000000,51696.000000
28833.000000,19964.000000,12126.000000,51666.000000
28849.000000,19922.000000,12252.000000,51606.000000
29040.000000,19958.000000,12220.000000,51647.000000
28904.000000,19907.000000,12199.000000,51700.000000
28896.000000,19876.000000,12202.000000,51675.000000
28881.000000,19944.000000,12308.000000,51694.000000
28911.000000,19930.000000,12269.000000,51643.000000
28959.000000,19973.000000,12345.000000,51730.000000
28977.000000,19937.000000,12349.000000,51751.000000
28966.000000,19999.000000,12350.000000,51766.000000
29072.000000,20030.000000,12354.000000,51787.000000
29048.000000,20078.000000,12421.000000,51812.000000
29128.000000,20109.000000,12456.000000,51809.000000
29058.000000,20065.000000,12479.000000,51799.000000
29209.000000,20191.000000,12537.000000,51948.000000
29189.000000,20180.000000,12597.000000,51913.000000
29338.000000,20262.000000,12663.000000,51947.000000
29356.000000,20180.000000,12654.000000,51904.000000
29392.000000,20319.000000,12772.000000,51998.000000
29519.000000,20303.000000,12816.000000,52033.000000
29550.000000,20425.000000,12852.000000,52084.000000
29478.000000,20456.000000,12903.000000,52087.000000
29584.000000,20401.000000,13008.000000,52121.000000
29603.000000,20475.000000,13024.000000,52129.000000
29629.000000,20538.000000,13049.000000,52164.000000
29630.000000,20483.000000,13075.000000,52217.000000
29682.000000,20560.000000,13118.000000,52202.000000
29726.000000,20615.000000,13159.000000,52221.000000
29691.000000,20591.000000,13118.000000,52245.000000
29764.000000,20594.000000,13168.000000,52239.000000
29766.000000,20695.000000,13201.000000,52311.000000
29751.000000,20630.000000,13204.000000,52201.000000
29791.000000,20597.000000,13247.000000,52232.000000
29775.000000,20600.000000,13221.000000,52263.000000
29726.000000,20648.000000,13324.000000,52224.000000
29797.000000,20632.000000,13249.000000,52264.000000
29748.000000,20703.000000,13215.000000,52293.000000
29786.000000,20608.000000,13214.000000,52242.000000
29742.000000,20567.000000,13206.000000,52299.000000
29680.000000,20566.000000,13275.000000,52255.000000
29724.000000,20638.000000,13231.000000,52259.000000
29659.000000,20623.000000,13182.000000,52334.000000
29673.000000,20576.000000,13185.000000,52254.000000
29742.000000,20601.000000,13153.000000,52269.000000
29633.000000,20606.000000,13216.000000,52187.000000
29633.000000,20570.000000,13136.000000,52143.000000
29656.000000,20548.000000,13143.000000,52172.000000
29641.000000,20565.000000,13180.000000,52222.000000
29633.000000,20548.000000,13126.000000,52204.000000
29598.000000,20483.000000,13083.000000,52239.000000
29548.000000,20500.000000,13043.000000,52135.000000
29593.000000,20534.000000,13096.000000,52164.000000
29589.000000,20552.000000,13032.000000,52128.000000
29569.000000,20464.000000,13010.000000,52163.000000
29596.000000,20472.000000,12990.000000,52152.000000
29542.000000,20440.000000,13022.000000,52117.000000
29527.000000,20359.000000,12990.000000,52103.000000
29543.000000,20442.000000,13016.000000,52142.000000
29530.000000,20469.000000,12937.000000,52186.000000
29544.000000,20404.000000,12958.000000,52055.000000
29531.000000,20546.000000,12954.000000,52066.000000
29539.000000,20407.000000,12936.000000,52095.000000
29487.000000,20412.000000,12975.000000,52048.000000
29549.000000,20452.000000,12950.000000,52108.000000
29561.000000,20446.000000,12885.000000,52076.000000
29535.000000,20421.000000,12926.000000,52099.000000
29566.000000,20411.000000,12925.000000,52106.000000
29590.000000,20405.000000,12977.000000,52106.000000
29459.000000,20403.000000,12899.000000,52115.000000
29536.000000,20441.000000,12938.000000,52071.000000
29503.000000,20426.000000,12897.000000,52095.000000
29446.000000,20435.000000,12936.000000,52023.000000
29466.000000,20395.000000,12935.000000,52072.000000
29549.000000,20406.000000,12908.000000,52081.000000
29533.000000,20432.000000,12935.000000,52108.000000
29437.000000,20361.000000,12902.000000,52168.000000
29461.000000,20429.000000,12904.000000,52101.000000
29494.000000,20369.000000,12971.000000,52136.000000
29456.000000,20357.000000,12906.000000,52095.000000
29422.000000,20382.000000,12903.000000,52082.000000
29468.000000,20395.000000,12834.000000,52053.000000
29399.000000,20331.000000,12882.000000,52082.000000
29433.000000,20372.000000,12874.000000,52078.000000
29409.000000,20321.000000,12863.000000,52060.000000
29397.000000,20345.000000,12861.000000,52048.000000
29411.000000,20299.000000,12841.000000,52045.000000
29379.000000,20393.000000,12885.000000,51967.000000
29372.000000,20318.000000,12782.000000,51970.000000
29365.000000,20211.000000,12781.000000,52093.000000
29311.000000,20299.000000,12763.000000,51967.000000
29356.000000,20281.000000,12728.000000,52045.000000
29313.000000,20255.000000,12707.000000,51952.000000
29352.000000,20252.000000,12681.000000,51975.000000
29295.000000,20234.000000,12692.000000,51983.000000
29281.000000,20163.000000,12684.000000,51956.000000
29262.000000,20222.000000,12610.000000,51864.000000
29227.000000,20177.000000,12599.000000,51991.000000
29208.000000,20178.000000,12655.000000,51971.000000
29145.000000,20178.000000,12629.000000,51895.000000
29207.000000,20200.000000,12660.000000,51869.000000
29245.000000,20162.000000,12616.000000,51902.000000
29140.000000,20102.000000,12624.000000,51872.000000
29174.000000,20117.000000,12546.000000,51855.000000
29103.000000,20060.000000,12516.000000,51796.000000
29124.000000,20093.000000,12493.000000,51816.000000
29104.000000,20104.000000,12450.000000,51843.000000
29133.000000,20088.000000,12475.000000,51834.000000
29064.000000,19993.000000,12428.000000,51780.000000
29074.000000,20072.000000,12412.000000,51787.000000
29083.000000,20013.000000,12394.000000,51780.000000
29075.000000,20088.000000,12368.000000,51838.000000
29047.000000,19980.000000,12339.000000,51811.000000
29022.000000,20024.000000,12419.000000,51799.000000
29029.000000,19959.000000,12323.000000,51676.000000
29036.000000,20051.000000,12290.000000,51812.000000
29033.000000,19953.000000,12282.000000,51709.000000
29040.000000,20014.000000,12229.000000,51707.000000
28998.000000,19946.000000,12282.000000,51702.000000
29007.000000,19900.000000,12260.000000,51689.000000
29016.000000,19904.000000,12263.000000,51679.000000
29046.000000,19943.000000,12235.000000,51735.000000
28963.000000,19924.000000,12235.000000,51774.000000
28960.000000,19895.000000,12248.000000,51748.000000
28972.000000,19906.000000,12224.000000,51725.000000
28955.000000,19883.000000,12206.000000,51636.000000
28954.000000,19897.000000,12182.000000,51663.000000
28954.000000,19881.000000,12189.000000,51688.000000
28955.000000,19803.000000,12124.000000,51657.000000
28925.000000,19807.000000,12149.000000,51646.000000
28925.000000,19905.000000,12134.000000,51612.000000
28908.000000,19846.000000,12087.000000,51639.000000
28904.000000,19820.000000,12076.000000,51628.000000
28817.000000,19817.000000,12070.000000,51607.000000
28882.000000,19799.000000,12027.000000,51560.000000
28771.000000,19802.000000,12030.000000,51540.000000
28852.000000,19797.000000,11939.000000,51565.000000
28795.000000,19726.000000,11946.000000,51545.000000
28807.000000,19772.000000,11951.000000,51566.000000
28737.000000,19722.000000,11924.000000,51578.000000
28778.000000,19717.000000,11895.000000,51537.000000
28845.000000,19645.000000,11894.000000,51545.000000
28774.000000,19678.000000,11828.000000,51528.000000
28763.000000,19734.000000,11838.000000,51372.000000
28752.000000,19597.000000,11883.000000,51487.000000
28794.000000,19661.000000,11830.000000,51521.000000
28762.000000,19661.000000,11816.000000,51514.000000
28725.000000,19621.000000,11818.000000,51542.000000
28693.000000,19578.000000,11851.000000,51477.000000
28725.000000,19635.000000,11783.000000,51459.000000
28676.000000,19632.000000,11858.000000,51489.000000
28673.000000,19613.000000,11839.000000,51472.000000
28668.000000,19642.000000,11846.000000,51401.000000
28771.000000,19645.000000,11846.000000,51545.000000
28714.000000,19665.000000,11841.000000,51468.000000
28726.000000,19662.000000,11891.000000,51527.000000
28810.000000,19637.000000,11889.000000,51507.000000
28711.000000,19657.000000,11861.000000,51544.000000
28696.000000,19635.000000,11866.000000,51496.000000
28724.000000,19671.000000,11889.000000,51551.000000
28699.000000,19670.000000,11976.000000,51515.000000
28734.000000,19675.000000,11871.000000,51488.000000
28721.000000,19693.000000,11899.000000,51500.000000
28730.000000,19676.000000,11906.000000,51494.000000
28777.000000,19712.000000,11870.000000,51539.000000
28829.000000,19724.000000,11919.000000,51470.000000
28774.000000,19720.000000,11935.000000,51550.000000
28801.000000,19747.000000,12014.000000,51596.000000
28747.000000,19714.000000,11946.000000,51549.000000
28776.000000,19776.000000,12005.000000,51570.000000
28807.000000,19700.000000,11936.000000,51553.000000
28883.000000,19724.000000,11948.000000,51586.000000
28805.000000,19727.000000,12013.000000,51609.000000
28788.000000,19726.000000,12016.000000,51559.000000
28836.000000,19751.000000,12019.000000,51591.000000
28848.000000,19781.000000,12005.000000,51606.000000
28833.000000,19782.000000,12024.000000,51620.000000
28794.000000,19789.000000,12050.000000,51593.000000
28859.000000,19777.000000,12031.000000,51641.000000
28908.000000,19781.000000,12069.000000,51652.000000
28821.000000,19860.000000,12060.000000,51613.000000
28917.000000,19799.000000,12089.000000,51629.000000
29054.000000,19872.000000,12060.000000,51624.000000
28971.000000,19852.000000,12110.000000,51693.000000
29006.000000,19794.000000,12136.000000,51672.000000
29005.000000,19898.000000,12192.000000,51724.000000
29133.000000,19909.000000,12304.000000,51749.000000
29123.000000,19950.000000,12284.000000,52038.000000
29164.000000,19943.000000,12306.000000,51710.000000
29205.000000,19998.000000,12340.000000,51764.000000
29254.000000,20025.000000,12331.000000,51795.000000
29253.000000,20054.000000,12375.000000,51801.000000
29314.000000,20074.000000,12351.000000,51824.000000
29245.000000,20010.000000,12402.000000,51816.000000
29313.000000,20091.000000,12436.000000,51810.000000
29289.000000,20060.000000,12536.000000,51822.000000
29363.000000,20078.000000,12413.000000,51863.000000
29348.000000,20054.000000,12389.000000,51919.000000
29334.000000,20068.000000,12427.000000,51876.000000
29303.000000,20099.000000,12319.000000,51879.000000
29276.000000,19971.000000,12370.000000,51812.000000
29302.000000,19945.000000,12399.000000,51841.000000
29240.000000,20048.000000,12342.000000,51806.000000
29248.000000,19992.000000,12367.000000,51809.000000
29255.000000,20013.000000,12323.000000,51815.000000
29248.000000,20019.000000,12279.000000,51789.000000
29328.000000,20062.000000,12319.000000,51812.000000
29294.000000,20013.000000,12280.000000,51769.000000
29306.000000,19967.000000,12232.000000,51808.000000
29228.000000,19930.000000,12311.000000,51769.000000
29228.000000,19866.000000,12250.000000,51750.000000
29215.000000,19956.000000,12271.000000,51798.000000
29286.000000,19942.000000,12222.000000,51715.000000
29236.000000,19931.000000,12279.000000,51750.000000
29222.000000,19923.000000,12220.000000,51819.000000
29249.000000,19950.000000,12222.000000,51741.000000
29208.000000,19941.000000,12200.000000,51819.000000
29257.000000,19935.000000,12216.000000,51783.000000
29206.000000,19987.000000,12249.000000,51824.000000
29286.000000,19942.000000,12222.000000,51743.000000
29229.000000,20031.000000,12282.000000,51782.000000
29241.000000,19976.000000,12200.000000,51664.000000
29203.000000,19969.000000,12297.000000,51760.000000
29249.000000,19982.000000,12244.000000,51693.000000
29247.000000,19992.000000,12277.000000,51798.000000
29246.000000,19926.000000,12269.000000,51737.000000
29274.000000,20006.000000,12265.000000,51808.000000
29226.000000,19952.000000,12275.000000,51785.000000
29233.000000,19971.000000,12284.000000,51788.000000
29245.000000,20067.000000,12245.000000,51821.000000
29208.000000,19973.000000,12303.000000,51774.000000
29225.000000,20022.000000,12329.000000,51775.000000
29243.000000,19946.000000,12263.000000,51803.000000
29267.000000,19981.000000,12263.000000,51849.000000
29248.000000,19946.000000,12302.000000,51716.000000
29187.000000,19943.000000,12289.000000,51793.000000
29207.000000,19981.000000,12358.000000,51761.000000
29131.000000,19957.000000,12317.000000,51787.000000
29195.000000,20032.000000,12331.000000,51710.000000
29175.000000,19955.000000,12261.000000,51726.000000
29199.000000,19946.000000,12337.000000,51826.000000
29130.000000,19974.000000,12275.000000,51769.000000
29110.000000,19967.000000,12291.000000,51727.000000
29096.000000,19900.000000,12243.000000,51748.000000
29102.000000,19893.000000,12239.000000,51685.000000
29081.000000,19904.000000,12201.000000,51758.000000
29108.000000,19921.000000,12236.000000,51692.000000
29058.000000,19935.000000,12167.000000,51719.000000
29051.000000,19869.000000,12150.000000,51706.000000
28991.000000,19841.000000,12086.000000,51748.000000
29051.000000,19847.000000,12166.000000,51695.000000
29030.000000,19818.000000,12211.000000,51701.000000
28989.000000,19820.000000,12047.000000,51709.000000
28979.000000,19792.000000,12045.000000,51692.000000
28944.000000,19822.000000,12056.000000,51629.000000
28894.000000,19762.000000,12006.000000,51628.000000
28930.000000,19784.000000,11978.000000,51646.000000
28936.000000,19841.000000,12035.000000,51502.000000
28943.000000,19719.000000,11975.000000,51607.000000
28966.000000,19749.000000,11994.000000,51619.000000
28900.000000,19706.000000,11954.000000,51573.000000
28888.000000,19741.000000,11969.000000,51605.000000
28832.000000,19696.000000,11912.000000,51563.000000
28905.000000,19692.000000,11840.000000,51550.000000
28907.000000,19675.000000,11903.000000,51507.000000
28860.000000,19690.000000,11886.000000,51571.000000
28910.000000,19600.000000,11773.000000,51548.000000
28892.000000,19687.000000,11831.000000,51539.000000
28904.000000,19609.000000,11900.000000,51523.000000
28889.000000,19625.000000,11827.000000,51517.000000
28841.000000,19633.000000,11916.000000,51567.000000
28838.000000,19650.000000,11811.000000,51534.000000
28837.000000,19637.000000,11791.000000,51473.000000
28838.000000,19639.000000,11786.000000,51516.000000
28850.000000,19650.000000,11786.000000,51444.000000
28812.000000,19584.000000,11786.000000,51502.000000
28830.000000,19597.000000,11832.000000,51489.000000
28843.000000,19592.000000,11792.000000,51420.000000
28846.000000,19576.000000,11770.000000,51494.000000
28888.000000,19591.000000,11749.000000,51488.000000
28851.000000,19603.000000,11755.000000,51506.000000
28842.000000,19635.000000,11712.000000,51461.000000
28797.000000,19612.000000,11759.000000,51475.000000
28879.000000,19592.000000,11746.000000,51536.000000
28771.000000,19630.000000,11692.000000,51446.000000
28771.000000,19573.000000,11793.000000,51429.000000
28798.000000,19556.000000,11736.000000,51442.000000
28782.000000,19558.000000,11742.000000,51499.000000
28773.000000,19572.000000,11728.000000,51483.000000
28798.000000,19581.000000,11717.000000,51463.000000
28813.000000,19552.000000,11736.000000,51514.000000
28754.000000,19531.000000,11714.000000,51473.000000
28713.000000,19523.000000,11674.000000,51394.000000
28738.000000,19552.000000,11697.000000,51459.000000
28736.000000,19487.000000,11686.000000,51394.000000
28750.000000,19519.000000,11661.000000,51430.000000
28696.000000,19522.000000,11610.000000,51421.000000
28792.000000,19494.000000,11616.000000,51462.000000
28745.000000,19504.000000,11688.000000,51391.000000
28725.000000,19532.000000,11666.000000,51411.000000
28727.000000,19511.000000,11664.000000,51416.000000
28705.000000,19496.000000,11654.000000,51445.000000
28737.000000,19495.000000,11608.000000,51439.000000
28631.000000,19485.000000,11698.000000,51389.000000
28664.000000,19463.000000,11640.000000,51417.000000
28721.000000,19463.000000,11602.000000,51326.000000
28649.000000,19470.000000,11607.000000,51420.000000
28622.000000,19467.000000,11696.000000,51456.000000
28640.000000,19395.000000,11602.000000,51345.000000
28479.000000,19491.000000,11594.000000,51288.000000
28579.000000,19448.000000,11560.000000,51368.000000
28627.000000,19416.000000,11583.000000,51401.000000
28624.000000,19433.000000,11603.000000,51364.000000
28568.000000,19407.000000,11577.000000,51358.000000
28583.000000,19442.000000,11580.000000,51353.000000
28615.000000,19472.000000,11561.000000,51366.000000
28553.000000,19434.000000,11537.000000,51365.000000
28583.000000,19404.000000,11528.000000,51383.000000
28659.000000,19371.000000,11571.000000,51340.000000
28595.000000,19474.000000,11577.000000,51396.000000
28596.000000,19463.000000,11638.000000,51356.000000
28599.000000,19400.000000,11552.000000,51381.000000
28588.000000,19387.000000,11627.000000,51367.000000
28655.000000,19408.000000,11583.000000,51383.000000
28652.000000,19387.000000,11506.000000,51362.000000
28590.000000,19382.000000,11533.000000,51333.000000
28604.000000,19386.000000,11600.000000,51318.000000
28608.000000,19419.000000,11553.000000,51333.000000
28555.000000,19421.000000,11527.000000,51347.000000
28639.000000,19434.000000,11603.000000,51400.000000
28680.000000,19447.000000,11570.000000,51416.000000
28610.000000,19339.000000,11583.000000,51367.000000
28653.000000,19471.000000,11651.000000,51410.000000
28676.000000,19475.000000,11586.000000,51400.000000
28672.000000,19450.000000,11653.000000,51385.000000
28670.000000,19460.000000,11707.000000,51399.000000
28715.000000,19469.000000,11647.000000,51449.000000
28733.000000,19445.000000,11589.000000,51390.000000
28783.000000,19599.000000,11691.000000,51440.000000
28690.000000,19537.000000,11723.000000,51490.000000
28805.000000,19550.000000,11729.000000,51464.000000
28798.000000,19613.000000,11791.000000,51477.000000
28876.000000,19640.000000,11835.000000,51508.000000
28897.000000,19702.000000,11827.000000,51544.000000
28911.000000,19653.000000,11865.000000,51540.000000
28943.000000,19665.000000,11953.000000,51552.000000
28981.000000,19794.000000,11884.000000,51592.000000
29019.000000,19761.000000,11960.000000,51645.000000
29045.000000,19819.000000,12013.000000,51689.000000
29096.000000,19840.000000,12115.000000,51699.000000
29106.000000,19790.000000,12160.000000,51704.000000
29134.000000,19877.000000,12145.000000,51735.000000
29177.000000,19942.000000,12231.000000,51765.000000
29201.000000,19951.000000,12224.000000,51800.000000
29264.000000,19952.000000,12271.000000,51816.000000
29252.000000,19983.000000,12303.000000,51806.000000
29338.000000,20000.000000,12352.000000,51822.000000
29338.000000,20013.000000,12312.000000,51817.000000
29317.000000,20026.000000,12355.000000,51828.000000
29279.000000,19953.000000,12343.000000,51805.000000
29287.000000,19974.000000,12304.000000,51818.000000
29375.000000,19974.000000,12356.000000,51844.000000
29272.000000,19961.000000,12381.000000,51813.000000
29291.000000,19984.000000,12349.000000,51764.000000
29289.000000,20026.000000,12393.000000,51835.000000
29320.000000,19976.000000,12291.000000,51874.000000
29353.000000,19989.000000,12382.000000,51845.000000
29270.000000,20019.000000,12340.000000,51724.000000
29273.000000,19982.000000,12329.000000,51818.000000
29304.000000,19995.000000,12327.000000,51828.000000
29170.000000,19970.000000,12313.000000,51814.000000
29231.000000,19973.000000,12357.000000,51795.000000
29213.000000,19954.000000,12268.000000,51735.000000
29239.000000,19974.000000,12316.000000,51792.000000
29242.000000,19881.000000,12272.000000,51821.000000
29277.000000,19971.000000,12285.000000,51786.000000
29281.000000,19996.000000,12286.000000,51783.000000
29236.000000,20009.000000,12309.000000,51800.000000
29301.000000,19933.000000,12277.000000,51684.000000
29210.000000,19943.000000,12246.000000,51803.000000
29191.000000,19895.000000,12250.000000,51762.000000
29242.000000,19918.000000,12239.000000,51784.000000
29222.000000,19930.000000,12240.000000,51765.000000
29206.000000,19932.000000,12227.000000,51789.000000
29170.000000,19950.000000,12240.000000,51797.000000
29176.000000,19906.000000,12209.000000,51765.000000
29159.000000,19868.000000,12226.000000,51762.000000
29164.000000,19941.000000,12201.000000,51724.000000
29126.000000,19872.000000,12210.000000,51732.000000
29145.000000,19909.000000,12255.000000,51758.000000
29168.000000,19886.000000,12174.000000,51656.000000
29122.000000,19819.000000,12129.000000,51702.000000
29167.000000,19853.000000,12150.000000,51709.000000
29025.000000,19857.000000,12103.000000,51708.000000
29094.000000,19888.000000,12165.000000,51690.000000
29113.000000,19908.000000,12091.000000,51732.000000
29143.000000,19883.000000,12096.000000,51669.000000
29050.000000,19837.000000,12160.000000,51701.000000
29115.000000,19842.000000,12103.000000,51667.000000
29053.000000,19765.000000,12101.000000,51662.000000
29080.000000,19768.000000,12174.000000,51665.000000
29049.000000,19806.000000,12061.000000,51667.000000
29040.000000,19805.000000,12080.000000,51586.000000
29067.000000,19738.000000,12048.000000,51695.000000
29052.000000,19791.000000,11934.000000,51652.000000
29088.000000,19728.000000,12043.000000,51625.000000
29097.000000,19794.000000,12012.000000,51642.000000
29028.000000,19768.000000,12041.000000,51601.000000
28944.000000,19792.000000,11952.000000,51580.000000
29005.000000,19747.000000,11985.000000,51631.000000
29025.000000,19743.000000,11932.000000,51628.000000
29007.000000,19689.000000,11957.000000,51590.000000
28981.000000,19711.000000,11896.000000,51605.000000
29033.000000,19798.000000,11959.000000,51575.000000
28938.000000,19725.000000,11889.000000,51584.000000
28867.000000,19706.000000,11967.000000,51591.000000
28961.000000,19724.000000,11897.000000,51582.000000
29026.000000,19764.000000,11920.000000,51588.000000
28952.000000,19700.000000,11920.000000,51559.000000
28870.000000,19683.000000,11905.000000,51609.000000
28930.000000,19682.000000,11888.000000,51552.000000
28972.000000,19699.000000,11885.000000,51493.000000
28938.000000,19684.000000,11846.000000,51572.000000
28959.000000,19590.000000,11904.000000,51553.000000
28938.000000,19682.000000,11893.000000,51591.000000
28951.000000,19650.000000,11889.000000,51609.000000
28874.000000,19684.000000,11828.000000,51589.000000
28872.000000,19633.000000,11874.000000,51516.000000
28942.000000,19659.000000,11787.000000,51552.000000
28906.000000,19654.000000,11864.000000,51521.000000
28945.000000,19665.000000,11844.000000,51517.000000
28915.000000,19596.000000,11861.000000,51534.000000
28844.000000,19658.000000,11843.000000,51499.000000
28887.000000,19642.000000,11830.000000,51503.000000
28849.000000,19653.000000,11787.000000,51568.000000
28773.000000,19628.000000,11856.000000,51567.000000
28889.000000,19640.000000,11846.000000,51522.000000
28916.000000,19640.000000,11855.000000,51529.000000
28832.000000,19603.000000,11774.000000,51510.000000
28801.000000,19636.000000,11822.000000,51488.000000
28773.000000,19628.000000,11843.000000,51494.000000
28843.000000,19562.000000,11837.000000,51502.000000
28791.000000,19589.000000,11796.000000,51478.000000
28779.000000,19604.000000,11794.000000,51483.000000
28819.000000,19576.000000,11818.000000,51498.000000
28724.000000,19533.000000,11790.000000,51443.000000
28786.000000,19593.000000,11758.000000,51504.000000
28818.000000,19581.000000,11769.000000,51471.000000
28788.000000,19597.000000,11787.000000,51493.000000
28828.000000,19628.000000,11791.000000,51485.000000
28806.000000,19614.000000,11843.000000,51496.000000
28753.000000,19619.000000,11769.000000,51480.000000
28770.000000,19647.000000,11710.000000,51495.000000
28709.000000,19553.000000,11750.000000,51483.000000
28693.000000,19571.000000,11706.000000,51471.000000
28725.000000,19504.000000,11727.000000,51428.000000
28689.000000,19575.000000,11772.000000,51467.000000
28700.000000,19541.000000,11720.000000,51448.000000
28640.000000,19486.000000,11748.000000,51406.000000
28620.000000,19497.000000,11689.000000,51365.000000
28638.000000,19447.000000,11726.000000,51429.000000
28659.000000,19462.000000,11607.000000,51384.000000
28667.000000,19589.000000,11720.000000,51466.000000
28644.000000,19560.000000,11740.000000,51454.000000
28723.000000,19555.000000,11794.000000,51531.000000
28643.000000,19510.000000,11762.000000,51452.000000
28669.000000,19483.000000,11670.000000,51447.000000
28715.000000,19578.000000,11827.000000,51488.000000
28750.000000,19599.000000,11997.000000,51514.000000
28740.000000,19669.000000,11868.000000,51576.000000
28747.000000,19615.000000,11890.000000,51520.000000
28750.000000,19630.000000,11840.000000,51479.000000
28808.000000,19711.000000,12074.000000,51515.000000
28904.000000,19734.000000,12014.000000,51634.000000
28898.000000,19755.000000,11972.000000,51605.000000
28930.000000,19780.000000,12118.000000,51669.000000
29022.000000,19867.000000,12190.000000,51715.000000
29119.000000,20015.000000,12190.000000,51755.000000
29169.000000,19986.000000,12367.000000,51807.000000
29245.000000,20001.000000,12386.000000,51811.000000
29384.000000,20146.000000,12586.000000,51875.000000
29364.000000,20188.000000,12556.000000,51933.000000
29424.000000,20107.000000,12586.000000,51954.000000
29459.000000,20161.000000,12576.000000,51927.000000
29436.000000,20211.000000,12578.000000,51904.000000
29345.000000,20126.000000,12602.000000,51969.000000
29339.000000,20090.000000,12569.000000,51945.000000
29309.000000,20119.000000,12440.000000,51875.000000
29309.000000,20135.000000,12541.000000,51906.000000
29390.000000,20149.000000,12527.000000,51933.000000
29358.000000,20122.000000,12490.000000,51887.000000
29339.000000,20120.000000,12539.000000,51889.000000
29311.000000,20120.000000,12491.000000,51928.000000
29303.000000,20024.000000,12461.000000,51877.000000
29291.000000,20080.000000,12499.000000,51861.000000
29305.000000,20041.000000,12449.000000,51877.000000
29316.000000,20036.000000,12477.000000,51831.000000
29322.000000,20128.000000,12476.000000,51851.000000
29333.000000,20059.000000,12453.000000,51892.000000
29251.000000,20058.000000,12437.000000,51847.000000
29284.000000,20074.000000,12456.000000,51939.000000
29261.000000,20043.000000,12408.000000,51830.000000
29232.000000,20060.000000,12408.000000,51868.000000
29224.000000,19978.000000,12352.000000,51844.000000
29172.000000,19990.000000,12394.000000,51765.000000
29200.000000,19993.000000,12272.000000,51798.000000
29171.000000,20030.000000,12302.000000,51797.000000
29221.000000,20093.000000,12275.000000,51677.000000
29227.000000,19986.000000,12340.000000,51797.000000
29172.000000,19939.000000,12300.000000,51749.000000
29089.000000,19910.000000,12240.000000,51772.000000
29125.000000,19896.000000,12264.000000,51680.000000
29127.000000,19832.000000,12235.000000,51681.000000
29111.000000,19898.000000,12185.000000,51743.000000
29074.000000,19861.000000,12125.000000,51697.000000
29082.000000,19870.000000,12186.000000,51684.000000
29071.000000,19879.000000,12080.000000,51653.000000
29059.000000,19781.000000,12145.000000,51642.000000
29025.000000,19817.000000,12073.000000,51626.000000
29046.000000,19768.000000,12073.000000,51657.000000
29018.000000,19759.000000,12010.000000,51643.000000
28940.000000,19809.000000,12096.000000,51502.000000
29010.000000,19796.000000,12016.000000,51645.000000
29001.000000,19772.000000,12011.000000,51618.000000
28942.000000,19714.000000,11988.000000,51535.000000
28960.000000,19708.000000,11973.000000,51601.000000
29013.000000,19724.000000,12003.000000,51622.000000
28981.000000,19727.000000,11976.000000,51580.000000
28981.000000,19762.000000,11976.000000,51582.000000
28959.000000,19678.000000,11960.000000,51562.000000
28983.000000,19760.000000,11961.000000,51487.000000
28857.000000,19785.000000,11876.000000,51540.000000
28921.000000,19665.000000,11949.000000,51575.000000
28833.000000,19721.000000,11914.000000,51533.000000
28892.000000,19667.000000,11907.000000,51569.000000
28841.000000,19605.000000,11861.000000,51536.000000
28771.000000,19634.000000,11770.000000,51464.000000
28816.000000,19589.000000,11841.000000,51482.000000
28843.000000,19602.000000,11819.000000,51551.000000
28849.000000,19547.000000,11906.000000,51490.000000
28854.000000,19629.000000,11815.000000,51581.000000
28962.000000,19699.000000,11931.000000,51551.000000
28900.000000,19687.000000,11977.000000,51608.000000
28881.000000,19734.000000,11933.000000,51544.000000
28941.000000,19730.000000,11932.000000,51657.000000
28973.000000,19621.000000,11913.000000,51579.000000
28986.000000,19719.000000,12002.000000,51577.000000
29010.000000,19772.000000,12043.000000,51641.000000
29048.000000,19734.000000,12016.000000,51615.000000
29151.000000,19803.000000,12082.000000,51695.000000
29213.000000,19920.000000,12282.000000,51781.000000
29313.000000,19908.000000,12309.000000,51773.000000
29292.000000,20009.000000,12342.000000,51782.000000
29371.000000,20017.000000,12373.000000,51785.000000
29402.000000,20000.000000,12385.000000,51826.000000
29610.000000,20211.000000,12652.000000,51980.000000
29615.000000,20242.000000,12665.000000,51967.000000
29602.000000,20257.000000,12697.000000,52049.000000
29631.000000,20300.000000,12672.000000,52017.000000
29621.000000,20252.000000,12664.000000,52015.000000
29686.000000,20239.000000,12704.000000,51947.000000
29630.000000,20257.000000,12667.000000,52034.000000
29619.000000,20257.000000,12657.000000,52015.000000
29545.000000,20185.000000,12672.000000,51969.000000
29526.000000,20194.000000,12714.000000,51959.000000
29584.000000,20259.000000,12653.000000,51955.000000
29556.000000,20197.000000,12636.000000,51956.000000
29592.000000,20270.000000,12625.000000,51876.000000
29528.000000,20155.000000,12564.000000,51949.000000
29493.000000,20139.000000,12511.000000,51919.000000
29461.000000,20242.000000,12564.000000,51929.000000
29419.000000,20150.000000,12552.000000,51948.000000
29470.000000,20101.000000,12518.000000,51923.000000
29451.000000,20125.000000,12510.000000,51960.000000
29467.000000,20136.000000,12508.000000,51907.000000
29417.000000,20110.000000,12456.000000,51915.000000
29420.000000,20053.000000,12534.000000,51903.000000
29381.000000,20075.000000,12425.000000,51885.000000
29356.000000,20069.000000,12402.000000,51861.000000
29424.000000,19964.000000,12419.000000,51797.000000
29342.000000,20052.000000,12410.000000,51858.000000
29391.000000,20039.000000,12369.000000,51826.000000
29354.000000,20037.000000,12346.000000,51838.000000
29398.000000,20011.000000,12325.000000,51801.000000
29298.000000,20050.000000,12397.000000,51736.000000
29313.000000,19989.000000,12386.000000,51817.000000
29299.000000,20000.000000,12310.000000,51874.000000
29322.000000,20049.000000,12395.000000,51831.000000
29364.000000,19996.000000,12386.000000,51818.000000
29307.000000,20009.000000,12315.000000,51820.000000
29218.000000,20005.000000,12331.000000,51823.000000
29214.000000,20032.000000,12313.000000,51807.000000
29264.000000,19990.000000,12335.000000,51838.000000
29248.000000,19932.000000,12308.000000,51691.000000
29217.000000,19970.000000,12291.000000,51759.000000
29202.000000,19980.000000,12298.000000,51804.000000
29174.000000,19960.000000,12291.000000,51778.000000
29222.000000,19907.000000,12260.000000,51761.000000
29145.000000,19936.000000,12283.000000,51678.000000
29148.000000,19936.000000,12275.000000,51782.000000
29194.000000,20000.000000,12213.000000,51648.000000
29177.000000,19951.000000,12241.000000,51761.000000
29122.000000,19923.000000,12270.000000,51782.000000
29121.000000,19914.000000,12203.000000,51717.000000
29089.000000,19885.000000,12241.000000,51720.000000
29089.000000,19898.000000,12228.000000,51763.000000
29074.000000,19854.000000,12156.000000,51730.000000
29087.000000,19907.000000,12153.000000,51672.000000
29070.000000,19881.000000,12150.000000,51628.000000
29024.000000,19835.000000,12124.000000,51659.000000
28978.000000,19868.000000,12117.000000,51720.000000
28951.000000,19841.000000,12076.000000,51654.000000
29022.000000,19806.000000,12048.000000,51610.000000
28963.000000,19744.000000,12119.000000,51670.000000
29045.000000,19832.000000,12103.000000,51619.000000
28995.000000,19818.000000,12150.000000,51657.000000
29057.000000,19790.000000,12204.000000,51704.000000
29012.000000,19884.000000,12187.000000,51726.000000
29049.000000,19879.000000,12242.000000,51678.000000
29067.000000,19935.000000,12297.000000,51778.000000
29124.000000,19927.000000,12270.000000,51730.000000
29073.000000,19947.000000,12347.000000,51812.000000
29134.000000,19958.000000,12294.000000,51785.000000
29170.000000,20009.000000,12418.000000,51858.000000
29147.000000,19906.000000,12375.000000,51798.000000
29301.000000,20133.000000,12594.000000,51918.000000
29339.000000,20136.000000,12544.000000,51912.000000
29378.000000,20161.000000,12604.000000,51891.000000
29415.000000,20214.000000,12632.000000,51985.000000
29560.000000,20300.000000,12768.000000,52016.000000
29592.000000,20289.000000,12811.000000,52103.000000
29451.000000,20291.000000,12830.000000,52042.000000
29663.000000,20346.000000,12865.000000,52076.000000
29704.000000,20369.000000,12846.000000,52170.000000
29635.000000,20348.000000,12826.000000,52096.000000
29656.000000,20346.000000,12822.000000,52078.000000
29663.000000,20348.000000,12797.000000,52159.000000
29578.000000,20363.000000,12751.000000,52041.000000
29660.000000,20291.000000,12749.000000,52037.000000
29580.000000,20272.000000,12734.000000,52022.000000
29556.000000,20302.000000,12677.000000,52052.000000
29543.000000,20266.000000,12776.000000,52028.000000
29532.000000,20155.000000,12632.000000,52006.000000
29588.000000,20231.000000,12644.000000,51934.000000
29487.000000,20218.000000,12629.000000,52014.000000
29460.000000,20222.000000,12638.000000,52008.000000
29481.000000,20147.000000,12589.000000,51959.000000
29398.000000,20195.000000,12625.000000,51947.000000
29378.000000,20147.000000,12576.000000,51968.000000
29433.000000,20219.000000,12604.000000,51951.000000
29435.000000,20197.000000,12521.000000,51874.000000
29432.000000,20172.000000,12567.000000,51931.000000
29426.000000,20192.000000,12573.000000,51955.000000
29406.000000,20082.000000,12550.000000,51897.000000
29404.000000,20141.000000,12510.000000,51943.000000
29370.000000,20085.000000,12485.000000,51854.000000
29338.000000,20100.000000,12441.000000,51868.000000
29336.000000,20074.000000,12469.000000,51935.000000
29321.000000,20109.000000,12478.000000,51883.000000
29323.000000,20103.000000,12443.000000,51859.000000
29252.000000,20057.000000,12467.000000,51805.000000
29284.000000,20043.000000,12448.000000,51810.000000
29474.000000,20054.000000,12433.000000,51935.000000
29271.000000,20028.000000,12374.000000,51857.000000
29317.000000,20057.000000,12400.000000,51911.000000
29290.000000,20107.000000,12393.000000,51818.000000
29229.000000,20035.000000,12354.000000,51817.000000
29263.000000,20029.000000,12398.000000,51786.000000
29246.000000,20010.000000,12392.000000,51806.000000
29210.000000,20051.000000,12360.000000,51876.000000
29210.000000,20003.000000,12319.000000,51817.000000
29239.000000,20033.000000,12285.000000,51800.000000
29181.000000,19982.000000,12261.000000,51830.000000
29200.000000,19979.000000,12323.000000,51802.000000
29093.000000,19963.000000,12359.000000,51722.000000
29163.000000,19969.000000,12260.000000,51758.000000
29118.000000,19897.000000,12217.000000,51772.000000
29099.000000,19817.000000,12248.000000,51749.000000
29105.000000,19896.000000,12192.000000,51762.000000
29075.000000,19922.000000,12174.000000,51729.000000
29096.000000,19905.000000,12247.000000,51677.000000
29107.000000,19957.000000,12238.000000,51746.000000
29096.000000,19944.000000,12228.000000,51735.000000
29065.000000,19940.000000,12225.000000,51776.000000
29109.000000,19925.000000,12280.000000,51738.000000
29224.000000,19981.000000,12316.000000,51729.000000
29173.000000,20027.000000,12313.000000,51792.000000
29136.000000,19988.000000,12394.000000,51799.000000
29183.000000,19972.000000,12373.000000,51847.000000
29116.000000,19994.000000,12408.000000,51776.000000
29227.000000,20062.000000,12426.000000,51847.000000
29250.000000,20100.000000,12442.000000,51924.000000
29297.000000,20147.000000,12554.000000,51956.000000
29353.000000,20189.000000,12683.000000,51908.000000
29319.000000,20167.000000,12647.000000,52070.000000
29516.000000,20265.000000,12843.000000,52051.000000
29537.000000,20403.000000,12853.000000,52106.000000
29641.000000,20493.000000,13047.000000,52216.000000
29804.000000,20505.000000,13078.000000,52294.000000
29784.000000,20583.000000,13162.000000,52293.000000
29830.000000,20568.000000,13191.000000,52307.000000
29920.000000,20642.000000,13230.000000,52347.000000
29916.000000,20614.000000,13287.000000,52331.000000
29903.000000,20635.000000,13279.000000,52376.000000
29914.000000,20532.000000,13243.000000,52285.000000
29923.000000,20633.000000,13224.000000,52372.000000
29829.000000,20611.000000,13158.000000,52335.000000
29862.000000,20562.000000,13204.000000,52281.000000
29909.000000,20571.000000,13257.000000,52325.000000
29792.000000,20561.000000,13207.000000,52334.000000
29831.000000,20527.000000,13183.000000,52282.000000
29820.000000,20567.000000,13162.000000,52282.000000
29811.000000,20512.000000,13138.000000,52271.000000
29830.000000,20540.000000,13144.000000,52291.000000
29839.000000,20535.000000,13157.000000,52281.000000
29753.000000,20533.000000,13150.000000,52340.000000
29816.000000,20525.000000,13166.000000,52272.000000
29688.000000,20490.000000,13001.000000,52236.000000
29711.000000,20509.000000,12995.000000,52224.000000
29723.000000,20440.000000,13071.000000,52277.000000
29710.000000,20411.000000,12958.000000,52208.000000
29692.000000,20403.000000,13025.000000,52236.000000
29715.000000,20473.000000,13058.000000,52200.000000
29637.000000,20374.000000,12953.000000,52190.000000
29621.000000,20328.000000,12926.000000,52180.000000
29584.000000,20323.000000,12865.000000,52165.000000
29548.000000,20330.000000,12878.000000,52172.000000
29592.000000,20370.000000,12843.000000,52127.000000
29582.000000,20293.000000,12861.000000,52194.000000
29538.000000,20245.000000,12821.000000,52106.000000
29521.000000,20214.000000,12726.000000,52043.000000
29485.000000,20281.000000,12775.000000,52091.000000
29475.000000,20257.000000,12672.000000,52068.000000
29456.000000,20246.000000,12714.000000,51959.000000
29462.000000,20167.000000,12674.000000,52055.000000
29465.000000,20265.000000,12692.000000,52030.000000
29397.000000,20213.000000,12641.000000,52034.000000
29397.000000,20155.000000,12672.000000,52011.000000
29441.000000,20176.000000,12619.000000,51976.000000
29432.000000,20166.000000,12670.000000,52033.000000
29394.000000,20086.000000,12657.000000,52009.000000
29363.000000,20236.000000,12593.000000,52014.000000
29393.000000,20145.000000,12572.000000,52023.000000
29349.000000,20145.000000,12626.000000,52022.000000
29367.000000,20143.000000,12636.000000,51967.000000
29311.000000,20126.000000,12552.000000,51875.000000
29342.000000,20039.000000,12570.000000,51914.000000
29258.000000,20019.000000,12551.000000,51894.000000
29203.000000,20038.000000,12396.000000,51922.000000
29149.000000,19987.000000,12447.000000,51890.000000
29210.000000,19973.000000,12392.000000,51852.000000
29204.000000,20008.000000,12392.000000,51875.000000
29203.000000,20038.000000,12329.000000,51859.000000
29150.000000,19975.000000,12416.000000,51868.000000
29205.000000,19992.000000,12390.000000,51870.000000
29197.000000,19986.000000,12356.000000,51821.000000
29198.000000,19948.000000,12426.000000,51866.000000
29258.000000,19971.000000,12403.000000,51886.000000
29152.000000,19968.000000,12411.000000,51865.000000
29177.000000,20028.000000,12469.000000,51870.000000
29277.000000,20043.000000,12426.000000,51934.000000
29283.000000,20042.000000,12531.000000,51819.000000
29308.000000,20002.000000,12453.000000,51891.000000
29351.000000,20087.000000,12499.000000,51939.000000
29429.000000,20089.000000,12551.000000,51984.000000
29661.000000,20325.000000,12820.000000,52137.000000
29735.000000,20335.000000,12815.000000,52140.000000
29711.000000,20331.000000,12829.000000,52175.000000
29733.000000,20354.000000,12861.000000,52154.000000
29750.000000,20359.000000,12888.000000,52186.000000
29744.000000,20365.000000,12934.000000,52193.000000
29799.000000,20346.000000,12880.000000,52169.000000
29720.000000,20321.000000,12816.000000,52196.000000
29701.000000,20273.000000,12805.000000,52110.000000
29671.000000,20333.000000,12832.000000,52130.000000
29624.000000,20286.000000,12756.000000,52072.000000
29578.000000,20244.000000,12651.000000,52086.000000
29575.000000,20238.000000,12672.000000,52054.000000
29629.000000,20269.000000,12700.000000,52061.000000
29672.000000,20240.000000,12653.000000,52067.000000
29599.000000,20186.000000,12651.000000,52018.000000
29557.000000,20172.000000,12590.000000,52048.000000
29542.000000,20162.000000,12582.000000,51993.000000
29553.000000,20188.000000,12651.000000,52005.000000
29522.000000,20098.000000,12551.000000,51944.000000
29515.000000,20105.000000,12478.000000,51951.000000
29352.000000,20038.000000,12460.000000,51937.000000
29447.000000,20038.000000,12478.000000,51979.000000
29435.000000,20013.000000,12427.000000,51954.000000
29416.000000,20015.000000,12429.000000,51811.000000
29420.000000,20048.000000,12412.000000,51888.000000
29335.000000,19917.000000,12320.000000,51881.000000
29389.000000,19967.000000,12301.000000,51920.000000
29402.000000,20001.000000,12373.000000,51851.000000
29389.000000,19998.000000,12280.000000,51884.000000
29388.000000,20009.000000,12330.000000,51906.000000
29343.000000,19986.000000,12336.000000,51863.000000
29347.000000,19973.000000,12286.000000,51861.000000
29299.000000,19958.000000,12325.000000,51860.000000
29296.000000,19904.000000,12243.000000,51835.000000
29295.000000,19888.000000,12296.000000,51886.000000
29346.000000,19928.000000,12291.000000,51874.000000
29255.000000,19938.000000,12250.000000,51788.000000
29198.000000,19962.000000,12233.000000,51803.000000
29229.000000,19916.000000,12205.000000,51798.000000
29332.000000,19849.000000,12181.000000,51818.000000
29205.000000,19872.000000,12187.000000,51896.000000
29263.000000,19880.000000,12218.000000,51784.000000
29253.000000,19887.000000,12231.000000,51816.000000
29185.000000,19868.000000,12188.000000,51792.000000
29227.000000,19869.000000,12204.000000,51772.000000
29169.000000,19862.000000,12229.000000,51775.000000
29167.000000,19916.000000,12194.000000,51758.000000
29179.000000,19835.000000,12183.000000,51767.000000
29191.000000,19905.000000,12263.000000,51808.000000
29196.000000,19855.000000,12170.000000,51727.000000
29173.000000,19833.000000,12197.000000,51777.000000
29111.000000,19860.000000,12168.000000,51744.000000
29175.000000,19819.000000,12182.000000,51769.000000
29162.000000,19865.000000,12062.000000,51769.000000
29144.000000,19832.000000,12110.000000,51763.000000
29114.000000,19789.000000,12040.000000,51784.000000
29061.000000,19729.000000,12083.000000,51678.000000
29052.000000,19766.000000,12010.000000,51691.000000
29100.000000,19795.000000,12049.000000,51709.000000
29041.000000,19744.000000,12052.000000,51691.000000
29065.000000,19803.000000,12054.000000,51689.000000
29027.000000,19708.000000,12055.000000,51701.000000
28989.000000,19721.000000,12030.000000,51685.000000
29001.000000,19737.000000,12029.000000,51701.000000
29027.000000,19753.000000,12082.000000,51708.000000
29013.000000,19736.000000,12090.000000,51711.000000
29019.000000,19795.000000,12128.000000,51715.000000
29068.000000,19817.000000,12042.000000,51798.000000
29048.000000,19778.000000,12099.000000,51724.000000
29082.000000,19785.000000,12124.000000,51734.000000
29106.000000,19769.000000,12097.000000,51729.000000
29101.000000,19809.000000,12154.000000,51725.000000
29177.000000,19907.000000,12161.000000,51758.000000
29127.000000,19844.000000,12136.000000,51809.000000
29225.000000,19919.000000,12316.000000,51871.000000
29233.000000,19971.000000,12255.000000,51856.000000
29369.000000,19957.000000,12413.000000,51948.000000
29413.000000,20015.000000,12376.000000,51946.000000
29525.000000,20099.000000,12549.000000,52047.000000
29543.000000,20060.000000,12638.000000,52009.000000
29554.000000,20139.000000,12526.000000,52049.000000
29597.000000,20185.000000,12541.000000,52050.000000
29600.000000,20185.000000,12626.000000,52061.000000
29649.000000,20210.000000,12650.000000,52075.000000
29649.000000,20198.000000,12619.000000,52066.000000
29567.000000,20155.000000,12588.000000,52061.000000
29631.000000,20150.000000,12525.000000,52083.000000
29560.000000,20135.000000,12550.000000,52015.000000
29589.000000,20140.000000,12590.000000,52051.000000
29590.000000,20199.000000,12543.000000,51909.000000
29549.000000,20133.000000,12561.000000,52051.000000
29625.000000,20137.000000,12520.000000,52018.000000
29506.000000,20115.000000,12538.000000,52055.000000
29507.000000,20098.000000,12531.000000,52007.000000
29509.000000,20119.000000,12528.000000,52034.000000
29522.000000,20142.000000,12497.000000,52014.000000
29467.000000,20059.000000,12440.000000,51992.000000
29497.000000,20075.000000,12486.000000,51962.000000
29522.000000,20083.000000,12519.000000,52022.000000
29469.000000,20033.000000,12486.000000,51993.000000
29462.000000,20079.000000,12457.000000,51969.000000
29409.000000,19969.000000,12395.000000,51962.000000
29452.000000,20036.000000,12427.000000,51945.000000
29461.000000,20088.000000,12376.000000,52043.000000
29422.000000,20061.000000,12429.000000,51919.000000
29409.000000,20041.000000,12378.000000,51971.000000
29498.000000,20026.000000,12371.000000,51902.000000
29329.000000,20015.000000,12359.000000,51954.000000
29300.000000,19988.000000,12360.000000,51922.000000
29396.000000,19926.000000,12339.000000,51938.000000
29385.000000,20027.000000,12302.000000,51882.000000
29374.000000,19962.000000,12329.000000,51924.000000
29359.000000,19919.000000,12278.000000,51867.000000
29329.000000,20005.000000,12341.000000,51859.000000
29281.000000,19943.000000,12221.000000,51836.000000
29292.000000,19934.000000,12336.000000,51911.000000
29335.000000,19992.000000,12299.000000,51884.000000
29268.000000,19937.000000,12237.000000,51834.000000
29266.000000,19935.000000,12319.000000,51851.000000
29260.000000,19978.000000,12210.000000,51819.000000
29224.000000,19934.000000,12216.000000,51843.000000
29212.000000,19948.000000,12263.000000,51854.000000
29224.000000,19910.000000,12193.000000,51785.000000
29195.000000,19887.000000,12198.000000,51807.000000
29197.000000,19886.000000,12243.000000,51819.000000
29184.000000,19864.000000,12169.000000,51777.000000
29137.000000,19822.000000,12244.000000,51812.000000
29124.000000,19865.000000,12075.000000,51768.000000
29113.000000,19864.000000,12122.000000,51718.000000
29130.000000,19810.000000,12137.000000,51744.000000
29025.000000,19760.000000,12055.000000,51747.000000
29068.000000,19800.000000,12023.000000,51714.000000
29054.000000,19764.000000,12008.000000,51707.000000
29067.000000,19777.000000,12036.000000,51713.000000
29092.000000,19849.000000,12050.000000,51691.000000
29108.000000,19820.000000,12082.000000,51717.000000
29099.000000,19839.000000,12055.000000,51820.000000
29072.000000,19852.000000,12120.000000,51708.000000
29065.000000,19817.000000,12099.000000,51778.000000
29109.000000,19895.000000,12182.000000,51861.000000
29172.000000,19835.000000,12193.000000,51795.000000
29194.000000,19884.000000,12176.000000,51765.000000
29130.000000,19923.000000,12179.000000,51867.000000
29194.000000,19887.000000,12184.000000,51851.000000
29290.000000,19974.000000,12328.000000,51874.000000
29333.000000,19986.000000,12345.000000,51894.000000
29321.000000,20008.000000,12367.000000,51938.000000
29377.000000,20020.000000,12386.000000,51966.000000
29404.000000,20078.000000,12411.000000,51994.000000
29425.000000,20076.000000,12478.000000,52018.000000
29445.000000,20091.000000,12531.000000,52015.000000
29502.000000,20168.000000,12543.000000,52067.000000
29561.000000,20165.000000,12557.000000,52118.000000
29517.000000,20217.000000,12647.000000,52102.000000
29578.000000,20219.000000,12655.000000,52060.000000
29622.000000,20277.000000,12706.000000,52154.000000
29637.000000,20251.000000,12758.000000,52136.000000
29683.000000,20247.000000,12722.000000,52149.000000
29623.000000,20311.000000,12764.000000,52122.000000
29646.000000,20267.000000,12766.000000,52185.000000
29683.000000,20268.000000,12693.000000,52153.000000
29619.000000,20297.000000,12708.000000,52177.000000
29661.000000,20247.000000,12725.000000,52150.000000
29681.000000,20254.000000,12676.000000,52141.000000
29638.000000,20248.000000,12727.000000,52157.000000
29616.000000,20151.000000,12680.000000,52074.000000
29666.000000,20262.000000,12663.000000,52131.000000
29662.000000,20243.000000,12670.000000,52088.000000
29642.000000,20236.000000,12718.000000,52134.000000
29658.000000,20249.000000,12752.000000,52200.000000
29677.000000,20255.000000,12676.000000,52122.000000
29634.000000,20256.000000,12675.000000,52122.000000
29618.000000,20214.000000,12730.000000,52139.000000
29600.000000,20245.000000,12655.000000,52080.000000
29637.000000,20276.000000,12756.000000,52084.000000
29592.000000,20163.000000,12665.000000,52129.000000
29586.000000,20183.000000,12697.000000,52129.000000
29622.000000,20177.000000,12665.000000,52075.000000
29586.000000,20194.000000,12702.000000,52103.000000
29634.000000,20210.000000,12615.000000,52110.000000
29672.000000,20173.000000,12552.000000,52170.000000
29591.000000,20163.000000,12651.000000,52107.000000
29645.000000,20162.000000,12592.000000,52089.000000
29607.000000,20176.000000,12632.000000,52115.000000
29581.000000,20174.000000,12604.000000,52103.000000
29594.000000,20159.000000,12638.000000,52102.000000
29580.000000,20143.000000,12592.000000,52079.000000
29588.000000,20118.000000,12620.000000,52075.000000
29571.000000,20189.000000,12589.000000,52090.000000
29659.000000,20135.000000,12568.000000,52100.000000
29527.000000,20185.000000,12604.000000,52077.000000
29601.000000,20116.000000,12584.000000,52120.000000
29563.000000,20126.000000,12628.000000,52118.000000
29582.000000,20125.000000,12586.000000,52101.000000
29541.000000,20173.000000,12570.000000,52107.000000
29525.000000,20092.000000,12587.000000,52002.000000
29570.000000,20168.000000,12567.000000,52081.000000
29531.000000,20102.000000,12546.000000,52043.000000
29566.000000,20112.000000,12594.000000,52062.000000
29535.000000,20105.000000,12575.000000,52029.000000
29560.000000,20055.000000,12590.000000,52010.000000
29531.000000,20105.000000,12590.000000,52029.000000
29512.000000,20109.000000,12531.000000,52045.000000
29467.000000,20093.000000,12582.000000,52064.000000
29483.000000,20176.000000,12595.000000,52043.000000
29544.000000,20085.000000,12570.000000,52066.000000
29512.000000,20110.000000,12545.000000,52044.000000
29481.000000,20101.000000,12490.000000,52052.000000
29469.000000,20124.000000,12510.000000,52093.000000
29500.000000,20085.000000,12590.000000,52038.000000
29506.000000,20071.000000,12512.000000,51979.000000
29456.000000,20131.000000,12506.000000,52003.000000
29518.000000,20095.000000,12513.000000,52034.000000
29455.000000,20081.000000,12444.000000,52026.000000
29511.000000,20034.000000,12495.000000,52021.000000
29423.000000,20066.000000,12517.000000,52049.000000
29482.000000,20103.000000,12490.000000,52032.000000
29522.000000,20068.000000,12463.000000,52084.000000
29458.000000,20041.000000,12443.000000,51995.000000
29435.000000,20025.000000,12445.000000,52006.000000
29471.000000,20030.000000,12458.000000,51997.000000
29450.000000,20117.000000,12439.000000,52010.000000
29408.000000,20040.000000,12451.000000,52008.000000
29440.000000,20056.000000,12510.000000,51945.000000
29391.000000,20049.000000,12435.000000,51970.000000
29477.000000,20036.000000,12460.000000,51998.000000
29402.000000,20046.000000,12448.000000,51980.000000
29412.000000,20039.000000,12384.000000,52005.000000
29406.000000,20033.000000,12456.000000,52041.000000
29395.000000,19984.000000,12395.000000,51987.000000
29424.000000,19956.000000,12393.000000,51951.000000
29407.000000,19982.000000,12414.000000,51930.000000
29477.000000,20039.000000,12402.000000,52004.000000
29422.000000,19998.000000,12479.000000,51996.000000
29470.000000,20017.000000,12399.000000,51927.000000
29381.000000,19987.000000,12411.000000,51954.000000
29365.000000,19974.000000,12330.000000,51951.000000
29346.000000,19991.000000,12419.000000,51947.000000
29375.000000,20001.000000,12360.000000,51977.000000
29270.000000,19993.000000,12380.000000,51952.000000
29333.000000,20000.000000,12432.000000,51934.000000
29340.000000,19963.000000,12402.000000,51955.000000
29371.000000,20032.000000,12430.000000,51945.000000
29361.000000,20116.000000,12386.000000,51942.000000
29368.000000,19932.000000,12354.000000,51900.000000
29285.000000,20003.000000,12430.000000,51923.000000
29365.000000,19984.000000,12380.000000,51991.000000
29409.000000,19995.000000,12324.000000,51988.000000
29342.000000,20010.000000,12438.000000,51973.000000
29329.000000,19983.000000,12382.000000,51869.000000
29372.000000,19976.000000,12385.000000,51981.000000
29302.000000,19946.000000,12485.000000,51932.000000
29303.000000,19943.000000,12281.000000,51964.000000
29314.000000,19993.000000,12375.000000,51925.000000
29353.000000,19974.000000,12363.000000,51932.000000
29241.000000,19988.000000,12376.000000,51942.000000
29305.000000,20091.000000,12364.000000,51950.000000
29298.000000,19950.000000,12391.000000,51929.000000
29229.000000,19956.000000,12321.000000,51999.000000
29277.000000,19989.000000,12360.000000,51953.000000
29300.000000,19922.000000,12315.000000,51834.000000
29245.000000,19952.000000,12373.000000,51926.000000
29263.000000,19876.000000,12332.000000,51927.000000
29206.000000,19943.000000,12304.000000,51928.000000
29215.000000,19909.000000,12284.000000,51894.000000
29224.000000,19919.000000,12275.000000,51859.000000
29176.000000,19917.000000,12256.000000,51889.000000
29191.000000,19843.000000,12303.000000,51930.000000
29187.000000,19897.000000,12255.000000,51848.000000
29161.000000,19873.000000,12216.000000,51880.000000
29161.000000,19844.000000,12212.000000,51873.000000
29127.000000,19878.000000,12263.000000,51858.000000
29127.000000,19873.000000,12225.000000,51863.000000
29107.000000,19846.000000,12231.000000,51939.000000
29166.000000,19873.000000,12221.000000,51864.000000
29052.000000,19851.000000,12200.000000,51860.000000
29150.000000,19868.000000,12201.000000,51865.000000
29175.000000,19897.000000,12193.000000,51868.000000
29141.000000,19862.000000,12204.000000,51876.000000
29152.000000,19898.000000,12236.000000,51887.000000
29195.000000,19900.000000,12237.000000,51841.000000
29158.000000,19900.000000,12240.000000,51862.000000
29229.000000,19875.000000,12274.000000,51867.000000
29159.000000,19893.000000,12274.000000,51858.000000
29227.000000,19885.000000,12345.000000,51851.000000
29152.000000,19853.000000,12277.000000,51903.000000
29206.000000,19879.000000,12281.000000,51944.000000
29142.000000,19885.000000,12280.000000,51901.000000
29185.000000,19947.000000,12335.000000,51929.000000
29153.000000,19889.000000,12303.000000,51891.000000
29158.000000,19877.000000,12379.000000,51860.000000
29178.000000,19905.000000,12275.000000,51905.000000
29191.000000,19886.000000,12336.000000,51895.000000
29217.000000,19955.000000,12267.000000,51900.000000
29174.000000,19912.000000,12330.000000,51901.000000
29265.000000,19963.000000,12404.000000,51935.000000
29191.000000,19967.000000,12377.000000,51936.000000
29200.000000,19946.000000,12329.000000,51910.000000
29261.000000,19986.000000,12347.000000,51977.000000
29217.000000,19930.000000,12368.000000,51940.000000
29297.000000,19920.000000,12441.000000,51945.000000
29310.000000,20013.000000,12470.000000,52069.000000
29346.000000,19998.000000,12436.000000,52008.000000
29334.000000,20123.000000,12485.000000,51951.000000
29358.000000,20035.000000,12529.000000,52067.000000
29412.000000,20090.000000,12568.000000,52033.000000
29449.000000,20112.000000,12554.000000,52096.000000
29463.000000,20121.000000,12580.000000,52116.000000
29472.000000,20172.000000,12648.000000,52127.000000
29533.000000,20167.000000,12665.000000,52133.000000
29473.000000,20174.000000,12677.000000,52121.000000
29601.000000,20221.000000,12747.000000,52148.000000
29641.000000,20222.000000,12737.000000,52132.000000
29662.000000,20244.000000,12831.000000,52195.000000
29685.000000,20264.000000,12709.000000,52125.000000
29659.000000,20265.000000,12825.000000,52171.000000
29678.000000,20338.000000,12824.000000,52248.000000
29671.000000,20241.000000,12837.000000,52238.000000
29703.000000,20291.000000,12861.000000,52240.000000
29688.000000,20308.000000,12822.000000,52194.000000
29691.000000,20284.000000,12804.000000,52188.000000
29620.000000,20292.000000,12792.000000,52173.000000
29673.000000,20277.000000,12779.000000,52187.000000
29662.000000,20244.000000,12796.000000,52258.000000
29625.000000,20292.000000,12779.000000,52196.000000
29697.000000,20291.000000,12809.000000,52288.000000
29625.000000,20266.000000,12796.000000,52195.000000
29641.000000,20221.000000,12809.000000,52185.000000
29620.000000,20288.000000,12796.000000,52193.000000
29608.000000,20183.000000,12730.000000,52185.000000
29602.000000,20240.000000,12762.000000,52189.000000
29561.000000,20229.000000,12773.000000,52135.000000
29655.000000,20236.000000,12771.000000,52166.000000
29609.000000,20179.000000,12738.000000,52139.000000
29588.000000,20191.000000,12734.000000,52177.000000
29627.000000,20246.000000,12758.000000,52155.000000
29601.000000,20200.000000,12785.000000,52177.000000
29568.000000,20231.000000,12703.000000,52181.000000
29639.000000,20157.000000,12742.000000,52173.000000
29573.000000,20216.000000,12774.000000,52136.000000
29614.000000,20248.000000,12704.000000,52170.000000
29536.000000,20171.000000,12690.000000,52207.000000
29522.000000,20208.000000,12707.000000,52176.000000
29576.000000,20224.000000,12686.000000,52109.000000
29619.000000,20277.000000,12593.000000,52224.000000
29552.000000,20198.000000,12720.000000,52174.000000
29525.000000,20216.000000,12727.000000,52127.000000
29547.000000,20200.000000,12673.000000,52132.000000
29556.000000,20220.000000,12693.000000,52155.000000
29477.000000,20222.000000,12667.000000,52171.000000
29556.000000,20198.000000,12650.000000,52141.000000
29537.000000,20205.000000,12678.000000,52135.000000
29540.000000,20201.000000,12686.000000,52178.000000
29544.000000,20160.000000,12723.000000,52123.000000
29486.000000,20169.000000,12666.000000,52123.000000
29506.000000,20102.000000,12618.000000,52071.000000
29513.000000,20124.000000,12625.000000,52091.000000
29505.000000,20181.000000,12581.000000,52029.000000
29446.000000,20132.000000,12646.000000,52082.000000
29496.000000,20170.000000,12641.000000,52092.000000
29489.000000,20121.000000,12569.000000,52110.000000
29413.000000,20122.000000,12638.000000,52058.000000
29464.000000,20133.000000,12578.000000,52112.000000
29412.000000,20138.000000,12640.000000,52088.000000
29420.000000,20110.000000,12583.000000,52007.000000
29438.000000,20042.000000,12570.000000,52041.000000
29337.000000,20096.000000,12563.000000,52063.000000
29420.000000,20067.000000,12496.000000,52069.000000
29429.000000,20066.000000,12543.000000,51981.000000
29417.000000,20069.000000,12500.000000,52064.000000
29480.000000,20076.000000,12526.000000,52039.000000
29402.000000,20074.000000,12564.000000,52074.000000
29379.000000,20075.000000,12534.000000,52054.000000
29375.000000,20060.000000,12499.000000,52081.000000
29357.000000,20062.000000,12511.000000,52066.000000
29390.000000,20057.000000,12500.000000,52018.000000
29328.000000,20003.000000,12452.000000,52016.000000
29384.000000,20010.000000,12519.000000,52013.000000
29317.000000,20048.000000,12476.000000,51993.000000
29329.000000,20042.000000,12494.000000,51996.000000
29311.000000,20029.000000,12471.000000,52020.000000
29299.000000,20040.000000,12479.000000,51957.000000
29325.000000,20032.000000,12411.000000,51960.000000
29318.000000,20033.000000,12330.000000,51966.000000
29288.000000,20050.000000,12435.000000,51996.000000
29416.000000,20016.000000,12408.000000,51991.000000
29277.000000,19977.000000,12426.000000,51939.000000
29341.000000,19984.000000,12422.000000,51988.000000
29289.000000,20021.000000,12390.000000,51983.000000
29291.000000,20038.000000,12385.000000,51990.000000
29259.000000,19899.000000,12412.000000,51968.000000
29268.000000,20004.000000,12410.000000,52014.000000
29290.000000,19961.000000,12356.000000,52031.000000
29211.000000,19984.000000,12452.000000,51982.000000
29268.000000,19979.000000,12430.000000,51976.000000
29223.000000,19965.000000,12365.000000,51931.000000
29235.000000,19932.000000,12357.000000,51964.000000
29209.000000,19927.000000,12357.000000,51947.000000
29205.000000,19952.000000,12354.000000,51915.000000
29247.000000,19958.000000,12369.000000,51942.000000
29218.000000,19967.000000,12344.000000,52028.000000
29225.000000,19940.000000,12354.000000,51953.000000
29165.000000,19881.000000,12327.000000,51926.000000
29216.000000,19930.000000,12303.000000,51903.000000
29211.000000,19937.000000,12342.000000,51914.000000
29175.000000,19888.000000,12391.000000,51917.000000
29172.000000,19945.000000,12304.000000,51905.000000
29244.000000,19878.000000,12344.000000,51879.000000
29168.000000,19876.000000,12349.000000,51869.000000
29211.000000,19846.000000,12329.000000,51900.000000
29142.000000,19876.000000,12259.000000,51864.000000
29178.000000,19936.000000,12195.000000,51984.000000
29188.000000,19906.000000,12295.000000,51872.000000
29153.000000,19891.000000,12260.000000,51849.000000
29137.000000,19895.000000,12290.000000,51889.000000
29140.000000,19870.000000,12234.000000,51884.000000
29134.000000,19865.000000,12261.000000,51905.000000
29167.000000,19880.000000,12267.000000,51878.000000
29046.000000,19861.000000,12247.000000,51884.000000
29099.000000,19904.000000,12255.000000,51854.000000
29102.000000,19857.000000,12314.000000,51841.000000
29116.000000,19826.000000,12186.000000,51837.000000
29054.000000,19754.000000,12263.000000,51880.000000
29086.000000,19819.000000,12187.000000,51842.000000
29017.000000,19771.000000,12189.000000,51828.000000
29029.000000,19795.000000,12127.000000,51826.000000
29065.000000,19796.000000,12215.000000,51850.000000
28996.000000,19804.000000,12134.000000,51829.000000
28963.000000,19814.000000,12113.000000,51758.000000
29014.000000,19767.000000,12132.000000,51823.000000
28997.000000,19768.000000,12105.000000,51807.000000
29009.000000,19718.000000,12127.000000,51811.000000
29042.000000,19806.000000,12128.000000,51863.000000
29028.000000,19701.000000,12170.000000,51821.000000
28974.000000,19815.000000,12123.000000,51826.000000
29094.000000,19797.000000,12173.000000,51745.000000
29005.000000,19824.000000,12125.000000,51783.000000
28990.000000,19723.000000,12126.000000,51798.000000
28989.000000,19817.000000,12121.000000,51893.000000
28895.000000,19785.000000,12217.000000,51842.000000
29002.000000,19815.000000,12140.000000,51864.000000
29002.000000,19772.000000,12176.000000,51793.000000
28958.000000,19793.000000,12117.000000,51825.000000
28964.000000,19790.000000,12143.000000,51844.000000
28978.000000,19779.000000,12184.000000,51808.000000
28977.000000,19801.000000,12185.000000,51811.000000
28965.000000,19732.000000,12148.000000,51810.000000
28971.000000,19787.000000,12152.000000,51814.000000
28969.000000,19834.000000,12087.000000,51841.000000
29029.000000,19767.000000,12185.000000,51846.000000
28959.000000,19822.000000,12138.000000,51836.000000
28982.000000,19808.000000,12170.000000,51825.000000
29030.000000,19766.000000,12194.000000,51891.000000
29011.000000,19791.000000,12168.000000,51806.000000
29048.000000,19780.000000,12176.000000,51857.000000
29022.000000,19804.000000,12212.000000,51818.000000
29034.000000,19821.000000,12163.000000,51822.000000
29140.000000,19828.000000,12216.000000,51894.000000
29096.000000,19903.000000,12204.000000,51908.000000
29098.000000,19879.000000,12274.000000,51889.000000
29111.000000,19925.000000,12280.000000,51893.000000
29119.000000,19934.000000,12274.000000,51897.000000
29164.000000,19948.000000,12283.000000,51912.000000
29165.000000,19926.000000,12321.000000,51939.000000
29175.000000,19927.000000,12384.000000,51920.000000
29131.000000,19994.000000,12379.000000,52021.000000
29226.000000,19999.000000,12429.000000,52026.000000
29263.000000,20014.000000,12459.000000,51937.000000
29316.000000,20026.000000,12526.000000,52049.000000
29409.000000,20100.000000,12527.000000,51980.000000
29372.000000,20093.000000,12529.000000,52041.000000
29433.000000,20107.000000,12535.000000,52068.000000
29396.000000,20106.000000,12561.000000,52083.000000
29474.000000,20070.000000,12543.000000,52100.000000
29509.000000,20082.000000,12540.000000,52079.000000
29435.000000,20133.000000,12615.000000,52059.000000
29400.000000,20147.000000,12606.000000,52102.000000
29434.000000,20100.000000,12601.000000,52148.000000
29353.000000,20086.000000,12527.000000,52144.000000
29409.000000,20091.000000,12576.000000,52099.000000
29389.000000,20058.000000,12496.000000,52074.000000
29400.000000,20103.000000,12597.000000,52024.000000
29377.000000,20065.000000,12544.000000,51994.000000
29413.000000,20029.000000,12461.000000,52088.000000
29387.000000,20056.000000,12481.000000,52053.000000
29356.000000,20034.000000,12514.000000,52062.000000
29393.000000,20046.000000,12525.000000,52036.000000
29309.000000,20051.000000,12439.000000,52027.000000
29364.000000,20032.000000,12421.000000,52037.000000
29314.000000,20021.000000,12458.000000,51987.000000
29331.000000,20085.000000,12459.000000,52017.000000
29312.000000,19954.000000,12414.000000,52019.000000
29281.000000,20009.000000,12426.000000,51997.000000
29297.000000,20067.000000,12423.000000,52090.000000
29360.000000,20028.000000,12376.000000,51991.000000
29320.000000,20009.000000,12384.000000,51962.000000
29334.000000,19998.000000,12369.000000,52004.000000
29305.000000,19965.000000,12370.000000,51991.000000
29297.000000,19977.000000,12410.000000,52009.000000
29269.000000,20243.000000,12407.000000,51982.000000
29371.000000,20036.000000,12385.000000,52000.000000
29313.000000,19928.000000,12373.000000,51936.000000
29309.000000,19958.000000,12339.000000,51953.000000
29256.000000,19962.000000,12359.000000,51937.000000
29248.000000,19943.000000,12316.000000,51947.000000
29234.000000,19959.000000,12331.000000,51965.000000
29306.000000,19895.000000,12323.000000,51911.000000
29237.000000,19915.000000,12309.000000,51919.000000
29211.000000,19976.000000,12292.000000,51952.000000
29216.000000,19918.000000,12277.000000,51929.000000
29235.000000,19914.000000,12355.000000,51975.000000
29203.000000,19895.000000,12298.000000,51906.000000
29231.000000,19872.000000,12273.000000,51958.000000
29164.000000,19851.000000,12310.000000,51916.000000
29155.000000,19919.000000,12331.000000,51920.000000
29236.000000,19828.000000,12247.000000,51896.000000
29261.000000,19877.000000,12231.000000,51864.000000
29149.000000,19862.000000,12232.000000,51902.000000
29217.000000,19877.000000,12219.000000,51908.000000
29198.000000,19903.000000,12217.000000,51879.000000
29168.000000,19800.000000,12294.000000,51878.000000
29179.000000,19820.000000,12128.000000,51891.000000
29195.000000,19863.000000,12187.000000,51855.000000
29181.000000,19855.000000,12209.000000,51835.000000
29177.000000,19814.000000,12187.000000,51880.000000
29188.000000,19836.000000,12166.000000,51890.000000
29205.000000,19823.000000,12177.000000,51876.000000
29232.000000,19810.000000,12206.000000,51803.000000
29177.000000,19813.000000,12137.000000,51834.000000
29161.000000,19778.000000,12170.000000,51859.000000
29187.000000,19843.000000,12163.000000,51874.000000
29174.000000,19711.000000,12160.000000,51840.000000
29063.000000,19808.000000,12165.000000,51785.000000
29095.000000,19768.000000,12108.000000,51771.000000
29033.000000,19782.000000,12103.000000,51848.000000
29057.000000,19735.000000,12145.000000,51797.000000
29077.000000,19759.000000,12064.000000,51780.000000
29065.000000,19755.000000,12073.000000,51782.000000
29125.000000,19823.000000,12072.000000,51780.000000
29113.000000,19776.000000,12059.000000,51835.000000
29057.000000,19821.000000,12074.000000,51822.000000
29095.000000,19753.000000,12058.000000,51833.000000
29093.000000,19770.000000,12008.000000,51831.000000
29113.000000,19756.000000,12078.000000,51820.000000
29072.000000,19837.000000,12081.000000,51834.000000
29057.000000,19788.000000,12030.000000,51916.000000
29060.000000,19742.000000,12003.000000,51781.000000
29074.000000,19778.000000,12033.000000,51796.000000
29040.000000,19735.000000,11961.000000,51792.000000
28972.000000,19723.000000,11954.000000,51801.000000
29039.000000,19721.000000,11998.000000,51788.000000
28970.000000,19712.000000,11982.000000,51818.000000
29022.000000,19685.000000,12006.000000,51780.000000
29014.000000,19722.000000,12003.000000,51800.000000
28979.000000,19669.000000,11998.000000,51779.000000
29003.000000,19710.000000,11964.000000,51769.000000
29018.000000,19706.000000,11988.000000,51744.000000
28982.000000,19760.000000,12010.000000,51768.000000
29017.000000,19670.000000,12084.000000,51699.000000
29002.000000,19691.000000,11994.000000,51768.000000
29010.000000,19705.000000,11999.000000,51786.000000
28988.000000,19668.000000,11982.000000,51751.000000
28958.000000,19644.000000,11986.000000,51712.000000
28933.000000,19633.000000,11983.000000,51758.000000
28963.000000,19649.000000,11986.000000,51756.000000
28965.000000,19644.000000,11928.000000,51699.000000
28955.000000,19622.000000,11841.000000,51700.000000
28911.000000,19631.000000,11969.000000,51678.000000
28949.000000,19603.000000,11912.000000,51721.000000
28951.000000,19620.000000,11877.000000,51705.000000
28932.000000,19665.000000,11907.000000,51674.000000
28958.000000,19616.000000,11921.000000,51781.000000
28918.000000,19678.000000,11922.000000,51771.000000
28983.000000,19588.000000,11870.000000,51751.000000
28951.000000,19663.000000,11952.000000,51770.000000
28832.000000,19635.000000,11913.000000,51624.000000
28903.000000,19625.000000,11904.000000,51698.000000
28881.000000,19559.000000,11889.000000,51729.000000
28856.000000,19640.000000,11902.000000,51700.000000
28886.000000,19665.000000,11884.000000,51677.000000
28883.000000,19591.000000,11870.000000,51707.000000
28923.000000,19604.000000,11937.000000,51715.000000
28887.000000,19643.000000,11965.000000,51672.000000
28890.000000,19556.000000,11854.000000,51650.000000
28854.000000,19479.000000,11828.000000,51619.000000
28827.000000,19565.000000,11811.000000,51618.000000
28833.000000,19549.000000,11761.000000,51719.000000
28851.000000,19531.000000,11830.000000,51687.000000
28800.000000,19556.000000,11789.000000,51689.000000
28812.000000,19526.000000,11842.000000,51619.000000
28803.000000,19623.000000,11809.000000,51723.000000
28790.000000,19579.000000,11746.000000,51653.000000
28823.000000,19540.000000,11757.000000,51633.000000
28759.000000,19589.000000,11792.000000,51614.000000
28839.000000,19556.000000,11753.000000,51683.000000
28799.000000,19522.000000,11789.000000,51642.000000
28739.000000,19543.000000,11819.000000,51652.000000
28722.000000,19548.000000,11739.000000,51665.000000
28725.000000,19479.000000,11713.000000,51669.000000
28682.000000,19596.000000,11787.000000,51681.000000
28770.000000,19595.000000,11674.000000,51595.000000
28756.000000,19506.000000,11823.000000,51691.000000
28762.000000,19536.000000,11802.000000,51658.000000
28774.000000,19495.000000,11885.000000,51556.000000
28782.000000,19509.000000,11799.000000,51595.000000
28798.000000,19503.000000,11776.000000,51572.000000
28791.000000,19526.000000,11799.000000,51629.000000
28779.000000,19510.000000,11787.000000,51689.000000
28789.000000,19567.000000,11775.000000,51645.000000
28705.000000,19500.000000,11799.000000,51654.000000
28692.000000,19511.000000,11785.000000,51636.000000
28787.000000,19516.000000,11821.000000,51632.000000
28811.000000,19686.000000,11828.000000,51692.000000
28772.000000,19606.000000,11842.000000,51706.000000
28851.000000,19628.000000,11816.000000,51674.000000
28797.000000,19620.000000,11878.000000,51724.000000
28771.000000,19621.000000,11842.000000,51753.000000
28759.000000,19625.000000,11885.000000,51696.000000
28848.000000,19623.000000,11934.000000,51703.000000
28828.000000,19669.000000,11942.000000,51722.000000
28819.000000,19653.000000,11937.000000,51753.000000
28861.000000,19677.000000,11896.000000,51762.000000
28854.000000,19681.000000,11951.000000,51708.000000
28877.000000,19597.000000,11918.000000,51761.000000
28946.000000,19713.000000,11965.000000,51740.000000
28914.000000,19668.000000,11933.000000,51755.000000
28875.000000,19702.000000,12003.000000,51708.000000
29068.000000,19738.000000,12097.000000,51778.000000
29043.000000,19711.000000,12069.000000,51822.000000
28964.000000,19781.000000,12107.000000,51779.000000
29020.000000,19758.000000,12176.000000,51801.000000
29080.000000,19777.000000,12183.000000,51786.000000
29093.000000,19795.000000,12156.000000,51845.000000
29116.000000,19852.000000,12207.000000,51880.000000
29199.000000,19866.000000,12253.000000,51920.000000
29219.000000,19869.000000,12257.000000,51870.000000
29289.000000,19909.000000,12347.000000,51943.000000
29255.000000,19944.000000,12397.000000,51988.000000
29337.000000,19988.000000,12420.000000,52002.000000
29307.000000,20007.000000,12404.000000,51995.000000
29333.000000,20023.000000,12375.000000,52008.000000
29293.000000,20011.000000,12417.000000,52044.000000
29373.000000,20105.000000,12366.000000,51978.000000
29330.000000,20033.000000,12456.000000,52087.000000
29283.000000,20062.000000,12476.000000,51994.000000
29313.000000,20022.000000,12419.000000,52050.000000
29314.000000,20034.000000,12390.000000,52040.000000
29322.000000,20034.000000,12442.000000,52075.000000
29306.000000,19949.000000,12354.000000,52030.000000
29336.000000,20045.000000,12479.000000,52052.000000
29281.000000,19969.000000,12360.000000,51987.000000
29261.000000,20061.000000,12336.000000,51973.000000
29237.000000,19968.000000,12323.000000,51954.000000
29154.000000,19966.000000,12463.000000,51986.000000
29270.000000,19976.000000,12358.000000,51980.000000
29334.000000,19937.000000,12346.000000,51985.000000
29285.000000,19988.000000,12345.000000,52015.000000
29235.000000,19892.000000,12355.000000,51961.000000
29237.000000,19939.000000,12355.000000,51980.000000
29283.000000,19965.000000,12358.000000,52221.000000
29187.000000,19988.000000,12314.000000,51956.000000
29231.000000,19928.000000,12353.000000,51998.000000
29267.000000,19855.000000,12338.000000,51964.000000
29187.000000,19906.000000,12260.000000,51966.000000
29172.000000,20011.000000,12338.000000,51954.000000
29249.000000,19932.000000,12345.000000,51955.000000
29301.000000,20030.000000,12425.000000,51974.000000
29256.000000,19903.000000,12322.000000,51960.000000
29261.000000,19935.000000,12297.000000,51867.000000
29228.000000,19960.000000,12349.000000,51976.000000
29199.000000,19868.000000,12329.000000,51918.000000
29250.000000,19933.000000,12293.000000,51959.000000
29252.000000,19893.000000,12291.000000,51903.000000
29253.000000,19899.000000,12295.000000,51924.000000
29204.000000,19877.000000,12327.000000,51913.000000
29187.000000,19929.000000,12371.000000,51889.000000
29131.000000,19879.000000,12263.000000,51887.000000
29194.000000,19919.000000,12311.000000,51896.000000
29193.000000,19891.000000,12263.000000,51908.000000
29165.000000,19852.000000,12286.000000,51933.000000
29165.000000,19848.000000,12251.000000,51892.000000
29155.000000,19881.000000,12253.000000,51949.000000
29106.000000,19874.000000,12197.000000,51879.000000
29128.000000,19898.000000,12204.000000,51929.000000
29098.000000,19829.000000,12253.000000,51909.000000
29090.000000,19879.000000,12224.000000,51961.000000
29108.000000,19813.000000,12216.000000,51851.000000
29071.000000,19834.000000,12218.000000,51878.000000
29105.000000,19790.000000,12203.000000,51875.000000
29082.000000,19822.000000,12216.000000,51904.000000
29100.000000,19862.000000,12179.000000,51845.000000
29086.000000,19906.000000,12222.000000,51880.000000
29082.000000,19711.000000,12177.000000,51904.000000
29101.000000,19826.000000,12144.000000,51862.000000
29064.000000,19805.000000,12198.000000,51795.000000
29124.000000,19786.000000,12176.000000,51855.000000
29076.000000,19752.000000,12149.000000,51809.000000
29057.000000,19758.000000,12147.000000,51825.000000
29065.000000,19781.000000,12136.000000,51835.000000
29082.000000,19805.000000,12158.000000,51815.000000
29046.000000,19764.000000,12139.000000,51819.000000
29053.000000,19775.000000,12112.000000,51836.000000
29046.000000,19735.000000,12128.000000,51800.000000
29034.000000,19773.000000,12141.000000,51788.000000
28962.000000,19761.000000,12107.000000,51862.000000
28982.000000,19834.000000,12069.000000,51797.000000
28975.000000,19748.000000,12057.000000,51776.000000
29044.000000,19773.000000,12086.000000,51814.000000
29002.000000,19773.000000,12029.000000,51811.000000
28894.000000,19707.000000,12063.000000,51780.000000
28939.000000,19725.000000,12007.000000,51758.000000
28956.000000,19733.000000,12002.000000,51750.000000
28974.000000,19722.000000,12042.000000,51766.000000
29010.000000,19709.000000,12082.000000,51759.000000
28888.000000,19707.000000,12047.000000,51773.000000
28906.000000,19696.000000,12013.000000,51800.000000
29000.000000,19738.000000,12016.000000,51765.000000
28958.000000,19668.000000,12033.000000,51785.000000
28921.000000,19656.000000,12035.000000,51824.000000
28914.000000,19684.000000,12019.000000,51753.000000
28889.000000,19642.000000,11973.000000,51763.000000
28943.000000,19631.000000,12005.000000,51759.000000
28938.000000,19627.000000,11946.000000,51730.000000
28971.000000,19660.000000,11960.000000,51730.000000
28914.000000,19631.000000,11924.000000,51729.000000
28940.000000,19615.000000,11985.000000,51724.000000
28927.000000,19650.000000,11925.000000,51783.000000
28879.000000,19649.000000,11954.000000,51689.000000
28887.000000,19660.000000,11911.000000,51736.000000
28896.000000,19593.000000,11916.000000,51680.000000
28886.000000,19649.000000,11937.000000,51741.000000
28946.000000,19566.000000,11964.000000,51711.000000
28874.000000,19641.000000,11866.000000,51751.000000
28837.000000,19646.000000,11893.000000,51692.000000
28857.000000,19637.000000,11877.000000,51725.000000
28899.000000,19617.000000,11966.000000,51686.000000
28827.000000,19620.000000,11863.000000,51695.000000
28819.000000,19602.000000,11864.000000,51684.000000
28803.000000,19560.000000,11839.000000,51664.000000
28881.000000,19573.000000,11839.000000,51656.000000
28806.000000,19585.000000,11825.000000,51687.000000
28834.000000,19575.000000,11846.000000,51626.000000
28805.000000,19562.000000,11854.000000,51654.000000
28854.000000,19567.000000,11832.000000,51643.000000
28806.000000,19577.000000,11874.000000,51628.000000
28817.000000,19555.000000,11846.000000,51668.000000
28826.000000,19584.000000,11818.000000,51663.000000
28746.000000,19563.000000,11882.000000,51619.000000
28791.000000,19516.000000,11787.000000,51584.000000
28766.000000,19530.000000,11781.000000,51575.000000
28761.000000,19568.000000,11746.000000,51649.000000
28742.000000,19523.000000,11788.000000,51623.000000
28718.000000,19492.000000,11775.000000,51614.000000
28686.000000,19511.000000,11778.000000,51590.000000
28738.000000,19500.000000,11741.000000,51611.000000
28683.000000,19530.000000,11739.000000,51601.000000
28754.000000,19525.000000,11718.000000,51620.000000
28679.000000,19475.000000,11775.000000,51579.000000
28738.000000,19480.000000,11725.000000,51595.000000
28693.000000,19468.000000,11708.000000,51605.000000
28689.000000,19455.000000,11720.000000,51604.000000
28782.000000,19424.000000,11700.000000,51594.000000
28705.000000,19569.000000,11743.000000,51651.000000
28751.000000,19506.000000,11761.000000,51584.000000
28746.000000,19545.000000,11741.000000,51640.000000
28667.000000,19499.000000,11773.000000,51546.000000
28698.000000,19544.000000,11771.000000,51634.000000
28720.000000,19528.000000,11761.000000,51664.000000
28702.000000,19582.000000,11773.000000,51686.000000
28704.000000,19498.000000,11775.000000,51661.000000
28718.000000,19502.000000,11770.000000,51670.000000
28733.000000,19551.000000,11792.000000,51630.000000
28721.000000,19488.000000,11826.000000,51662.000000
28782.000000,19566.000000,11781.000000,51681.000000
28760.000000,19643.000000,11788.000000,51654.000000
28761.000000,19589.000000,11840.000000,51703.000000
28733.000000,19617.000000,11844.000000,51723.000000
28823.000000,19613.000000,11834.000000,51670.000000
28713.000000,19620.000000,11858.000000,51732.000000
28773.000000,19608.000000,11851.000000,51684.000000
28779.000000,19577.000000,11842.000000,51668.000000
28788.000000,19619.000000,11859.000000,51697.000000
28802.000000,19581.000000,11877.000000,51725.000000
28844.000000,19638.000000,11885.000000,51716.000000
28869.000000,19647.000000,11896.000000,51697.000000
28843.000000,19665.000000,11931.000000,51670.000000
28841.000000,19700.000000,11890.000000,51749.000000
28898.000000,19626.000000,11955.000000,51783.000000
28854.000000,19649.000000,11964.000000,51767.000000
28893.000000,19742.000000,11957.000000,51721.000000
28929.000000,19720.000000,11982.000000,51826.000000
29050.000000,19656.000000,12077.000000,51882.000000
28957.000000,19754.000000,12024.000000,51821.000000
29030.000000,19778.000000,12043.000000,51856.000000
29052.000000,19807.000000,12109.000000,51853.000000
29115.000000,19886.000000,12174.000000,51900.000000
29091.000000,19903.000000,12197.000000,51920.000000
29196.000000,19898.000000,12248.000000,51934.000000
29209.000000,19863.000000,12276.000000,51980.000000
29246.000000,19951.000000,12302.000000,51922.000000
29248.000000,19977.000000,12300.000000,52026.000000
29281.000000,19993.000000,12342.000000,52026.000000
29311.000000,20080.000000,12367.000000,52041.000000
29318.000000,19961.000000,12395.000000,52014.000000
29298.000000,20069.000000,12451.000000,52076.000000
29378.000000,20020.000000,12400.000000,52041.000000
29386.000000,20162.000000,12469.000000,51937.000000
29381.000000,20028.000000,12425.000000,51977.000000
29376.000000,20033.000000,12419.000000,51983.000000
29392.000000,20022.000000,12449.000000,52063.000000
29386.000000,20069.000000,12418.000000,52077.000000
29462.000000,20039.000000,12429.000000,52030.000000
29405.000000,20038.000000,12450.000000,51997.000000
29417.000000,20013.000000,12466.000000,52008.000000
29385.000000,20045.000000,12462.000000,52026.000000
29388.000000,20100.000000,12503.000000,52020.000000
29374.000000,20016.000000,12424.000000,52042.000000
29376.000000,20044.000000,12452.000000,52033.000000
29339.000000,20032.000000,12461.000000,52072.000000
29429.000000,20144.000000,12439.000000,52051.000000
29393.000000,20022.000000,12461.000000,52121.000000
29400.000000,20112.000000,12515.000000,52086.000000
29383.000000,20085.000000,12497.000000,52046.000000
29362.000000,20115.000000,12499.000000,52121.000000
29390.000000,20050.000000,12468.000000,52075.000000
29385.000000,20042.000000,12494.000000,52070.000000
29389.000000,20094.000000,12431.000000,52115.000000
29365.000000,20101.000000,12485.000000,52090.000000
29418.000000,20095.000000,12441.000000,52102.000000
29355.000000,20046.000000,12509.000000,52035.000000
29305.000000,20063.000000,12470.000000,52020.000000
29402.000000,20061.000000,12476.000000,52041.000000
29283.000000,20069.000000,12444.000000,52118.000000
29341.000000,20081.000000,12428.000000,52128.000000
29288.000000,20050.000000,12419.000000,52046.000000
29317.000000,20086.000000,12496.000000,52061.000000
29334.000000,20088.000000,12434.000000,52039.000000
29338.000000,20081.000000,12426.000000,52055.000000
29370.000000,20087.000000,12404.000000,52020.000000
29293.000000,19997.000000,12407.000000,52092.000000
29313.000000,20017.000000,12417.000000,52069.000000
29303.000000,20007.000000,12400.000000,51942.000000
29275.000000,19946.000000,12442.000000,51996.000000
29294.000000,19927.000000,12432.000000,52085.000000
29338.000000,20041.000000,12431.000000,51992.000000
29255.000000,19979.000000,12372.000000,52024.000000
29316.000000,20043.000000,12388.000000,52048.000000
29330.000000,19999.000000,12407.000000,51976.000000
29355.000000,19990.000000,12436.000000,51939.000000
29314.000000,20010.000000,12386.000000,52055.000000
29366.000000,19940.000000,12438.000000,51997.000000
29323.000000,20002.000000,12342.000000,51989.000000
29316.000000,20024.000000,12402.000000,52016.000000
29339.000000,19953.000000,12363.000000,52007.000000
29341.000000,19937.000000,12401.000000,51985.000000
29340.000000,19979.000000,12461.000000,51983.000000
29326.000000,19992.000000,12401.000000,52051.000000
29335.000000,19967.000000,12367.000000,51973.000000
29363.000000,20076.000000,12384.000000,51977.000000
29285.000000,20007.000000,12384.000000,52016.000000
29337.000000,20030.000000,12412.000000,51996.000000
29338.000000,19932.000000,12395.000000,51994.000000
29316.000000,19867.000000,12380.000000,51917.000000
29260.000000,19913.000000,12396.000000,51993.000000
29217.000000,19883.000000,12360.000000,51916.000000
29256.000000,19961.000000,12366.000000,51967.000000
29243.000000,19949.000000,12388.000000,51998.000000
29313.000000,19923.000000,12314.000000,51922.000000
29256.000000,19952.000000,12348.000000,51952.000000
29235.000000,19949.000000,12333.000000,52038.000000
29183.000000,19926.000000,12318.000000,51957.000000
29142.000000,19880.000000,12336.000000,51976.000000
29197.000000,19923.000000,12327.000000,51948.000000
29209.000000,19934.000000,12275.000000,51940.000000
29202.000000,19904.000000,12294.000000,51938.000000
29195.000000,19917.000000,12277.000000,51927.000000
29163.000000,19950.000000,12307.000000,51979.000000
29216.000000,19930.000000,12242.000000,51944.000000
29197.000000,19967.000000,12271.000000,51969.000000
29170.000000,19951.000000,12279.000000,51977.000000
29157.000000,19958.000000,12337.000000,52009.000000
29148.000000,19955.000000,12314.000000,51967.000000
29156.000000,19944.000000,12307.000000,51984.000000
29206.000000,19903.000000,12284.000000,51970.000000
29178.000000,19815.000000,12277.000000,51982.000000
29126.000000,19919.000000,12296.000000,51944.000000
29177.000000,19927.000000,12246.000000,51964.000000
29202.000000,19854.000000,12297.000000,51937.000000
29139.000000,19887.000000,12300.000000,51906.000000
29186.000000,19886.000000,12325.000000,51929.000000
29142.000000,19917.000000,12292.000000,51884.000000
29128.000000,19906.000000,12327.000000,51990.000000
29138.000000,19887.000000,12275.000000,51950.000000
29146.000000,19962.000000,12303.000000,51958.000000
29131.000000,19843.000000,12347.000000,51964.000000
29115.000000,19924.000000,12264.000000,51936.000000
29136.000000,19894.000000,12339.000000,51950.000000
29229.000000,19893.000000,12305.000000,51934.000000
29026.000000,19855.000000,12298.000000,51910.000000
29137.000000,19904.000000,12276.000000,51970.000000
29083.000000,19882.000000,12277.000000,51942.000000
29038.000000,19830.000000,12274.000000,51913.000000
29068.000000,19817.000000,12245.000000,51946.000000
29103.000000,19902.000000,12218.000000,51906.000000
29054.000000,19844.000000,12245.000000,51889.000000
29105.000000,19873.000000,12198.000000,51863.000000
29064.000000,19848.000000,12249.000000,51874.000000
29004.000000,19828.000000,12192.000000,51878.000000
29095.000000,19841.000000,12193.000000,52188.000000
29017.000000,19805.000000,12192.000000,51908.000000
29086.000000,19729.000000,12230.000000,51899.000000
29026.000000,19777.000000,12162.000000,51864.000000
29006.000000,19739.000000,12116.000000,51817.000000
28947.000000,19826.000000,12116.000000,51856.000000
28906.000000,19819.000000,12192.000000,51848.000000
28921.000000,19747.000000,12070.000000,51765.000000
28930.000000,19699.000000,12088.000000,51850.000000
28909.000000,19753.000000,12092.000000,51790.000000
28900.000000,19738.000000,12101.000000,51762.000000
28962.000000,19768.000000,12078.000000,51806.000000
28962.000000,19677.000000,12049.000000,51819.000000
28892.000000,19729.000000,12153.000000,51808.000000
28920.000000,19694.000000,12076.000000,51845.000000
28904.000000,19714.000000,12070.000000,51807.000000
28952.000000,19682.000000,12091.000000,51808.000000
28970.000000,19694.000000,12152.000000,51856.000000
29006.000000,19737.000000,12094.000000,51854.000000
28917.000000,19690.000000,12038.000000,51814.000000
28930.000000,19711.000000,12062.000000,51844.000000
28911.000000,19775.000000,12091.000000,51778.000000
28907.000000,19733.000000,12096.000000,51817.000000
28899.000000,19757.000000,12115.000000,51886.000000
28928.000000,19750.000000,12101.000000,51839.000000
28942.000000,19756.000000,12101.000000,51826.000000
28938.000000,19756.000000,12095.000000,51863.000000
28970.000000,19691.000000,12120.000000,51885.000000
