660nm,730nm,850nm,940nm
12542.000000,11085.000000,5691.000000,46835.000000
12490.000000,11130.000000,5717.000000,46811.000000
12546.000000,11079.000000,5682.000000,46802.000000
12555.000000,11087.000000,5700.000000,46761.000000
12556.000000,11091.000000,5703.000000,46862.000000
12524.000000,11127.000000,5690.000000,46830.000000
12542.000000,11107.000000,5722.000000,46831.000000
12511.000000,11092.000000,5682.000000,46813.000000
12495.000000,11062.000000,5738.000000,46964.000000
12531.000000,11083.000000,5716.000000,46821.000000
12516.000000,11088.000000,5670.000000,46805.000000
12492.000000,11065.000000,5666.000000,46772.000000
12490.000000,11113.000000,5683.000000,46818.000000
12424.000000,11065.000000,5655.000000,46800.000000
12489.000000,11096.000000,5681.000000,46801.000000
12415.000000,11040.000000,5663.000000,46785.000000
12397.000000,11057.000000,5645.000000,46776.000000
12399.000000,11043.000000,5651.000000,46765.000000
12375.000000,10991.000000,5633.000000,46747.000000
12376.000000,11063.000000,5615.000000,46771.000000
12394.000000,10955.000000,5602.000000,46753.000000
12432.000000,10972.000000,5611.000000,46776.000000
12428.000000,11002.000000,5624.000000,46771.000000
12477.000000,11057.000000,5638.000000,46745.000000
12497.000000,11093.000000,5655.000000,46800.000000
12490.000000,11070.000000,5691.000000,46813.000000
12476.000000,11065.000000,5693.000000,46787.000000
12558.000000,11115.000000,5734.000000,46855.000000
12531.000000,11107.000000,5814.000000,46853.000000
12499.000000,11097.000000,5759.000000,46800.000000
12517.000000,11129.000000,5780.000000,46882.000000
12511.000000,11128.000000,5796.000000,46847.000000
12568.000000,11145.000000,5820.000000,46878.000000
12591.000000,11149.000000,5826.000000,46950.000000
12595.000000,11150.000000,5804.000000,46913.000000
12581.000000,11188.000000,5896.000000,46917.000000
12572.000000,11254.000000,5974.000000,46915.000000
12635.000000,11212.000000,5919.000000,46951.000000
12649.000000,11208.000000,5962.000000,46973.000000
12684.000000,11241.000000,5942.000000,47002.000000
12718.000000,11227.000000,5983.000000,46948.000000
12752.000000,11296.000000,6003.000000,47027.000000
12723.000000,11313.000000,5984.000000,47051.000000
12779.000000,11309.000000,6072.000000,47052.000000
12794.000000,11333.000000,6137.000000,47063.000000
12805.000000,11351.000000,6130.000000,47094.000000
12869.000000,11402.000000,6187.000000,47139.000000
12856.000000,11360.000000,6238.000000,47121.000000
12886.000000,11429.000000,6285.000000,47134.000000
12918.000000,11409.000000,6307.000000,47199.000000
13011.000000,11471.000000,6374.000000,47226.000000
13080.000000,11481.000000,6343.000000,47281.000000
13036.000000,11543.000000,6501.000000,47290.000000
13072.000000,11562.000000,6508.000000,47347.000000
13168.000000,11651.000000,6613.000000,47315.000000
13226.000000,11658.000000,6695.000000,47311.000000
13222.000000,11684.000000,6703.000000,47433.000000
13307.000000,11723.000000,6757.000000,47475.000000
13334.000000,11769.000000,6793.000000,47528.000000
13377.000000,11829.000000,6894.000000,47523.000000
13434.000000,11846.000000,6927.000000,47601.000000
13485.000000,11876.000000,6989.000000,47587.000000
13503.000000,11864.000000,7052.000000,47602.000000
13512.000000,11937.000000,7082.000000,47620.000000
13568.000000,11972.000000,7078.000000,47617.000000
13603.000000,11963.000000,7107.000000,47656.000000
13634.000000,11967.000000,7110.000000,47642.000000
13623.000000,11984.000000,7130.000000,47680.000000
13581.000000,11954.000000,7140.000000,47677.000000
13624.000000,11951.000000,7149.000000,47678.000000
13609.000000,11974.000000,7085.000000,47615.000000
13590.000000,11965.000000,7114.000000,47656.000000
13616.000000,11945.000000,7108.000000,47646.000000
13577.000000,11989.000000,7062.000000,47644.000000
13595.000000,11973.000000,7086.000000,47609.000000
13550.000000,11963.000000,7058.000000,47629.000000
13564.000000,11923.000000,7035.000000,47594.000000
13521.000000,11869.000000,7115.000000,47615.000000
13523.000000,11951.000000,7028.000000,47607.000000
13524.000000,11964.000000,6976.000000,47594.000000
13494.000000,11936.000000,6966.000000,47596.000000
13568.000000,11916.000000,6998.000000,47563.000000
13520.000000,11842.000000,7005.000000,47565.000000
13437.000000,11926.000000,6996.000000,47587.000000
13490.000000,11870.000000,6979.000000,47558.000000
13444.000000,11892.000000,6852.000000,47575.000000
13470.000000,11858.000000,6934.000000,47565.000000
13452.000000,11844.000000,6917.000000,47542.000000
13403.000000,11841.000000,6891.000000,47547.000000
13421.000000,11812.000000,6870.000000,47485.000000
13395.000000,11807.000000,6893.000000,47509.000000
13383.000000,11825.000000,6857.000000,47486.000000
13399.000000,11752.000000,6806.000000,47513.000000
13388.000000,11811.000000,6826.000000,47497.000000
13379.000000,11803.000000,6816.000000,47496.000000
13392.000000,11824.000000,6801.000000,47520.000000
13414.000000,11773.000000,6763.000000,47525.000000
13382.000000,11813.000000,6791.000000,47471.000000
13331.000000,11759.000000,6762.000000,47446.000000
13374.000000,11757.000000,6764.000000,47490.000000
13378.000000,11772.000000,6757.000000,47476.000000
13369.000000,11744.000000,6742.000000,47434.000000
13354.000000,11783.000000,6705.000000,47413.000000
13329.000000,11733.000000,6709.000000,47441.000000
13337.000000,11763.000000,6732.000000,47417.000000
13298.000000,11745.000000,6667.000000,47482.000000
13299.000000,11752.000000,6704.000000,47413.000000
13205.000000,11650.000000,6628.000000,47398.000000
13237.000000,11693.000000,6652.000000,47358.000000
13247.000000,11681.000000,6667.000000,47399.000000
13220.000000,11719.000000,6623.000000,47381.000000
13252.000000,11752.000000,6644.000000,47365.000000
13215.000000,11679.000000,6590.000000,47353.000000
13207.000000,11656.000000,6596.000000,47335.000000
13181.000000,11616.000000,6557.000000,47328.000000
13185.000000,11636.000000,6535.000000,47294.000000
13162.000000,11617.000000,6515.000000,47323.000000
13170.000000,11570.000000,6505.000000,47314.000000
13121.000000,11597.000000,6448.000000,47270.000000
13139.000000,11554.000000,6474.000000,47266.000000
13083.000000,11561.000000,6470.000000,47201.000000
13119.000000,11579.000000,6467.000000,47259.000000
13138.000000,11561.000000,6381.000000,47251.000000
13170.000000,11536.000000,6444.000000,47262.000000
13123.000000,11553.000000,6402.000000,47297.000000
13135.000000,11554.000000,6427.000000,47247.000000
13109.000000,11579.000000,6408.000000,47406.000000
13093.000000,11573.000000,6405.000000,47266.000000
13094.000000,11548.000000,6395.000000,47259.000000
13076.000000,11506.000000,6381.000000,47204.000000
13039.000000,11535.000000,6355.000000,47191.000000
13033.000000,11484.000000,6392.000000,47210.000000
13035.000000,11498.000000,6310.000000,47178.000000
13031.000000,11509.000000,6319.000000,47202.000000
12932.000000,11471.000000,6278.000000,47188.000000
13014.000000,11460.000000,6280.000000,47122.000000
13020.000000,11441.000000,6280.000000,47158.000000
12943.000000,11467.000000,6305.000000,47113.000000
12949.000000,11464.000000,6260.000000,47145.000000
12994.000000,11467.000000,6263.000000,47168.000000
12954.000000,11453.000000,6262.000000,47195.000000
12930.000000,11425.000000,6213.000000,47138.000000
12947.000000,11439.000000,6211.000000,47129.000000
12922.000000,11425.000000,6218.000000,47162.000000
12966.000000,11434.000000,6218.000000,47145.000000
12936.000000,11414.000000,6204.000000,47153.000000
13000.000000,11388.000000,6185.000000,47150.000000
12910.000000,11386.000000,6205.000000,47139.000000
12883.000000,11429.000000,6226.000000,47141.000000
12895.000000,11394.000000,6178.000000,47108.000000
12858.000000,11439.000000,6140.000000,47161.000000
12873.000000,11373.000000,6155.000000,47104.000000
12853.000000,11354.000000,6172.000000,47089.000000
12918.000000,11414.000000,6163.000000,47089.000000
12940.000000,11429.000000,6158.000000,47064.000000
12911.000000,11369.000000,6140.000000,47078.000000
12887.000000,11404.000000,6111.000000,47031.000000
12880.000000,11379.000000,6121.000000,47075.000000
12858.000000,11351.000000,6125.000000,47147.000000
12831.000000,11346.000000,6103.000000,47061.000000
12846.000000,11360.000000,6137.000000,47089.000000
12822.000000,11327.000000,6015.000000,47059.000000
12813.000000,11356.000000,6108.000000,47073.000000
12797.000000,11336.000000,6053.000000,47003.000000
12840.000000,11351.000000,6086.000000,47000.000000
12809.000000,11208.000000,6100.000000,47040.000000
12798.000000,11299.000000,6046.000000,47027.000000
12760.000000,11342.000000,6057.000000,47045.000000
12785.000000,11296.000000,6032.000000,47005.000000
12753.000000,11259.000000,6029.000000,46969.000000
12739.000000,11315.000000,6019.000000,47004.000000
12716.000000,11248.000000,6036.000000,47006.000000
12735.000000,11281.000000,5980.000000,46985.000000
12713.000000,11233.000000,5984.000000,46988.000000
12656.000000,11231.000000,5932.000000,46952.000000
12643.000000,11194.000000,5939.000000,46970.000000
12669.000000,11200.000000,5928.000000,46976.000000
12611.000000,11208.000000,5877.000000,46929.000000
12617.000000,11176.000000,5877.000000,46965.000000
12616.000000,11204.000000,5858.000000,46908.000000
12576.000000,11177.000000,5822.000000,46906.000000
12579.000000,11159.000000,5815.000000,46862.000000
12582.000000,11147.000000,5748.000000,46834.000000
12577.000000,11150.000000,5761.000000,46870.000000
12535.000000,11132.000000,5759.000000,46883.000000
12526.000000,11125.000000,5760.000000,46866.000000
12574.000000,11084.000000,5727.000000,46826.000000
12509.000000,11143.000000,5707.000000,46858.000000
12529.000000,11073.000000,5730.000000,46814.000000
12518.000000,11105.000000,5699.000000,46832.000000
12530.000000,11076.000000,5695.000000,46830.000000
12487.000000,11126.000000,5686.000000,46811.000000
12489.000000,11071.000000,5642.000000,46818.000000
12487.000000,11077.000000,5653.000000,46815.000000
12472.000000,11049.000000,5658.000000,46802.000000
12385.000000,11043.000000,5659.000000,46796.000000
12452.000000,11052.000000,5610.000000,46800.000000
12450.000000,10985.000000,5639.000000,46799.000000
12423.000000,11055.000000,5592.000000,46759.000000
12451.000000,11031.000000,5665.000000,46756.000000
12422.000000,10996.000000,5630.000000,46752.000000
12441.000000,11023.000000,5570.000000,46760.000000
12423.000000,11024.000000,5584.000000,46740.000000
12401.000000,10997.000000,5569.000000,46744.000000
12385.000000,10994.000000,5575.000000,46718.000000
12405.000000,11005.000000,5572.000000,46752.000000
12409.000000,10975.000000,5563.000000,46762.000000
12434.000000,11011.000000,5546.000000,46773.000000
12453.000000,10960.000000,5536.000000,46750.000000
12366.000000,10930.000000,5548.000000,46717.000000
12331.000000,11025.000000,5568.000000,46728.000000
12358.000000,10943.000000,5518.000000,46709.000000
12353.000000,10933.000000,5461.000000,46708.000000
12328.000000,10917.000000,5486.000000,46669.000000
12316.000000,10934.000000,5415.000000,46683.000000
12297.000000,10921.000000,5492.000000,46681.000000
12271.000000,10932.000000,5479.000000,46652.000000
12281.000000,10929.000000,5438.000000,46658.000000
12297.000000,10902.000000,5448.000000,46645.000000
12211.000000,10802.000000,5429.000000,46616.000000
12231.000000,10887.000000,5402.000000,46630.000000
12248.000000,10897.000000,5393.000000,46635.000000
12268.000000,10862.000000,5400.000000,46653.000000
12219.000000,10904.000000,5446.000000,46653.000000
12207.000000,10876.000000,5399.000000,46663.000000
12195.000000,10920.000000,5340.000000,46593.000000
12219.000000,10846.000000,5372.000000,46599.000000
12223.000000,10907.000000,5375.000000,46650.000000
12203.000000,10901.000000,5400.000000,46669.000000
12213.000000,10893.000000,5427.000000,46658.000000
12207.000000,10884.000000,5411.000000,46639.000000
12227.000000,10900.000000,5427.000000,46628.000000
12250.000000,10880.000000,5459.000000,46636.000000
12242.000000,10927.000000,5446.000000,46660.000000
12388.000000,10972.000000,5417.000000,46670.000000
12255.000000,10932.000000,5527.000000,46677.000000
12292.000000,10946.000000,5492.000000,46773.000000
12283.000000,10964.000000,5507.000000,46686.000000
12270.000000,10938.000000,5567.000000,46721.000000
12353.000000,11000.000000,5570.000000,46744.000000
12377.000000,11015.000000,5612.000000,46733.000000
12340.000000,11022.000000,5584.000000,46767.000000
12381.000000,11063.000000,5618.000000,46757.000000
12413.000000,11011.000000,5635.000000,46766.000000
12395.000000,11053.000000,5669.000000,46799.000000
12435.000000,11076.000000,5673.000000,46844.000000
12443.000000,11060.000000,5726.000000,46821.000000
12481.000000,11066.000000,5748.000000,46826.000000
12522.000000,11164.000000,5799.000000,46860.000000
12493.000000,11126.000000,5785.000000,46919.000000
12559.000000,11132.000000,5787.000000,46922.000000
12658.000000,11183.000000,5887.000000,46924.000000
12609.000000,11204.000000,5933.000000,46951.000000
12642.000000,11191.000000,6028.000000,46969.000000
12659.000000,11259.000000,6008.000000,46970.000000
12733.000000,11300.000000,6011.000000,47016.000000
12761.000000,11281.000000,6074.000000,47035.000000
12787.000000,11328.000000,6154.000000,47098.000000
12845.000000,11378.000000,6191.000000,47107.000000
12909.000000,11416.000000,6260.000000,47130.000000
12959.000000,11469.000000,6301.000000,47208.000000
13018.000000,11485.000000,6352.000000,47205.000000
13097.000000,11541.000000,6492.000000,47286.000000
13107.000000,11592.000000,6481.000000,47275.000000
13152.000000,11726.000000,6580.000000,47352.000000
13211.000000,11641.000000,6712.000000,47394.000000
13243.000000,11715.000000,6742.000000,47379.000000
13286.000000,11740.000000,6734.000000,47440.000000
13357.000000,11777.000000,6781.000000,47501.000000
13357.000000,11847.000000,6857.000000,47496.000000
13398.000000,11827.000000,6824.000000,47535.000000
13420.000000,11823.000000,6901.000000,47531.000000
13495.000000,11880.000000,6925.000000,47561.000000
13486.000000,11884.000000,6984.000000,47582.000000
13528.000000,11898.000000,6973.000000,47560.000000
13520.000000,11956.000000,7040.000000,47600.000000
13518.000000,11882.000000,6976.000000,47563.000000
13468.000000,11897.000000,6962.000000,47592.000000
13523.000000,11892.000000,6941.000000,47583.000000
13523.000000,11884.000000,6999.000000,47541.000000
13483.000000,11870.000000,6940.000000,47557.000000
13458.000000,11923.000000,6870.000000,47558.000000
13471.000000,11831.000000,6912.000000,47552.000000
13505.000000,11838.000000,6947.000000,47539.000000
13435.000000,11856.000000,6941.000000,47566.000000
13433.000000,11883.000000,6904.000000,47549.000000
13458.000000,11842.000000,6910.000000,47546.000000
13469.000000,11863.000000,6894.000000,47489.000000
13417.000000,11794.000000,6902.000000,47499.000000
13402.000000,11832.000000,6863.000000,47509.000000
13351.000000,11852.000000,6935.000000,47547.000000
13395.000000,11831.000000,6846.000000,47513.000000
13361.000000,11841.000000,6812.000000,47530.000000
13343.000000,11783.000000,6817.000000,47491.000000
13335.000000,11827.000000,6907.000000,47523.000000
13364.000000,11775.000000,6824.000000,47492.000000
13374.000000,11815.000000,6793.000000,47439.000000
13330.000000,11801.000000,6792.000000,47455.000000
13350.000000,11755.000000,6809.000000,47491.000000
13352.000000,11779.000000,6815.000000,47480.000000
13366.000000,11786.000000,6753.000000,47484.000000
13369.000000,11802.000000,6790.000000,47469.000000
13327.000000,11780.000000,6768.000000,47432.000000
13336.000000,11804.000000,6744.000000,47456.000000
13327.000000,11777.000000,6753.000000,47490.000000
13297.000000,11757.000000,6776.000000,47447.000000
13285.000000,11757.000000,6747.000000,47430.000000
13271.000000,11729.000000,6750.000000,47441.000000
13290.000000,11724.000000,6721.000000,47365.000000
13198.000000,11753.000000,6799.000000,47378.000000
13284.000000,11727.000000,6719.000000,47431.000000
13219.000000,11699.000000,6671.000000,47368.000000
13259.000000,11705.000000,6708.000000,47382.000000
13228.000000,11717.000000,6638.000000,47381.000000
13190.000000,11699.000000,6631.000000,47394.000000
13179.000000,11681.000000,6626.000000,47377.000000
13146.000000,11680.000000,6659.000000,47357.000000
13206.000000,11670.000000,6619.000000,47356.000000
13174.000000,11673.000000,6592.000000,47320.000000
13169.000000,11651.000000,6586.000000,47369.000000
13141.000000,11657.000000,6528.000000,47333.000000
13106.000000,11621.000000,6592.000000,47285.000000
13202.000000,11601.000000,6539.000000,47334.000000
13116.000000,11577.000000,6500.000000,47280.000000
13063.000000,11543.000000,6515.000000,47298.000000
13097.000000,11603.000000,6483.000000,47278.000000
13090.000000,11553.000000,6506.000000,47312.000000
13096.000000,11604.000000,6514.000000,47316.000000
13059.000000,11551.000000,6458.000000,47282.000000
13069.000000,11574.000000,6480.000000,47296.000000
13043.000000,11567.000000,6440.000000,47264.000000
12976.000000,11637.000000,6460.000000,47208.000000
13012.000000,11555.000000,6444.000000,47265.000000
13013.000000,11515.000000,6369.000000,47184.000000
13020.000000,11525.000000,6371.000000,47196.000000
13038.000000,11454.000000,6343.000000,47143.000000
12995.000000,11471.000000,6382.000000,47199.000000
13003.000000,11539.000000,6314.000000,47197.000000
12949.000000,11494.000000,6324.000000,47180.000000
12953.000000,11461.000000,6342.000000,47183.000000
12925.000000,11453.000000,6292.000000,47139.000000
12958.000000,11462.000000,6276.000000,47142.000000
12938.000000,11469.000000,6251.000000,47101.000000
12891.000000,11470.000000,6252.000000,47163.000000
12818.000000,11519.000000,6257.000000,47111.000000
12916.000000,11454.000000,6255.000000,47135.000000
12897.000000,11471.000000,6228.000000,47109.000000
12883.000000,11409.000000,6221.000000,47096.000000
12859.000000,11384.000000,6216.000000,47086.000000
12856.000000,11397.000000,6191.000000,47076.000000
12907.000000,11384.000000,6161.000000,47092.000000
13099.000000,11406.000000,6179.000000,47127.000000
12858.000000,11359.000000,6166.000000,47074.000000
12837.000000,11363.000000,6142.000000,47063.000000
12874.000000,11372.000000,6129.000000,47083.000000
12806.000000,11400.000000,6190.000000,47066.000000
12859.000000,11373.000000,6136.000000,47069.000000
12815.000000,11349.000000,6147.000000,47056.000000
12827.000000,11376.000000,6161.000000,47083.000000
12801.000000,11346.000000,6120.000000,47066.000000
12855.000000,11354.000000,6101.000000,47055.000000
12770.000000,11342.000000,6053.000000,47058.000000
12771.000000,11344.000000,6081.000000,47068.000000
12778.000000,11287.000000,6053.000000,47020.000000
12783.000000,11330.000000,6090.000000,46995.000000
12716.000000,11302.000000,5961.000000,47061.000000
12737.000000,11274.000000,6089.000000,46998.000000
12723.000000,11288.000000,6064.000000,46998.000000
12701.000000,11298.000000,6052.000000,47005.000000
12704.000000,11261.000000,6050.000000,46960.000000
12692.000000,11250.000000,6040.000000,46992.000000
12679.000000,11280.000000,5978.000000,47008.000000
12690.000000,11217.000000,6011.000000,46964.000000
12675.000000,11253.000000,5962.000000,46949.000000
12696.000000,11290.000000,5996.000000,46939.000000
12642.000000,11255.000000,5991.000000,46945.000000
12724.000000,11247.000000,5900.000000,46967.000000
12652.000000,11243.000000,5943.000000,46975.000000
12600.000000,11239.000000,5914.000000,46968.000000
12643.000000,11209.000000,5928.000000,46927.000000
12688.000000,11275.000000,5895.000000,46991.000000
12604.000000,11209.000000,5900.000000,46909.000000
12634.000000,11225.000000,5936.000000,46916.000000
12682.000000,11227.000000,5922.000000,46907.000000
12576.000000,11203.000000,5919.000000,46936.000000
12642.000000,11169.000000,5902.000000,46889.000000
12619.000000,11183.000000,5868.000000,46896.000000
12653.000000,11113.000000,5861.000000,46908.000000
12565.000000,11153.000000,5837.000000,46856.000000
12573.000000,11144.000000,5761.000000,46936.000000
12559.000000,11183.000000,5833.000000,46860.000000
12554.000000,11089.000000,5823.000000,46851.000000
12498.000000,11161.000000,5802.000000,46878.000000
12529.000000,11127.000000,5813.000000,46783.000000
12514.000000,11151.000000,5825.000000,46846.000000
12510.000000,11133.000000,5812.000000,46849.000000
12473.000000,11127.000000,5792.000000,46823.000000
12511.000000,11137.000000,5811.000000,46838.000000
12462.000000,11097.000000,5771.000000,46837.000000
12451.000000,11129.000000,5755.000000,46840.000000
12458.000000,11097.000000,5753.000000,46839.000000
12457.000000,11140.000000,5801.000000,46826.000000
12437.000000,11177.000000,5741.000000,46748.000000
12446.000000,11097.000000,5754.000000,46789.000000
12456.000000,11131.000000,5731.000000,46901.000000
12421.000000,11039.000000,5747.000000,46808.000000
12421.000000,11055.000000,5773.000000,46811.000000
12403.000000,11059.000000,5702.000000,46784.000000
12408.000000,11004.000000,5689.000000,46865.000000
12427.000000,11089.000000,5734.000000,46755.000000
12403.000000,11075.000000,5669.000000,46811.000000
12370.000000,11061.000000,5664.000000,46801.000000
12386.000000,11103.000000,5683.000000,46774.000000
12411.000000,11061.000000,5671.000000,46763.000000
12390.000000,11042.000000,5715.000000,46751.000000
12406.000000,11078.000000,5696.000000,46714.000000
12350.000000,11056.000000,5686.000000,46770.000000
12394.000000,11059.000000,5666.000000,46659.000000
12372.000000,11041.000000,5667.000000,46725.000000
12351.000000,10972.000000,5655.000000,46786.000000
12334.000000,11004.000000,5636.000000,46773.000000
12323.000000,11032.000000,5614.000000,46737.000000
12298.000000,10984.000000,5641.000000,46720.000000
12297.000000,10979.000000,5601.000000,46751.000000
12246.000000,10993.000000,5552.000000,46735.000000
12296.000000,10972.000000,5542.000000,46671.000000
12264.000000,10957.000000,5556.000000,46711.000000
12255.000000,10959.000000,5535.000000,46729.000000
12247.000000,10907.000000,5492.000000,46667.000000
12186.000000,10896.000000,5483.000000,46661.000000
12173.000000,10836.000000,5458.000000,46655.000000
12180.000000,10900.000000,5462.000000,46607.000000
12115.000000,10903.000000,5454.000000,46690.000000
12159.000000,10863.000000,5423.000000,46660.000000
12127.000000,10901.000000,5362.000000,46605.000000
12113.000000,10890.000000,5410.000000,46631.000000
12113.000000,10841.000000,5380.000000,46616.000000
12128.000000,10852.000000,5410.000000,46568.000000
12139.000000,10889.000000,5399.000000,46586.000000
12143.000000,10867.000000,5401.000000,46626.000000
12124.000000,10854.000000,5418.000000,46616.000000
12121.000000,10886.000000,5423.000000,46638.000000
12140.000000,10873.000000,5421.000000,46652.000000
12214.000000,10888.000000,5420.000000,46612.000000
12141.000000,10894.000000,5438.000000,46627.000000
12171.000000,10915.000000,5395.000000,46601.000000
12168.000000,10880.000000,5456.000000,46678.000000
12175.000000,10906.000000,5514.000000,46657.000000
12185.000000,10944.000000,5487.000000,46669.000000
12178.000000,10997.000000,5509.000000,46664.000000
12217.000000,10910.000000,5507.000000,46647.000000
12215.000000,10957.000000,5508.000000,46726.000000
12256.000000,10961.000000,5540.000000,46708.000000
12295.000000,10961.000000,5551.000000,46696.000000
12316.000000,11016.000000,5583.000000,46731.000000
12286.000000,10983.000000,5611.000000,46738.000000
12382.000000,11037.000000,5634.000000,46758.000000
12356.000000,11067.000000,5646.000000,46769.000000
12387.000000,11057.000000,5664.000000,46790.000000
12397.000000,11071.000000,5725.000000,46863.000000
12466.000000,11094.000000,5752.000000,46773.000000
12418.000000,11122.000000,5773.000000,46819.000000
12462.000000,11176.000000,5802.000000,46862.000000
12498.000000,11133.000000,5805.000000,46872.000000
12501.000000,11153.000000,5878.000000,46830.000000
12551.000000,11221.000000,5902.000000,46910.000000
12607.000000,11247.000000,5957.000000,46960.000000
12601.000000,11259.000000,6002.000000,46956.000000
12683.000000,11309.000000,6053.000000,47017.000000
12746.000000,11367.000000,6103.000000,47025.000000
12798.000000,11365.000000,6137.000000,47110.000000
12793.000000,11386.000000,6244.000000,47128.000000
12889.000000,11434.000000,6252.000000,47159.000000
12936.000000,11475.000000,6344.000000,47197.000000
12995.000000,11547.000000,6423.000000,47222.000000
13032.000000,11565.000000,6486.000000,47224.000000
13135.000000,11621.000000,6518.000000,47300.000000
13163.000000,11705.000000,6608.000000,47328.000000
13188.000000,11682.000000,6694.000000,47438.000000
13345.000000,11733.000000,6751.000000,47473.000000
13348.000000,11764.000000,6829.000000,47493.000000
13364.000000,11824.000000,6873.000000,47549.000000
13415.000000,11848.000000,6905.000000,47539.000000
13445.000000,11870.000000,6991.000000,47557.000000
13474.000000,11908.000000,6976.000000,47627.000000
13484.000000,11923.000000,6979.000000,47601.000000
13508.000000,11894.000000,7012.000000,47523.000000
13492.000000,11934.000000,7008.000000,47581.000000
13470.000000,11902.000000,7053.000000,47616.000000
13498.000000,11948.000000,7028.000000,47611.000000
13483.000000,11946.000000,7030.000000,47627.000000
13525.000000,11986.000000,7047.000000,47630.000000
13502.000000,11933.000000,7082.000000,47571.000000
13474.000000,11955.000000,7079.000000,47601.000000
13467.000000,11930.000000,7017.000000,47648.000000
13464.000000,11916.000000,7023.000000,47576.000000
13452.000000,11903.000000,6978.000000,47615.000000
13437.000000,11905.000000,7009.000000,47561.000000
13438.000000,11914.000000,7004.000000,47569.000000
13413.000000,11908.000000,6989.000000,47581.000000
13405.000000,12104.000000,6961.000000,47566.000000
13421.000000,11844.000000,6912.000000,47524.000000
13425.000000,11894.000000,6957.000000,47562.000000
13460.000000,11896.000000,6904.000000,47567.000000
13426.000000,11885.000000,6940.000000,47578.000000
13507.000000,11876.000000,6976.000000,47573.000000
13399.000000,11908.000000,6957.000000,47558.000000
13439.000000,11903.000000,6954.000000,47489.000000
13433.000000,11883.000000,6941.000000,47543.000000
13391.000000,11884.000000,6952.000000,47543.000000
13395.000000,11880.000000,6947.000000,47544.000000
13356.000000,11883.000000,6918.000000,47564.000000
13402.000000,11838.000000,6931.000000,47522.000000
13405.000000,11855.000000,6924.000000,47533.000000
13396.000000,11860.000000,6952.000000,47509.000000
13393.000000,11856.000000,6930.000000,47520.000000
13371.000000,11801.000000,6914.000000,47478.000000
13358.000000,11836.000000,6917.000000,47540.000000
13406.000000,11858.000000,6916.000000,47572.000000
13386.000000,11835.000000,6898.000000,47541.000000
13327.000000,11860.000000,6919.000000,47595.000000
13353.000000,11870.000000,6907.000000,47524.000000
13355.000000,11873.000000,6895.000000,47439.000000
13371.000000,11876.000000,6916.000000,47522.000000
13315.000000,11837.000000,6921.000000,47508.000000
13331.000000,11825.000000,6900.000000,47488.000000
13305.000000,11829.000000,6862.000000,47485.000000
13366.000000,11801.000000,6857.000000,47501.000000
13311.000000,11751.000000,6827.000000,47493.000000
13318.000000,11832.000000,6901.000000,47483.000000
13308.000000,11776.000000,6848.000000,47447.000000
13274.000000,11793.000000,6826.000000,47526.000000
13294.000000,11791.000000,6821.000000,47463.000000
13237.000000,11819.000000,6845.000000,47508.000000
13292.000000,11752.000000,6792.000000,47377.000000
13215.000000,11751.000000,6771.000000,47451.000000
13263.000000,11785.000000,6806.000000,47423.000000
13235.000000,11778.000000,6812.000000,47429.000000
13251.000000,11752.000000,6756.000000,47403.000000
13207.000000,11750.000000,6824.000000,47456.000000
13132.000000,11755.000000,6793.000000,47432.000000
13201.000000,11732.000000,6752.000000,47406.000000
13129.000000,11656.000000,6748.000000,47412.000000
13160.000000,11712.000000,6737.000000,47450.000000
13127.000000,11700.000000,6718.000000,47378.000000
13176.000000,11706.000000,6760.000000,47406.000000
13145.000000,11698.000000,6741.000000,47432.000000
13208.000000,11682.000000,6651.000000,47403.000000
13185.000000,11650.000000,6663.000000,47300.000000
13146.000000,11687.000000,6688.000000,47367.000000
13146.000000,11641.000000,6629.000000,47343.000000
13162.000000,11665.000000,6678.000000,47383.000000
13165.000000,11704.000000,6665.000000,47402.000000
13122.000000,11696.000000,6657.000000,47379.000000
13146.000000,11686.000000,6638.000000,47368.000000
13144.000000,11679.000000,6636.000000,47402.000000
13144.000000,11649.000000,6639.000000,47311.000000
13098.000000,11662.000000,6615.000000,47346.000000
13107.000000,11623.000000,6609.000000,47300.000000
13101.000000,11589.000000,6647.000000,47367.000000
13088.000000,11652.000000,6648.000000,47297.000000
13120.000000,11649.000000,6595.000000,47314.000000
13089.000000,11599.000000,6595.000000,47344.000000
13076.000000,11599.000000,6595.000000,47287.000000
13017.000000,11599.000000,6567.000000,47290.000000
13013.000000,11587.000000,6594.000000,47311.000000
13022.000000,11596.000000,6564.000000,47299.000000
12999.000000,11611.000000,6571.000000,47291.000000
13025.000000,11555.000000,6569.000000,47283.000000
12963.000000,11585.000000,6495.000000,47288.000000
13022.000000,11551.000000,6461.000000,47292.000000
12980.000000,11573.000000,6473.000000,47241.000000
12953.000000,11535.000000,6495.000000,47288.000000
12982.000000,11566.000000,6499.000000,47248.000000
12970.000000,11557.000000,6513.000000,47286.000000
12984.000000,11531.000000,6488.000000,47244.000000
12904.000000,11591.000000,6443.000000,47278.000000
12970.000000,11519.000000,6436.000000,47261.000000
12923.000000,11572.000000,6426.000000,47210.000000
12925.000000,11557.000000,6449.000000,47208.000000
12954.000000,11532.000000,6457.000000,47192.000000
12921.000000,11527.000000,6446.000000,47191.000000
12925.000000,11514.000000,6431.000000,47185.000000
12865.000000,11460.000000,6402.000000,47224.000000
12851.000000,11457.000000,6392.000000,47177.000000
12891.000000,11484.000000,6373.000000,47141.000000
12817.000000,11485.000000,6396.000000,47178.000000
12884.000000,11405.000000,6405.000000,47181.000000
12845.000000,11502.000000,6361.000000,47166.000000
12902.000000,11437.000000,6355.000000,47215.000000
12801.000000,11415.000000,6354.000000,47169.000000
12771.000000,11459.000000,6261.000000,47112.000000
12772.000000,11400.000000,6264.000000,47097.000000
12751.000000,11383.000000,6255.000000,47103.000000
12747.000000,11415.000000,6240.000000,47106.000000
12758.000000,11393.000000,6204.000000,47136.000000
12727.000000,11363.000000,6213.000000,47086.000000
12707.000000,11338.000000,6221.000000,47030.000000
12764.000000,11323.000000,6204.000000,47035.000000
12704.000000,11326.000000,6149.000000,47029.000000
12707.000000,11354.000000,6153.000000,47079.000000
12674.000000,11343.000000,6185.000000,47034.000000
12650.000000,11284.000000,6180.000000,47060.000000
12691.000000,11311.000000,6152.000000,47041.000000
12669.000000,11304.000000,6129.000000,47051.000000
12630.000000,11309.000000,6140.000000,47009.000000
12638.000000,11291.000000,6126.000000,47012.000000
12650.000000,11303.000000,6104.000000,47012.000000
12633.000000,11326.000000,6092.000000,47012.000000
12645.000000,11317.000000,6075.000000,47016.000000
12584.000000,11269.000000,6079.000000,47087.000000
12536.000000,11266.000000,6048.000000,46970.000000
12577.000000,11242.000000,6027.000000,46931.000000
12571.000000,11224.000000,6082.000000,46907.000000
12533.000000,11193.000000,5975.000000,46925.000000
12541.000000,11267.000000,6007.000000,46886.000000
12521.000000,11167.000000,5990.000000,46947.000000
12495.000000,11153.000000,5938.000000,46927.000000
12490.000000,11137.000000,5913.000000,46928.000000
12496.000000,11188.000000,5969.000000,46880.000000
12482.000000,11206.000000,5921.000000,46922.000000
12494.000000,11167.000000,5901.000000,46841.000000
12477.000000,11189.000000,5899.000000,46906.000000
12471.000000,11208.000000,5886.000000,46898.000000
12425.000000,11121.000000,5895.000000,46879.000000
12452.000000,11171.000000,5866.000000,46882.000000
12459.000000,11151.000000,5836.000000,46887.000000
12430.000000,11135.000000,5855.000000,46823.000000
12418.000000,11111.000000,5879.000000,46862.000000
12402.000000,11146.000000,5803.000000,46832.000000
12447.000000,11122.000000,5850.000000,46901.000000
12379.000000,11064.000000,5770.000000,46832.000000
12348.000000,11071.000000,5745.000000,46788.000000
12356.000000,11092.000000,5743.000000,46819.000000
12289.000000,11108.000000,5712.000000,46762.000000
12295.000000,11044.000000,5707.000000,46787.000000
12304.000000,11028.000000,5689.000000,46778.000000
12268.000000,10969.000000,5656.000000,46750.000000
12252.000000,10963.000000,5663.000000,46730.000000
12234.000000,11015.000000,5616.000000,46743.000000
12205.000000,10959.000000,5610.000000,46724.000000
12199.000000,10958.000000,5696.000000,46662.000000
12219.000000,10956.000000,5610.000000,46693.000000
12232.000000,10981.000000,5640.000000,46691.000000
12187.000000,10959.000000,5590.000000,46736.000000
12144.000000,11003.000000,5618.000000,46646.000000
12235.000000,10965.000000,5595.000000,46716.000000
12213.000000,10947.000000,5571.000000,46666.000000
12210.000000,10971.000000,5578.000000,46744.000000
12239.000000,10970.000000,5624.000000,46739.000000
12222.000000,10989.000000,5603.000000,46732.000000
12243.000000,11002.000000,5631.000000,46753.000000
12258.000000,10988.000000,5652.000000,46757.000000
12279.000000,11044.000000,5680.000000,46757.000000
12269.000000,11017.000000,5694.000000,46796.000000
12302.000000,11035.000000,5690.000000,46745.000000
12269.000000,11011.000000,5733.000000,46791.000000
12335.000000,11075.000000,5719.000000,46800.000000
12305.000000,11085.000000,5765.000000,46850.000000
12384.000000,11082.000000,5715.000000,46807.000000
12281.000000,11052.000000,5811.000000,46880.000000
12350.000000,11113.000000,5822.000000,46836.000000
12418.000000,11152.000000,5835.000000,46839.000000
12377.000000,11123.000000,5843.000000,46856.000000
12450.000000,11135.000000,5857.000000,46831.000000
12453.000000,11174.000000,5905.000000,46906.000000
12475.000000,11186.000000,5941.000000,46923.000000
12478.000000,11192.000000,5928.000000,46944.000000
12528.000000,11226.000000,6017.000000,46942.000000
12501.000000,11251.000000,6044.000000,46978.000000
12604.000000,11257.000000,6054.000000,46982.000000
12602.000000,11336.000000,6036.000000,47032.000000
12628.000000,11355.000000,6094.000000,47056.000000
12659.000000,11351.000000,6171.000000,47098.000000
12697.000000,11362.000000,6267.000000,47057.000000
12721.000000,11420.000000,6284.000000,47134.000000
12797.000000,11420.000000,6341.000000,47169.000000
12827.000000,11462.000000,6384.000000,47175.000000
12855.000000,11483.000000,6429.000000,47226.000000
12876.000000,11549.000000,6519.000000,47269.000000
12887.000000,11547.000000,6553.000000,47301.000000
12979.000000,11575.000000,6628.000000,47303.000000
13011.000000,11655.000000,6638.000000,47425.000000
13095.000000,11695.000000,6772.000000,47395.000000
13124.000000,11691.000000,6817.000000,47447.000000
13195.000000,11761.000000,6887.000000,47504.000000
13287.000000,11850.000000,6911.000000,47545.000000
13301.000000,11874.000000,7032.000000,47563.000000
13356.000000,11889.000000,7072.000000,47613.000000
13379.000000,11896.000000,7106.000000,47605.000000
13457.000000,11993.000000,7139.000000,47678.000000
13468.000000,11957.000000,7177.000000,47660.000000
13498.000000,12027.000000,7217.000000,47663.000000
13513.000000,11983.000000,7221.000000,47692.000000
13581.000000,12029.000000,7238.000000,47716.000000
13596.000000,12053.000000,7263.000000,47733.000000
13548.000000,12025.000000,7287.000000,47705.000000
13519.000000,12055.000000,7284.000000,47684.000000
13516.000000,12011.000000,7270.000000,47733.000000
13565.000000,12041.000000,7264.000000,47672.000000
13492.000000,11995.000000,7254.000000,47697.000000
13502.000000,12093.000000,7229.000000,47635.000000
13481.000000,12018.000000,7240.000000,47666.000000
13446.000000,12025.000000,7246.000000,47648.000000
13470.000000,11974.000000,7193.000000,47698.000000
13441.000000,11972.000000,7183.000000,47668.000000
13434.000000,11991.000000,7193.000000,47691.000000
13396.000000,11995.000000,7189.000000,47683.000000
13399.000000,11974.000000,7207.000000,47652.000000
13430.000000,11994.000000,7135.000000,47623.000000
13371.000000,11913.000000,7124.000000,47663.000000
13420.000000,11947.000000,7142.000000,47615.000000
13365.000000,11943.000000,7117.000000,47610.000000
13401.000000,11941.000000,7129.000000,47588.000000
13429.000000,11950.000000,7106.000000,47641.000000
13385.000000,11931.000000,7103.000000,47639.000000
13394.000000,11943.000000,7177.000000,47593.000000
13379.000000,11935.000000,7096.000000,47598.000000
13324.000000,11934.000000,7088.000000,47551.000000
13361.000000,11924.000000,7079.000000,47608.000000
13329.000000,11882.000000,7075.000000,47589.000000
13347.000000,11882.000000,7061.000000,47589.000000
13350.000000,11868.000000,7036.000000,47540.000000
13333.000000,11905.000000,6979.000000,47551.000000
13293.000000,11912.000000,7012.000000,47529.000000
13278.000000,11808.000000,7039.000000,47555.000000
13282.000000,11858.000000,6990.000000,47548.000000
13281.000000,11849.000000,7003.000000,47557.000000
13277.000000,11846.000000,6949.000000,47506.000000
13257.000000,11844.000000,6953.000000,47444.000000
13241.000000,11810.000000,6960.000000,47510.000000
13211.000000,11788.000000,6933.000000,47467.000000
13230.000000,11803.000000,6884.000000,47479.000000
13261.000000,11781.000000,6902.000000,47504.000000
13202.000000,11799.000000,6864.000000,47458.000000
13222.000000,11789.000000,6846.000000,47435.000000
13139.000000,11786.000000,6875.000000,47427.000000
13187.000000,11762.000000,6867.000000,47451.000000
13175.000000,11772.000000,6882.000000,47428.000000
13154.000000,11789.000000,6805.000000,47452.000000
13183.000000,11751.000000,6759.000000,47456.000000
13173.000000,11770.000000,6832.000000,47421.000000
13178.000000,11783.000000,6764.000000,47416.000000
13178.000000,11739.000000,6768.000000,47456.000000
13165.000000,11698.000000,6743.000000,47388.000000
13123.000000,11684.000000,6751.000000,47400.000000
13099.000000,11764.000000,6686.000000,47340.000000
13093.000000,11672.000000,6725.000000,47394.000000
13104.000000,11673.000000,6724.000000,47365.000000
13054.000000,11670.000000,6683.000000,47404.000000
13038.000000,11677.000000,6688.000000,47360.000000
13082.000000,11595.000000,6673.000000,47339.000000
13032.000000,11641.000000,6679.000000,47339.000000
12980.000000,11625.000000,6684.000000,47295.000000
12981.000000,11636.000000,6584.000000,47314.000000
12968.000000,11651.000000,6577.000000,47313.000000
12970.000000,11621.000000,6595.000000,47297.000000
12920.000000,11630.000000,6565.000000,47286.000000
12968.000000,11551.000000,6520.000000,47294.000000
12958.000000,11522.000000,6545.000000,47260.000000
12929.000000,11556.000000,6495.000000,47264.000000
12979.000000,11560.000000,6527.000000,47243.000000
12952.000000,11539.000000,6487.000000,47275.000000
12918.000000,11544.000000,6507.000000,47257.000000
12945.000000,11543.000000,6480.000000,47250.000000
12995.000000,11569.000000,6522.000000,47238.000000
12934.000000,11551.000000,6448.000000,47200.000000
12887.000000,11504.000000,6504.000000,47241.000000
12881.000000,11537.000000,6476.000000,47192.000000
12900.000000,11528.000000,6446.000000,47226.000000
12878.000000,11514.000000,6384.000000,47161.000000
12861.000000,11493.000000,6432.000000,47203.000000
12890.000000,11510.000000,6406.000000,47210.000000
12811.000000,11431.000000,6398.000000,47175.000000
12796.000000,11497.000000,6362.000000,47091.000000
12803.000000,11463.000000,6349.000000,47155.000000
12791.000000,11424.000000,6349.000000,47194.000000
12778.000000,11420.000000,6308.000000,47161.000000
12748.000000,11411.000000,6317.000000,47109.000000
12716.000000,11361.000000,6357.000000,47089.000000
12730.000000,11418.000000,6284.000000,47131.000000
12740.000000,11432.000000,6263.000000,47133.000000
12737.000000,11380.000000,6233.000000,47104.000000
12700.000000,11356.000000,6252.000000,47097.000000
12699.000000,11396.000000,6221.000000,47092.000000
12662.000000,11371.000000,6220.000000,47078.000000
12704.000000,11356.000000,6230.000000,47072.000000
12749.000000,11311.000000,6262.000000,47077.000000
12680.000000,11375.000000,6182.000000,47089.000000
12657.000000,11342.000000,6193.000000,47050.000000
12687.000000,11320.000000,6165.000000,47046.000000
12711.000000,11319.000000,6152.000000,46998.000000
12678.000000,11321.000000,6143.000000,47077.000000
12638.000000,11305.000000,6114.000000,47040.000000
12671.000000,11321.000000,6124.000000,46955.000000
12674.000000,11305.000000,6122.000000,47015.000000
12620.000000,11352.000000,6229.000000,47009.000000
12655.000000,11275.000000,6083.000000,46981.000000
12682.000000,11295.000000,6145.000000,46933.000000
12592.000000,11326.000000,6035.000000,46997.000000
12634.000000,11258.000000,6095.000000,47050.000000
12594.000000,11228.000000,6067.000000,46989.000000
12626.000000,11302.000000,6070.000000,46976.000000
12585.000000,11275.000000,6066.000000,46946.000000
12539.000000,11232.000000,6026.000000,46945.000000
12533.000000,11239.000000,6003.000000,46976.000000
12551.000000,11256.000000,6048.000000,46934.000000
12497.000000,11245.000000,6014.000000,46911.000000
12522.000000,11203.000000,6004.000000,46935.000000
12487.000000,11189.000000,5975.000000,46950.000000
12472.000000,11260.000000,6000.000000,46948.000000
12514.000000,11195.000000,5975.000000,46890.000000
12517.000000,11216.000000,5968.000000,46892.000000
12486.000000,11144.000000,5908.000000,46902.000000
12430.000000,11188.000000,5947.000000,46876.000000
12409.000000,11193.000000,5866.000000,46903.000000
12456.000000,11145.000000,5893.000000,46873.000000
12420.000000,11136.000000,5897.000000,46889.000000
12450.000000,11139.000000,5878.000000,46872.000000
12415.000000,11180.000000,5851.000000,46881.000000
12466.000000,11154.000000,5888.000000,46875.000000
12410.000000,11127.000000,5884.000000,46823.000000
12424.000000,11119.000000,5795.000000,46759.000000
12391.000000,11108.000000,5815.000000,46853.000000
12440.000000,11128.000000,5920.000000,46878.000000
12378.000000,11128.000000,5817.000000,46864.000000
12368.000000,11125.000000,5826.000000,46814.000000
12321.000000,11076.000000,5760.000000,46821.000000
12249.000000,11143.000000,5783.000000,46825.000000
12334.000000,11075.000000,5787.000000,46790.000000
12390.000000,11050.000000,5758.000000,46761.000000
12308.000000,11065.000000,5741.000000,46794.000000
12282.000000,11036.000000,5681.000000,46777.000000
12262.000000,11005.000000,5694.000000,46764.000000
12261.000000,11027.000000,5706.000000,46745.000000
12284.000000,11020.000000,5680.000000,46740.000000
12268.000000,11024.000000,5666.000000,46759.000000
12203.000000,11000.000000,5668.000000,46803.000000
12220.000000,10992.000000,5661.000000,46715.000000
12262.000000,11028.000000,5591.000000,46752.000000
12227.000000,10980.000000,5633.000000,46735.000000
12233.000000,11015.000000,5611.000000,46758.000000
12185.000000,10976.000000,5646.000000,46726.000000
12161.000000,10988.000000,5658.000000,46753.000000
12135.000000,10980.000000,5641.000000,46734.000000
12202.000000,11021.000000,5633.000000,46711.000000
12240.000000,10989.000000,5610.000000,46701.000000
12178.000000,10968.000000,5597.000000,46718.000000
12203.000000,10971.000000,5606.000000,46682.000000
12196.000000,10978.000000,5618.000000,46735.000000
12231.000000,11010.000000,5647.000000,46760.000000
12222.000000,11037.000000,5659.000000,46751.000000
12154.000000,11027.000000,5698.000000,46755.000000
12256.000000,11006.000000,5695.000000,46743.000000
12250.000000,11040.000000,5746.000000,46776.000000
12251.000000,11015.000000,5728.000000,46783.000000
12221.000000,11040.000000,5724.000000,46791.000000
12297.000000,11023.000000,5749.000000,46824.000000
12291.000000,11031.000000,5797.000000,46750.000000
12295.000000,11097.000000,5764.000000,46826.000000
12352.000000,11112.000000,5830.000000,46837.000000
12360.000000,11127.000000,5858.000000,46879.000000
12356.000000,11136.000000,5879.000000,46864.000000
12412.000000,11159.000000,5917.000000,46864.000000
12399.000000,11137.000000,5921.000000,46855.000000
12385.000000,11187.000000,5964.000000,46889.000000
12487.000000,11209.000000,5978.000000,46945.000000
12443.000000,11243.000000,5949.000000,47015.000000
12534.000000,11254.000000,6063.000000,46967.000000
12505.000000,11239.000000,5948.000000,47031.000000
12533.000000,11296.000000,6119.000000,47025.000000
12615.000000,11352.000000,6124.000000,46935.000000
12565.000000,11346.000000,6197.000000,47054.000000
12562.000000,11378.000000,6226.000000,47096.000000
12667.000000,11352.000000,6254.000000,47114.000000
12685.000000,11420.000000,6272.000000,47135.000000
12736.000000,11432.000000,6349.000000,47183.000000
12744.000000,11493.000000,6421.000000,47212.000000
12860.000000,11502.000000,6498.000000,47256.000000
12816.000000,11535.000000,6485.000000,47252.000000
12870.000000,11543.000000,6458.000000,47301.000000
12985.000000,11655.000000,6672.000000,47389.000000
12982.000000,11719.000000,6713.000000,47469.000000
13045.000000,11744.000000,6776.000000,47445.000000
13103.000000,11743.000000,6849.000000,47470.000000
13127.000000,11771.000000,6922.000000,47524.000000
13149.000000,11784.000000,6914.000000,47531.000000
13203.000000,11848.000000,6964.000000,47527.000000
13213.000000,11881.000000,7032.000000,47577.000000
13241.000000,11891.000000,7039.000000,47612.000000
13287.000000,11905.000000,7138.000000,47583.000000
13313.000000,11965.000000,7100.000000,47651.000000
13331.000000,11956.000000,7120.000000,47633.000000
13386.000000,11943.000000,7164.000000,47680.000000
13385.000000,11986.000000,7143.000000,47690.000000
13377.000000,12000.000000,7123.000000,47629.000000
13410.000000,11962.000000,7124.000000,47651.000000
13384.000000,12002.000000,7201.000000,47675.000000
13383.000000,11972.000000,7119.000000,47637.000000
13414.000000,11988.000000,7159.000000,47690.000000
13366.000000,11988.000000,7115.000000,47646.000000
13336.000000,11939.000000,7135.000000,47633.000000
13349.000000,11943.000000,7115.000000,47615.000000
13353.000000,11934.000000,7132.000000,47607.000000
13300.000000,11907.000000,7115.000000,47616.000000
13358.000000,11995.000000,7094.000000,47623.000000
13339.000000,11936.000000,7166.000000,47527.000000
13318.000000,11943.000000,7110.000000,47560.000000
13349.000000,11913.000000,7071.000000,47596.000000
13277.000000,11926.000000,7056.000000,47613.000000
13370.000000,11900.000000,7062.000000,47588.000000
13272.000000,11915.000000,7032.000000,47553.000000
13339.000000,11949.000000,7035.000000,47562.000000
13258.000000,11885.000000,7031.000000,47565.000000
13202.000000,11870.000000,6935.000000,47503.000000
13243.000000,11836.000000,6994.000000,47508.000000
13230.000000,11857.000000,6947.000000,47539.000000
13216.000000,11876.000000,6986.000000,47551.000000
13230.000000,11836.000000,6994.000000,47507.000000
13229.000000,11863.000000,7039.000000,47539.000000
13226.000000,11810.000000,6958.000000,47520.000000
13260.000000,11811.000000,6981.000000,47506.000000
13254.000000,11853.000000,7006.000000,47538.000000
13252.000000,11877.000000,6975.000000,47532.000000
13247.000000,11857.000000,6948.000000,47536.000000
13269.000000,11890.000000,7003.000000,47577.000000
13204.000000,11804.000000,6946.000000,47525.000000
13160.000000,11741.000000,6946.000000,47497.000000
13183.000000,11819.000000,6933.000000,47487.000000
13117.000000,11811.000000,6939.000000,47491.000000
13200.000000,11825.000000,6950.000000,47510.000000
13192.000000,11830.000000,6936.000000,47458.000000
13121.000000,11792.000000,6886.000000,47496.000000
13095.000000,11831.000000,6881.000000,47474.000000
13154.000000,11782.000000,6908.000000,47448.000000
13087.000000,11769.000000,6912.000000,47503.000000
13136.000000,11795.000000,6832.000000,47491.000000
13113.000000,11755.000000,6889.000000,47470.000000
13074.000000,11777.000000,6891.000000,47448.000000
13081.000000,11735.000000,6809.000000,47494.000000
13026.000000,11762.000000,6880.000000,47379.000000
13030.000000,11714.000000,6779.000000,47429.000000
13040.000000,11694.000000,6802.000000,47335.000000
13004.000000,11699.000000,6722.000000,47385.000000
13036.000000,11717.000000,6777.000000,47388.000000
13030.000000,11669.000000,6726.000000,47382.000000
13007.000000,11675.000000,6715.000000,47388.000000
13008.000000,11664.000000,6723.000000,47404.000000
13001.000000,11665.000000,6690.000000,47360.000000
12979.000000,11635.000000,6763.000000,47345.000000
12942.000000,11649.000000,6634.000000,47332.000000
13004.000000,11629.000000,6655.000000,47347.000000
12960.000000,11613.000000,6618.000000,47344.000000
12906.000000,11634.000000,6651.000000,47311.000000
12932.000000,11617.000000,6648.000000,47312.000000
12964.000000,11599.000000,6634.000000,47376.000000
12928.000000,11615.000000,6626.000000,47324.000000
12856.000000,11587.000000,6615.000000,47261.000000
12849.000000,11610.000000,6584.000000,47313.000000
12881.000000,11559.000000,6570.000000,47294.000000
12854.000000,11548.000000,6553.000000,47291.000000
12845.000000,11540.000000,6567.000000,47259.000000
12771.000000,11575.000000,6479.000000,47319.000000
12824.000000,11548.000000,6505.000000,47285.000000
12777.000000,11511.000000,6494.000000,47304.000000
12813.000000,11524.000000,6485.000000,47252.000000
12827.000000,11575.000000,6501.000000,47190.000000
12777.000000,11508.000000,6443.000000,47226.000000
12779.000000,11494.000000,6414.000000,47237.000000
12731.000000,11471.000000,6391.000000,47211.000000
12718.000000,11495.000000,6422.000000,47163.000000
12717.000000,11457.000000,6394.000000,47214.000000
12750.000000,11452.000000,6350.000000,47175.000000
12714.000000,11462.000000,6353.000000,47151.000000
12717.000000,11455.000000,6348.000000,47167.000000
12706.000000,11356.000000,6308.000000,47176.000000
12748.000000,11417.000000,6346.000000,47149.000000
12660.000000,11446.000000,6298.000000,47125.000000
12686.000000,11399.000000,6287.000000,47135.000000
12677.000000,11364.000000,6354.000000,47159.000000
12692.000000,11439.000000,6291.000000,47172.000000
12665.000000,11353.000000,6288.000000,47193.000000
12685.000000,11415.000000,6261.000000,47106.000000
12707.000000,11357.000000,6239.000000,47125.000000
12667.000000,11381.000000,6266.000000,47106.000000
12678.000000,11371.000000,6249.000000,47086.000000
12648.000000,11330.000000,6271.000000,47086.000000
12628.000000,11332.000000,6242.000000,47076.000000
12627.000000,11342.000000,6227.000000,47119.000000
12639.000000,11369.000000,6257.000000,47053.000000
12629.000000,11360.000000,6203.000000,47124.000000
12617.000000,11322.000000,6219.000000,47103.000000
12642.000000,11329.000000,6125.000000,47156.000000
12621.000000,11329.000000,6157.000000,47059.000000
12585.000000,11382.000000,6148.000000,47069.000000
12586.000000,11333.000000,6168.000000,47013.000000
12523.000000,11326.000000,6136.000000,47115.000000
12548.000000,11323.000000,6164.000000,47074.000000
12565.000000,11283.000000,6124.000000,46981.000000
12556.000000,11304.000000,6143.000000,47022.000000
12534.000000,11296.000000,6062.000000,47007.000000
12496.000000,11273.000000,6131.000000,47051.000000
12510.000000,11256.000000,6107.000000,47024.000000
12446.000000,11243.000000,6114.000000,47017.000000
12477.000000,11267.000000,6091.000000,46995.000000
12456.000000,11248.000000,6034.000000,46946.000000
12490.000000,11238.000000,6035.000000,46975.000000
12487.000000,11259.000000,6041.000000,47011.000000
12469.000000,11203.000000,6026.000000,46972.000000
12395.000000,11281.000000,6034.000000,46984.000000
12423.000000,11213.000000,6050.000000,46949.000000
12422.000000,11137.000000,5979.000000,46989.000000
12420.000000,11196.000000,5999.000000,46947.000000
12363.000000,11232.000000,6032.000000,46951.000000
12417.000000,11215.000000,5980.000000,46936.000000
12364.000000,11188.000000,6004.000000,46940.000000
12368.000000,11167.000000,5953.000000,46936.000000
12384.000000,11167.000000,5953.000000,46940.000000
12259.000000,11146.000000,5968.000000,46911.000000
12321.000000,11149.000000,5962.000000,46927.000000
12348.000000,11252.000000,5960.000000,46944.000000
12309.000000,11153.000000,5942.000000,46931.000000
12295.000000,11062.000000,5931.000000,46892.000000
12306.000000,11169.000000,5907.000000,46895.000000
12281.000000,11039.000000,5871.000000,46862.000000
12296.000000,11116.000000,5874.000000,46871.000000
12253.000000,11085.000000,5875.000000,46844.000000
12274.000000,11063.000000,5813.000000,46847.000000
12193.000000,11029.000000,5740.000000,46840.000000
12238.000000,11075.000000,5795.000000,46819.000000
12231.000000,11003.000000,5787.000000,46827.000000
12196.000000,11055.000000,5766.000000,46796.000000
12206.000000,11050.000000,5772.000000,46778.000000
12167.000000,11065.000000,5773.000000,46773.000000
12246.000000,10994.000000,5731.000000,46821.000000
12154.000000,11021.000000,5707.000000,46751.000000
12143.000000,11011.000000,5687.000000,46779.000000
12111.000000,11015.000000,5648.000000,46682.000000
12128.000000,10983.000000,5639.000000,46747.000000
12088.000000,10987.000000,5622.000000,46689.000000
12079.000000,10945.000000,5580.000000,46717.000000
12038.000000,10915.000000,5598.000000,46721.000000
12054.000000,10922.000000,5605.000000,46687.000000
12014.000000,10933.000000,5544.000000,46655.000000
12041.000000,10905.000000,5572.000000,46677.000000
11975.000000,10823.000000,5524.000000,46653.000000
12010.000000,10913.000000,5536.000000,46675.000000
12005.000000,10873.000000,5523.000000,46666.000000
12063.000000,10908.000000,5590.000000,46612.000000
11943.000000,10900.000000,5539.000000,46662.000000
12036.000000,10920.000000,5518.000000,46632.000000
12040.000000,10924.000000,5518.000000,46677.000000
12008.000000,10941.000000,5531.000000,46716.000000
12036.000000,10937.000000,5565.000000,46716.000000
12020.000000,10916.000000,5582.000000,46672.000000
12068.000000,10905.000000,5563.000000,46688.000000
12085.000000,10905.000000,5613.000000,46646.000000
12067.000000,10921.000000,5620.000000,46707.000000
12109.000000,10965.000000,5652.000000,46706.000000
12098.000000,11002.000000,5661.000000,46763.000000
12124.000000,10992.000000,5679.000000,46784.000000
12187.000000,11024.000000,5717.000000,46778.000000
12176.000000,10986.000000,5777.000000,46765.000000
12182.000000,11079.000000,5762.000000,46799.000000
12243.000000,11045.000000,5781.000000,46841.000000
12234.000000,11002.000000,5827.000000,46847.000000
12295.000000,11089.000000,5832.000000,46847.000000
12213.000000,11141.000000,5851.000000,46834.000000
12327.000000,11117.000000,5936.000000,46873.000000
12366.000000,11167.000000,5920.000000,46888.000000
12388.000000,11154.000000,5971.000000,46931.000000
12379.000000,11151.000000,6040.000000,46946.000000
12439.000000,11215.000000,6049.000000,46971.000000
12442.000000,11266.000000,6104.000000,47035.000000
12453.000000,11236.000000,6129.000000,47058.000000
12502.000000,11293.000000,6154.000000,47042.000000
12537.000000,11267.000000,6220.000000,47051.000000
12591.000000,11353.000000,6274.000000,47129.000000
12622.000000,11401.000000,6337.000000,47105.000000
12669.000000,11461.000000,6390.000000,47161.000000
12655.000000,11461.000000,6429.000000,47237.000000
12757.000000,11484.000000,6506.000000,47231.000000
12902.000000,11639.000000,6740.000000,47411.000000
12993.000000,11677.000000,6798.000000,47386.000000
13014.000000,11699.000000,6861.000000,47484.000000
13063.000000,11756.000000,6943.000000,47490.000000
13099.000000,11834.000000,6959.000000,47548.000000
13157.000000,11802.000000,7007.000000,47571.000000
13241.000000,11879.000000,7087.000000,47588.000000
13233.000000,11873.000000,7115.000000,47687.000000
13250.000000,11918.000000,7126.000000,47662.000000
13282.000000,11913.000000,7172.000000,47590.000000
13297.000000,11956.000000,7197.000000,47651.000000
13303.000000,11966.000000,7222.000000,47680.000000
13321.000000,11923.000000,7230.000000,47690.000000
13318.000000,11941.000000,7207.000000,47697.000000
13355.000000,11953.000000,7200.000000,47663.000000
13296.000000,11959.000000,7172.000000,47653.000000
13298.000000,11952.000000,7222.000000,47687.000000
13284.000000,11952.000000,7172.000000,47643.000000
13290.000000,11931.000000,7266.000000,47670.000000
13263.000000,11941.000000,7146.000000,47682.000000
13246.000000,11949.000000,7122.000000,47615.000000
13209.000000,11889.000000,7091.000000,47624.000000
13223.000000,11893.000000,7134.000000,47620.000000
13255.000000,11898.000000,7161.000000,47616.000000
13249.000000,11950.000000,7122.000000,47633.000000
13248.000000,11877.000000,7112.000000,47614.000000
13206.000000,11912.000000,7139.000000,47598.000000
13232.000000,11900.000000,7146.000000,47614.000000
13258.000000,11910.000000,7122.000000,47610.000000
13183.000000,11933.000000,7134.000000,47603.000000
13174.000000,11882.000000,7056.000000,47592.000000
13124.000000,11838.000000,7074.000000,47576.000000
13197.000000,11863.000000,7080.000000,47590.000000
13195.000000,11867.000000,7045.000000,47574.000000
13207.000000,11868.000000,7062.000000,47583.000000
13195.000000,11941.000000,7064.000000,47590.000000
13207.000000,11880.000000,7065.000000,47589.000000
13148.000000,11850.000000,7032.000000,47528.000000
13098.000000,11875.000000,6988.000000,47549.000000
13143.000000,11827.000000,7041.000000,47554.000000
13120.000000,11834.000000,7011.000000,47553.000000
13135.000000,12083.000000,6981.000000,47541.000000
13067.000000,11773.000000,6964.000000,47487.000000
13067.000000,11808.000000,6979.000000,47511.000000
13011.000000,11784.000000,7013.000000,47541.000000
13065.000000,11763.000000,6970.000000,47520.000000
13008.000000,11757.000000,6940.000000,47544.000000
12995.000000,11724.000000,6920.000000,47472.000000
13009.000000,11771.000000,6910.000000,47448.000000
12996.000000,11685.000000,6940.000000,47452.000000
13016.000000,11751.000000,6887.000000,47479.000000
12981.000000,11754.000000,6913.000000,47489.000000
13010.000000,11752.000000,6925.000000,47480.000000
12966.000000,11731.000000,6839.000000,47474.000000
12947.000000,11738.000000,6873.000000,47422.000000
12953.000000,11712.000000,6914.000000,47480.000000
12893.000000,11616.000000,6853.000000,47444.000000
12928.000000,11741.000000,6857.000000,47430.000000
12893.000000,11713.000000,6832.000000,47434.000000
12861.000000,11669.000000,6841.000000,47410.000000
12853.000000,11636.000000,6820.000000,47381.000000
12858.000000,11649.000000,6786.000000,47390.000000
12846.000000,11675.000000,6825.000000,47387.000000
12844.000000,11705.000000,6823.000000,47415.000000
12834.000000,11621.000000,6787.000000,47376.000000
12809.000000,11615.000000,6766.000000,47374.000000
12803.000000,11655.000000,6770.000000,47342.000000
12763.000000,11643.000000,6763.000000,47385.000000
12770.000000,11596.000000,6738.000000,47359.000000
12694.000000,11604.000000,6643.000000,47300.000000
12667.000000,11563.000000,6619.000000,47318.000000
12664.000000,11573.000000,6578.000000,47267.000000
12645.000000,11554.000000,6610.000000,47264.000000
12622.000000,11531.000000,6520.000000,47205.000000
12591.000000,11447.000000,6505.000000,47222.000000
12600.000000,11480.000000,6534.000000,47259.000000
12513.000000,11464.000000,6510.000000,47170.000000
12488.000000,11406.000000,6412.000000,47169.000000
12489.000000,11363.000000,6407.000000,47132.000000
12429.000000,11389.000000,6377.000000,47152.000000
12448.000000,11353.000000,6357.000000,47120.000000
12423.000000,11362.000000,6320.000000,47034.000000
12401.000000,11335.000000,6299.000000,47103.000000
12418.000000,11295.000000,6272.000000,47097.000000
12382.000000,11265.000000,6271.000000,47102.000000
12308.000000,11288.000000,6235.000000,47095.000000
12349.000000,11296.000000,6244.000000,47036.000000
12337.000000,11255.000000,6201.000000,47029.000000
12307.000000,11322.000000,6235.000000,47057.000000
12281.000000,11265.000000,6140.000000,47044.000000
12245.000000,11206.000000,6158.000000,47039.000000
12242.000000,11239.000000,6124.000000,47006.000000
12223.000000,11181.000000,6156.000000,46989.000000
12212.000000,11217.000000,6068.000000,46957.000000
12200.000000,11167.000000,6140.000000,46980.000000
12241.000000,11183.000000,6065.000000,46981.000000
12199.000000,11202.000000,6052.000000,46959.000000
12124.000000,11181.000000,6036.000000,46917.000000
12223.000000,11191.000000,6046.000000,46962.000000
12131.000000,11194.000000,6067.000000,47012.000000
12129.000000,11179.000000,6031.000000,46945.000000
12138.000000,11205.000000,6071.000000,46925.000000
12182.000000,11169.000000,6053.000000,46957.000000
12149.000000,11187.000000,6072.000000,46975.000000
12222.000000,11202.000000,6152.000000,46940.000000
12248.000000,11211.000000,6143.000000,46975.000000
12278.000000,11209.000000,6159.000000,47003.000000
12262.000000,11283.000000,6249.000000,47076.000000
12391.000000,11339.000000,6325.000000,47064.000000
12374.000000,11355.000000,6353.000000,47155.000000
12416.000000,11373.000000,6381.000000,47150.000000
12413.000000,11386.000000,6403.000000,47148.000000
12526.000000,11457.000000,6494.000000,47215.000000
12544.000000,11445.000000,6592.000000,47211.000000
12631.000000,11510.000000,6655.000000,47302.000000
12594.000000,11570.000000,6712.000000,47389.000000
12627.000000,11560.000000,6707.000000,47341.000000
12772.000000,11681.000000,6920.000000,47441.000000
12844.000000,11685.000000,7014.000000,47476.000000
12846.000000,11728.000000,7007.000000,47524.000000
13076.000000,11908.000000,7277.000000,47720.000000
13161.000000,12035.000000,7512.000000,47810.000000
13273.000000,12040.000000,7552.000000,47836.000000
13299.000000,12104.000000,7569.000000,47898.000000
13352.000000,12147.000000,7616.000000,47886.000000
13407.000000,12154.000000,7680.000000,47922.000000
13554.000000,12301.000000,7844.000000,48032.000000
13559.000000,12362.000000,7835.000000,48023.000000
13517.000000,12274.000000,7870.000000,48038.000000
13518.000000,12297.000000,7871.000000,47989.000000
13511.000000,12294.000000,7811.000000,48019.000000
13512.000000,12311.000000,7823.000000,48023.000000
13524.000000,12313.000000,7800.000000,48003.000000
13466.000000,12261.000000,7748.000000,48004.000000
13445.000000,12276.000000,7728.000000,47874.000000
13508.000000,12255.000000,7803.000000,48042.000000
13484.000000,12243.000000,7768.000000,47968.000000
13451.000000,12257.000000,7816.000000,47983.000000
13460.000000,12275.000000,7765.000000,47986.000000
13342.000000,12209.000000,7778.000000,47994.000000
13421.000000,12207.000000,7804.000000,48008.000000
13379.000000,12171.000000,7749.000000,47965.000000
13443.000000,12204.000000,7722.000000,47973.000000
13403.000000,12215.000000,7695.000000,47936.000000
13427.000000,12206.000000,7711.000000,47930.000000
13398.000000,12210.000000,7705.000000,47944.000000
13346.000000,12197.000000,7690.000000,47925.000000
13389.000000,12136.000000,7699.000000,47952.000000
13322.000000,12195.000000,7766.000000,47977.000000
13369.000000,12188.000000,7710.000000,47896.000000
13377.000000,12179.000000,7690.000000,47883.000000
13339.000000,12164.000000,7693.000000,47927.000000
13303.000000,12155.000000,7711.000000,47932.000000
13341.000000,12143.000000,7690.000000,47924.000000
13358.000000,12169.000000,7673.000000,47909.000000
13319.000000,12182.000000,7698.000000,47922.000000
13262.000000,12101.000000,7627.000000,47878.000000
13251.000000,12134.000000,7649.000000,47762.000000
13215.000000,12115.000000,7633.000000,47855.000000
13227.000000,12112.000000,7639.000000,47872.000000
13208.000000,12089.000000,7573.000000,47862.000000
13211.000000,12131.000000,7598.000000,47863.000000
13176.000000,12098.000000,7598.000000,47851.000000
13162.000000,12065.000000,7578.000000,47837.000000
13150.000000,12088.000000,7530.000000,47815.000000
13127.000000,12022.000000,7535.000000,47801.000000
13055.000000,12018.000000,7523.000000,47754.000000
13087.000000,11993.000000,7491.000000,47809.000000
13078.000000,12027.000000,7450.000000,47769.000000
13056.000000,12022.000000,7386.000000,47779.000000
13059.000000,12001.000000,7418.000000,47761.000000
13002.000000,11965.000000,7487.000000,47807.000000
13004.000000,11941.000000,7360.000000,47737.000000
12917.000000,11905.000000,7365.000000,47699.000000
12958.000000,11913.000000,7351.000000,47654.000000
12973.000000,11895.000000,7336.000000,47711.000000
13028.000000,11935.000000,7318.000000,47682.000000
12939.000000,11878.000000,7310.000000,47650.000000
12904.000000,11882.000000,7222.000000,47677.000000
12931.000000,11874.000000,7270.000000,47658.000000
12901.000000,11870.000000,7266.000000,47655.000000
12854.000000,11861.000000,7275.000000,47684.000000
12769.000000,11784.000000,7155.000000,47647.000000
12752.000000,11819.000000,7123.000000,47543.000000
12730.000000,11743.000000,7107.000000,47577.000000
12720.000000,11775.000000,7102.000000,47616.000000
12759.000000,11712.000000,7084.000000,47556.000000
12718.000000,11747.000000,7061.000000,47516.000000
12690.000000,11720.000000,7021.000000,47528.000000
12656.000000,11689.000000,6990.000000,47504.000000
12614.000000,11669.000000,6975.000000,47483.000000
12662.000000,11639.000000,6966.000000,47480.000000
12651.000000,11695.000000,6976.000000,47471.000000
12617.000000,11669.000000,6968.000000,47500.000000
12616.000000,11731.000000,6940.000000,47519.000000
12607.000000,11639.000000,6944.000000,47443.000000
12555.000000,11604.000000,6869.000000,47445.000000
12542.000000,11589.000000,6847.000000,47448.000000
12555.000000,11685.000000,6850.000000,47432.000000
12551.000000,11607.000000,6856.000000,47392.000000
12518.000000,11568.000000,6845.000000,47384.000000
12525.000000,11576.000000,6885.000000,47394.000000
12526.000000,11576.000000,6867.000000,47425.000000
12529.000000,11555.000000,6781.000000,47353.000000
12460.000000,11571.000000,6800.000000,47369.000000
12502.000000,11486.000000,6728.000000,47297.000000
12501.000000,11490.000000,6700.000000,47266.000000
12480.000000,11535.000000,6719.000000,47348.000000
12457.000000,11456.000000,6698.000000,47333.000000
12475.000000,11592.000000,6785.000000,47354.000000
12515.000000,11506.000000,6811.000000,47388.000000
12530.000000,11588.000000,6810.000000,47337.000000
12521.000000,11547.000000,6834.000000,47369.000000
12552.000000,11616.000000,6878.000000,47414.000000
12554.000000,11623.000000,6874.000000,47351.000000
12587.000000,11628.000000,6932.000000,47412.000000
12592.000000,11679.000000,7072.000000,47476.000000
12713.000000,11719.000000,7039.000000,47581.000000
12753.000000,11755.000000,7068.000000,47551.000000
12734.000000,11734.000000,7097.000000,47571.000000
12764.000000,11778.000000,7122.000000,47593.000000
12766.000000,11734.000000,7141.000000,47598.000000
12883.000000,11918.000000,7366.000000,47726.000000
12859.000000,11930.000000,7355.000000,47743.000000
12877.000000,11961.000000,7431.000000,47784.000000
12941.000000,11977.000000,7432.000000,47741.000000
12985.000000,11980.000000,7497.000000,47801.000000
13090.000000,12029.000000,7615.000000,47891.000000
13192.000000,12127.000000,7699.000000,47917.000000
13169.000000,12166.000000,7725.000000,47929.000000
13380.000000,12292.000000,7961.000000,48112.000000
13378.000000,12348.000000,8052.000000,48146.000000
13407.000000,12409.000000,8074.000000,48154.000000
13455.000000,12355.000000,8102.000000,48152.000000
13564.000000,12435.000000,8181.000000,48206.000000
13552.000000,12425.000000,8185.000000,48258.000000
13557.000000,12443.000000,8204.000000,48233.000000
13528.000000,12417.000000,8125.000000,48205.000000
13489.000000,12415.000000,8143.000000,48211.000000
13488.000000,12372.000000,8194.000000,48175.000000
13485.000000,12355.000000,8113.000000,48164.000000
13451.000000,12362.000000,8034.000000,48146.000000
13421.000000,12337.000000,8064.000000,48156.000000
13428.000000,12321.000000,8072.000000,48152.000000
13386.000000,12314.000000,8032.000000,48170.000000
13390.000000,12325.000000,8009.000000,48118.000000
13358.000000,12295.000000,8019.000000,48080.000000
13385.000000,12279.000000,7999.000000,48095.000000
13316.000000,12251.000000,7961.000000,48127.000000
13385.000000,12305.000000,7980.000000,48103.000000
13374.000000,12293.000000,7964.000000,48087.000000
13307.000000,12274.000000,7935.000000,48051.000000
13320.000000,12257.000000,7871.000000,48038.000000
13301.000000,12249.000000,7941.000000,48037.000000
13218.000000,12183.000000,7794.000000,48008.000000
13242.000000,12200.000000,7816.000000,48073.000000
13170.000000,12175.000000,7765.000000,47987.000000
13200.000000,12123.000000,7709.000000,47925.000000
13095.000000,12127.000000,7693.000000,47957.000000
13134.000000,12164.000000,7682.000000,48008.000000
13108.000000,12101.000000,7656.000000,47909.000000
13187.000000,12085.000000,7605.000000,47934.000000
13141.000000,12112.000000,7611.000000,47874.000000
13103.000000,12107.000000,7619.000000,47936.000000
13076.000000,12139.000000,7589.000000,47888.000000
13072.000000,12010.000000,7491.000000,47837.000000
13016.000000,12036.000000,7493.000000,47831.000000
12984.000000,12005.000000,7494.000000,47824.000000
12976.000000,12013.000000,7458.000000,47836.000000
12978.000000,11984.000000,7448.000000,47850.000000
12994.000000,11974.000000,7425.000000,47820.000000
12944.000000,11972.000000,7421.000000,47846.000000
12921.000000,11942.000000,7419.000000,47764.000000
12940.000000,11929.000000,7415.000000,47745.000000
12935.000000,11942.000000,7361.000000,47794.000000
12927.000000,11950.000000,7352.000000,47723.000000
12960.000000,11952.000000,7378.000000,47737.000000
12832.000000,11844.000000,7294.000000,47685.000000
12796.000000,11846.000000,7170.000000,47665.000000
12809.000000,11861.000000,7233.000000,47674.000000
12809.000000,11853.000000,7236.000000,47640.000000
12817.000000,11874.000000,7208.000000,47642.000000
12780.000000,11848.000000,7135.000000,47628.000000
12776.000000,11857.000000,7173.000000,47689.000000
12771.000000,11806.000000,7127.000000,47654.000000
12800.000000,11802.000000,7056.000000,47628.000000
12756.000000,11814.000000,7063.000000,47620.000000
12757.000000,11729.000000,7031.000000,47617.000000
12698.000000,11752.000000,7038.000000,47599.000000
12703.000000,11736.000000,6950.000000,47556.000000
12685.000000,11742.000000,6924.000000,47559.000000
12733.000000,11701.000000,6935.000000,47514.000000
12808.000000,11723.000000,7026.000000,47532.000000
12715.000000,11743.000000,6953.000000,47557.000000
12674.000000,11711.000000,6905.000000,47560.000000
12671.000000,11708.000000,6926.000000,47504.000000
12702.000000,11739.000000,6923.000000,47525.000000
12700.000000,11673.000000,6907.000000,47519.000000
12687.000000,11706.000000,6922.000000,47530.000000
12652.000000,11739.000000,6934.000000,47522.000000
12681.000000,11725.000000,6910.000000,47516.000000
12691.000000,11669.000000,6920.000000,47560.000000
12673.000000,11695.000000,6908.000000,47558.000000
12664.000000,11667.000000,6934.000000,47522.000000
12681.000000,11727.000000,6927.000000,47490.000000
12692.000000,11701.000000,6946.000000,47519.000000
12730.000000,11708.000000,6910.000000,47499.000000
12704.000000,11712.000000,6926.000000,47501.000000
12700.000000,11698.000000,6937.000000,47536.000000
12695.000000,11717.000000,6931.000000,47526.000000
12712.000000,11716.000000,6968.000000,47525.000000
12681.000000,11683.000000,6960.000000,47474.000000
12697.000000,11687.000000,6958.000000,47527.000000
12676.000000,11743.000000,7046.000000,47628.000000
12722.000000,11704.000000,7042.000000,47573.000000
12744.000000,11712.000000,7039.000000,47571.000000
12745.000000,11748.000000,7041.000000,47566.000000
12740.000000,11789.000000,7056.000000,47605.000000
12797.000000,11795.000000,7096.000000,47620.000000
12814.000000,11828.000000,7176.000000,47625.000000
12841.000000,11875.000000,7262.000000,47715.000000
12846.000000,12148.000000,7257.000000,47723.000000
12892.000000,11848.000000,7325.000000,47713.000000
12978.000000,11986.000000,7405.000000,47784.000000
13018.000000,11977.000000,7501.000000,47849.000000
13061.000000,12051.000000,7514.000000,47899.000000
13102.000000,12042.000000,7558.000000,47896.000000
13153.000000,12047.000000,7591.000000,47932.000000
13120.000000,12115.000000,7629.000000,47929.000000
13291.000000,12179.000000,7753.000000,48099.000000
13297.000000,12208.000000,7853.000000,48076.000000
13310.000000,12243.000000,7899.000000,48110.000000
13329.000000,12257.000000,7956.000000,48149.000000
13385.000000,12310.000000,8050.000000,48177.000000
13420.000000,12345.000000,8059.000000,48207.000000
13589.000000,12434.000000,8305.000000,48304.000000
13750.000000,12572.000000,8545.000000,48461.000000
13841.000000,12663.000000,8593.000000,48512.000000
13819.000000,12673.000000,8641.000000,48493.000000
13900.000000,12735.000000,8682.000000,48528.000000
13921.000000,12737.000000,8712.000000,48558.000000
13932.000000,12769.000000,8702.000000,48564.000000
13974.000000,12789.000000,8742.000000,48583.000000
13972.000000,12759.000000,8767.000000,48530.000000
13956.000000,12748.000000,8770.000000,48582.000000
13949.000000,12770.000000,8691.000000,48578.000000
13979.000000,12757.000000,8747.000000,48573.000000
13929.000000,12744.000000,8758.000000,48570.000000
13915.000000,12739.000000,8729.000000,48562.000000
13890.000000,12749.000000,8687.000000,48597.000000
13853.000000,12733.000000,8696.000000,48476.000000
13846.000000,12704.000000,8659.000000,48561.000000
13891.000000,12715.000000,8680.000000,48472.000000
13793.000000,12725.000000,8692.000000,48525.000000
13884.000000,12734.000000,8676.000000,48532.000000
13807.000000,12693.000000,8679.000000,48523.000000
13816.000000,12669.000000,8638.000000,48536.000000
13807.000000,12681.000000,8626.000000,48516.000000
13783.000000,12638.000000,8615.000000,48506.000000
13894.000000,12668.000000,8644.000000,48441.000000
13771.000000,12644.000000,8577.000000,48489.000000
13748.000000,12657.000000,8557.000000,48495.000000
13716.000000,12613.000000,8554.000000,48461.000000
13729.000000,12603.000000,8547.000000,48527.000000
13579.000000,12629.000000,8480.000000,48372.000000
13656.000000,12575.000000,8458.000000,48410.000000
13607.000000,12489.000000,8430.000000,48370.000000
13580.000000,12569.000000,8460.000000,48372.000000
13612.000000,12519.000000,8383.000000,48345.000000
13625.000000,12484.000000,8370.000000,48306.000000
13579.000000,12560.000000,8365.000000,48352.000000
13567.000000,12495.000000,8314.000000,48351.000000
13568.000000,12460.000000,8307.000000,48283.000000
13504.000000,12432.000000,8201.000000,48310.000000
13547.000000,12429.000000,8239.000000,48291.000000
13591.000000,12460.000000,8246.000000,48337.000000
13476.000000,12440.000000,8257.000000,48306.000000
13485.000000,12476.000000,8244.000000,48254.000000
13378.000000,12371.000000,8129.000000,48222.000000
13419.000000,12356.000000,8098.000000,48201.000000
13369.000000,12349.000000,8020.000000,48202.000000
13400.000000,12362.000000,8113.000000,48213.000000
13402.000000,12347.000000,8108.000000,48147.000000
13448.000000,12319.000000,8001.000000,48190.000000
13445.000000,12314.000000,8023.000000,48160.000000
13369.000000,12277.000000,8000.000000,48153.000000
13365.000000,12312.000000,7979.000000,48129.000000
13366.000000,12280.000000,7975.000000,48146.000000
13385.000000,12293.000000,8006.000000,48153.000000
13356.000000,12311.000000,8032.000000,48136.000000
13357.000000,12293.000000,7975.000000,48136.000000
13311.000000,12278.000000,7923.000000,48156.000000
13335.000000,12255.000000,7965.000000,48112.000000
13279.000000,12257.000000,7922.000000,48089.000000
13284.000000,12243.000000,7893.000000,48074.000000
13270.000000,12200.000000,7913.000000,48075.000000
13254.000000,12256.000000,7884.000000,48072.000000
13270.000000,12221.000000,7900.000000,48057.000000
13263.000000,12154.000000,7902.000000,48065.000000
13212.000000,12192.000000,7846.000000,48058.000000
13187.000000,12136.000000,7770.000000,48008.000000
13146.000000,12219.000000,7804.000000,48003.000000
13138.000000,12155.000000,7804.000000,48025.000000
13142.000000,12193.000000,7780.000000,47956.000000
13198.000000,12138.000000,7779.000000,48026.000000
13084.000000,12140.000000,7709.000000,47990.000000
13113.000000,12119.000000,7729.000000,47942.000000
13068.000000,12127.000000,7659.000000,47967.000000
13049.000000,12106.000000,7663.000000,47972.000000
13071.000000,12112.000000,7612.000000,47942.000000
13096.000000,12060.000000,7723.000000,47938.000000
13047.000000,12100.000000,7677.000000,47916.000000
13098.000000,12135.000000,7634.000000,47964.000000
13078.000000,12100.000000,7662.000000,47965.000000
13045.000000,12095.000000,7637.000000,47919.000000
13042.000000,12088.000000,7641.000000,47939.000000
13003.000000,12095.000000,7611.000000,47929.000000
12978.000000,12116.000000,7647.000000,47917.000000
12997.000000,12059.000000,7605.000000,47909.000000
13060.000000,12116.000000,7577.000000,47883.000000
13027.000000,12020.000000,7570.000000,47917.000000
13063.000000,12047.000000,7581.000000,47990.000000
13026.000000,12014.000000,7595.000000,47886.000000
13026.000000,12040.000000,7557.000000,47886.000000
13007.000000,12035.000000,7594.000000,47950.000000
12975.000000,12025.000000,7563.000000,47864.000000
12937.000000,12087.000000,7563.000000,47860.000000
12970.000000,12040.000000,7650.000000,47934.000000
13275.000000,11994.000000,7711.000000,47960.000000
12978.000000,12052.000000,7654.000000,47894.000000
13011.000000,11978.000000,7655.000000,47965.000000
12993.000000,12073.000000,7677.000000,47958.000000
13034.000000,12119.000000,7729.000000,47963.000000
13032.000000,12093.000000,7809.000000,47951.000000
13017.000000,12113.000000,7749.000000,47980.000000
13111.000000,12160.000000,7841.000000,48007.000000
13125.000000,12154.000000,7830.000000,48013.000000
13139.000000,12133.000000,7866.000000,48100.000000
13169.000000,12195.000000,7927.000000,48082.000000
13201.000000,12191.000000,7942.000000,48112.000000
13247.000000,12211.000000,7963.000000,48084.000000
13212.000000,12289.000000,7975.000000,48133.000000
13225.000000,12255.000000,8014.000000,48154.000000
13265.000000,12296.000000,8002.000000,48163.000000
13254.000000,12251.000000,8046.000000,48205.000000
13257.000000,12237.000000,8035.000000,48189.000000
13339.000000,12287.000000,8080.000000,48195.000000
13296.000000,12296.000000,8105.000000,48192.000000
13317.000000,12312.000000,8124.000000,48168.000000
13336.000000,12352.000000,8232.000000,48234.000000
13338.000000,12416.000000,8155.000000,48227.000000
13406.000000,12374.000000,8248.000000,48290.000000
13493.000000,12426.000000,8278.000000,48319.000000
13468.000000,12440.000000,8320.000000,48348.000000
13477.000000,12463.000000,8395.000000,48376.000000
13515.000000,12518.000000,8399.000000,48380.000000
13573.000000,12503.000000,8455.000000,48393.000000
13549.000000,12503.000000,8461.000000,48393.000000
13616.000000,12553.000000,8519.000000,48454.000000
13731.000000,12627.000000,8595.000000,48486.000000
13751.000000,12609.000000,8590.000000,48491.000000
13733.000000,12676.000000,8689.000000,48503.000000
13830.000000,12696.000000,8734.000000,48573.000000
13850.000000,12761.000000,8828.000000,48575.000000
13919.000000,12769.000000,8838.000000,48591.000000
13955.000000,12715.000000,8824.000000,48602.000000
13978.000000,12822.000000,8870.000000,48662.000000
13980.000000,12880.000000,8909.000000,48674.000000
14015.000000,12828.000000,8930.000000,48686.000000
14046.000000,12867.000000,8947.000000,48700.000000
14073.000000,12843.000000,8948.000000,48703.000000
14000.000000,12829.000000,8948.000000,48721.000000
14045.000000,12757.000000,8896.000000,48711.000000
14011.000000,12817.000000,8917.000000,48705.000000
14004.000000,12799.000000,8832.000000,48654.000000
13980.000000,12820.000000,8905.000000,48689.000000
13995.000000,12825.000000,8884.000000,48669.000000
13988.000000,12788.000000,8950.000000,48662.000000
13957.000000,12842.000000,8918.000000,48642.000000
13968.000000,12843.000000,8900.000000,48611.000000
13956.000000,12739.000000,8838.000000,48695.000000
13939.000000,12802.000000,8788.000000,48621.000000
13946.000000,12775.000000,8831.000000,48646.000000
13940.000000,12770.000000,8838.000000,48587.000000
13967.000000,12743.000000,8791.000000,48607.000000
13946.000000,12741.000000,8792.000000,48597.000000
14183.000000,12756.000000,8796.000000,48587.000000
13942.000000,12732.000000,8763.000000,48599.000000
13929.000000,12759.000000,8804.000000,48588.000000
13958.000000,12740.000000,8709.000000,48584.000000
13902.000000,12714.000000,8823.000000,48593.000000
13880.000000,12707.000000,8798.000000,48595.000000
13901.000000,12766.000000,8815.000000,48609.000000
13853.000000,12720.000000,8753.000000,48625.000000
13903.000000,12747.000000,8779.000000,48580.000000
13911.000000,12717.000000,8756.000000,48537.000000
13877.000000,12723.000000,8725.000000,48571.000000
13875.000000,12709.000000,8748.000000,48603.000000
13861.000000,12739.000000,8772.000000,48602.000000
13876.000000,12703.000000,8739.000000,48569.000000
13861.000000,12699.000000,8746.000000,48556.000000
13821.000000,12724.000000,8721.000000,48564.000000
13898.000000,12670.000000,8703.000000,48520.000000
13825.000000,12716.000000,8711.000000,48520.000000
13852.000000,12711.000000,8681.000000,48548.000000
13823.000000,12705.000000,8737.000000,48530.000000
13850.000000,12697.000000,8672.000000,48546.000000
13823.000000,12708.000000,8657.000000,48553.000000
13801.000000,12689.000000,8714.000000,48444.000000
13796.000000,12701.000000,8700.000000,48543.000000
13840.000000,12681.000000,8642.000000,48479.000000
13763.000000,12701.000000,8641.000000,48501.000000
13810.000000,12663.000000,8632.000000,48501.000000
13751.000000,12631.000000,8614.000000,48473.000000
13748.000000,12623.000000,8563.000000,48449.000000
13750.000000,12635.000000,8614.000000,48498.000000
13739.000000,12640.000000,8563.000000,48471.000000
13743.000000,12596.000000,8534.000000,48465.000000
13765.000000,12644.000000,8539.000000,48473.000000
13794.000000,12655.000000,8576.000000,48406.000000
13729.000000,12637.000000,8555.000000,48468.000000
13764.000000,12655.000000,8614.000000,48452.000000
13744.000000,12623.000000,8579.000000,48459.000000
13758.000000,12543.000000,8523.000000,48481.000000
13715.000000,12631.000000,8529.000000,48461.000000
13733.000000,12615.000000,8550.000000,48416.000000
13703.000000,12588.000000,8551.000000,48464.000000
13669.000000,12608.000000,8523.000000,48427.000000
13720.000000,12581.000000,8549.000000,48409.000000
13667.000000,12572.000000,8511.000000,48448.000000
13739.000000,12531.000000,8468.000000,48418.000000
13665.000000,12563.000000,8480.000000,48377.000000
13656.000000,12559.000000,8474.000000,48436.000000
13649.000000,12544.000000,8473.000000,48430.000000
13696.000000,12617.000000,8479.000000,48442.000000
13642.000000,12542.000000,8488.000000,48395.000000
13601.000000,12553.000000,8452.000000,48432.000000
13679.000000,12559.000000,8467.000000,48395.000000
13631.000000,12514.000000,8456.000000,48415.000000
13647.000000,12554.000000,8408.000000,48405.000000
13625.000000,12505.000000,8458.000000,48429.000000
13606.000000,12567.000000,8451.000000,48392.000000
13621.000000,12538.000000,8476.000000,48403.000000
13607.000000,12513.000000,8431.000000,48379.000000
13559.000000,12533.000000,8398.000000,48366.000000
13586.000000,12483.000000,8426.000000,48335.000000
13601.000000,12512.000000,8436.000000,48373.000000
13557.000000,12571.000000,8423.000000,48312.000000
13581.000000,12482.000000,8429.000000,48367.000000
13542.000000,12493.000000,8428.000000,48387.000000
13541.000000,12466.000000,8379.000000,48347.000000
13517.000000,12482.000000,8343.000000,48345.000000
13506.000000,12483.000000,8352.000000,48297.000000
13500.000000,12508.000000,8310.000000,48342.000000
13547.000000,12465.000000,8362.000000,48319.000000
13449.000000,12462.000000,8361.000000,48316.000000
13502.000000,12529.000000,8311.000000,48324.000000
13474.000000,12409.000000,8305.000000,48275.000000
13487.000000,12429.000000,8311.000000,48395.000000
13455.000000,12412.000000,8291.000000,48299.000000
13492.000000,12482.000000,8286.000000,48266.000000
13433.000000,12474.000000,8299.000000,48320.000000
13430.000000,12434.000000,8267.000000,48255.000000
13444.000000,12417.000000,8289.000000,48254.000000
13423.000000,12399.000000,8248.000000,48312.000000
13407.000000,12385.000000,8265.000000,48301.000000
13432.000000,12384.000000,8231.000000,48293.000000
13399.000000,12381.000000,8213.000000,48203.000000
13381.000000,12366.000000,8192.000000,48204.000000
13360.000000,12362.000000,8120.000000,48245.000000
13394.000000,12362.000000,8166.000000,48240.000000
13398.000000,12359.000000,8236.000000,48176.000000
13353.000000,12390.000000,8192.000000,48256.000000
13259.000000,12302.000000,8163.000000,48209.000000
13361.000000,12362.000000,8144.000000,48193.000000
13395.000000,12376.000000,8127.000000,48233.000000
13334.000000,12343.000000,8091.000000,48173.000000
13336.000000,12372.000000,8056.000000,48180.000000
13283.000000,12321.000000,8108.000000,48176.000000
13276.000000,12269.000000,8137.000000,48158.000000
13277.000000,12318.000000,8083.000000,48182.000000
13283.000000,12308.000000,8086.000000,48182.000000
13298.000000,12325.000000,8046.000000,48118.000000
13272.000000,12309.000000,8076.000000,48167.000000
13277.000000,12331.000000,8071.000000,48139.000000
13232.000000,12307.000000,8008.000000,48123.000000
13236.000000,12199.000000,8011.000000,48182.000000
13183.000000,12290.000000,7964.000000,48122.000000
13234.000000,12249.000000,7976.000000,48118.000000
13211.000000,12216.000000,7960.000000,48104.000000
13181.000000,12261.000000,7944.000000,48113.000000
13189.000000,12213.000000,7964.000000,48060.000000
13160.000000,12216.000000,7940.000000,48088.000000
13165.000000,12186.000000,7904.000000,48106.000000
13161.000000,12216.000000,7904.000000,48050.000000
13148.000000,12214.000000,7884.000000,48058.000000
13154.000000,12157.000000,7879.000000,48061.000000
13146.000000,12220.000000,7876.000000,48088.000000
13143.000000,12184.000000,7909.000000,48067.000000
13154.000000,12169.000000,7881.000000,48032.000000
13145.000000,12181.000000,7876.000000,48070.000000
13153.000000,12212.000000,7897.000000,48099.000000
13144.000000,12167.000000,7883.000000,48055.000000
13135.000000,12094.000000,7860.000000,48045.000000
13120.000000,12190.000000,7856.000000,48091.000000
13101.000000,12127.000000,7834.000000,48039.000000
13123.000000,12166.000000,7808.000000,48036.000000
13103.000000,12187.000000,7883.000000,48038.000000
13081.000000,12145.000000,7836.000000,48025.000000
13153.000000,12147.000000,7808.000000,48023.000000
13110.000000,12133.000000,7807.000000,48025.000000
13125.000000,12152.000000,7809.000000,48058.000000
13046.000000,12171.000000,7811.000000,47983.000000
13110.000000,12147.000000,7790.000000,48018.000000
13106.000000,12100.000000,7790.000000,48032.000000
13049.000000,12140.000000,7793.000000,48006.000000
13052.000000,12195.000000,7822.000000,47988.000000
13048.000000,12079.000000,7764.000000,47955.000000
13090.000000,12072.000000,7798.000000,48079.000000
13023.000000,12089.000000,7749.000000,47960.000000
13047.000000,12091.000000,7805.000000,47955.000000
13011.000000,12096.000000,7721.000000,47954.000000
12975.000000,12091.000000,7734.000000,47985.000000
13008.000000,12129.000000,7749.000000,47940.000000
13042.000000,12060.000000,7751.000000,47961.000000
13025.000000,12103.000000,7746.000000,47975.000000
13000.000000,12072.000000,7725.000000,47964.000000
13002.000000,12072.000000,7714.000000,47954.000000
13008.000000,12071.000000,7762.000000,47939.000000
13091.000000,12089.000000,7696.000000,48004.000000
13045.000000,12123.000000,7770.000000,47958.000000
13069.000000,12139.000000,7807.000000,47950.000000
13060.000000,12157.000000,7795.000000,48031.000000
13128.000000,12092.000000,7827.000000,48073.000000
13121.000000,12178.000000,7826.000000,48052.000000
13140.000000,12159.000000,7835.000000,48070.000000
13132.000000,12133.000000,7865.000000,48077.000000
13157.000000,12194.000000,7867.000000,48030.000000
13206.000000,12142.000000,7912.000000,48074.000000
13129.000000,12181.000000,7922.000000,48090.000000
13153.000000,12167.000000,7999.000000,48087.000000
13199.000000,12211.000000,7966.000000,48078.000000
13227.000000,12232.000000,8014.000000,48139.000000
13227.000000,12271.000000,8017.000000,48156.000000
13228.000000,12275.000000,8082.000000,48120.000000
13271.000000,12275.000000,8095.000000,48177.000000
13264.000000,12281.000000,8111.000000,48116.000000
13272.000000,12327.000000,8130.000000,48220.000000
13303.000000,12385.000000,8160.000000,48271.000000
13322.000000,12323.000000,8183.000000,48232.000000
13358.000000,12352.000000,8191.000000,48312.000000
13388.000000,12359.000000,8235.000000,48259.000000
13400.000000,12377.000000,8275.000000,48274.000000
13418.000000,12401.000000,8292.000000,48303.000000
13438.000000,12388.000000,8307.000000,48394.000000
13436.000000,12472.000000,8338.000000,48341.000000
13444.000000,12451.000000,8367.000000,48354.000000
13458.000000,12419.000000,8338.000000,48411.000000
13483.000000,12526.000000,8473.000000,48397.000000
13579.000000,12483.000000,8509.000000,48420.000000
13601.000000,12551.000000,8575.000000,48495.000000
13609.000000,12560.000000,8628.000000,48442.000000
13683.000000,12640.000000,8647.000000,48539.000000
13688.000000,12656.000000,8713.000000,48560.000000
13779.000000,12717.000000,8755.000000,48571.000000
13795.000000,12713.000000,8819.000000,48608.000000
13811.000000,12754.000000,8856.000000,48642.000000
13915.000000,12806.000000,8924.000000,48676.000000
13930.000000,12822.000000,9060.000000,48712.000000
13996.000000,12828.000000,9056.000000,48732.000000
13999.000000,12877.000000,9076.000000,48771.000000
14059.000000,12913.000000,9161.000000,48798.000000
14155.000000,12928.000000,9174.000000,48801.000000
14126.000000,12947.000000,9187.000000,48820.000000
14100.000000,12962.000000,9279.000000,48808.000000
14178.000000,12991.000000,9219.000000,48835.000000
14175.000000,12994.000000,9192.000000,48814.000000
14182.000000,12997.000000,9215.000000,48828.000000
14114.000000,13000.000000,9204.000000,48835.000000
14185.000000,12957.000000,9192.000000,48806.000000
14147.000000,12949.000000,9201.000000,48844.000000
14135.000000,12953.000000,9236.000000,48850.000000
14118.000000,12945.000000,9154.000000,48818.000000
14127.000000,12915.000000,9190.000000,48795.000000
14109.000000,12953.000000,9124.000000,48794.000000
14092.000000,12931.000000,9144.000000,48752.000000
14100.000000,12973.000000,9125.000000,48795.000000
14069.000000,12937.000000,9097.000000,48818.000000
14092.000000,12917.000000,9122.000000,48811.000000
14117.000000,12907.000000,9086.000000,48712.000000
14120.000000,12930.000000,9115.000000,48799.000000
14056.000000,12937.000000,9165.000000,48770.000000
14079.000000,12927.000000,9099.000000,48794.000000
14046.000000,12929.000000,9137.000000,48790.000000
14054.000000,12945.000000,9120.000000,48783.000000
14066.000000,12919.000000,9119.000000,48755.000000
14090.000000,12917.000000,9088.000000,48756.000000
14061.000000,12902.000000,9107.000000,48761.000000
14055.000000,12893.000000,9087.000000,48733.000000
14004.000000,12923.000000,9100.000000,48785.000000
14069.000000,12842.000000,9090.000000,48741.000000
14086.000000,12906.000000,9096.000000,48744.000000
14036.000000,12936.000000,9138.000000,48775.000000
14037.000000,12907.000000,9112.000000,48776.000000
14021.000000,12889.000000,9165.000000,48719.000000
14006.000000,12895.000000,9096.000000,48756.000000
14034.000000,12884.000000,9119.000000,48748.000000
13994.000000,12911.000000,9089.000000,48761.000000
14008.000000,12850.000000,9071.000000,48760.000000
14006.000000,12885.000000,9116.000000,48748.000000
14011.000000,12902.000000,9110.000000,48751.000000
14005.000000,12852.000000,9061.000000,48795.000000
14020.000000,12880.000000,9058.000000,48752.000000
13956.000000,12845.000000,9107.000000,48708.000000
13972.000000,12896.000000,9037.000000,48733.000000
13913.000000,12872.000000,9043.000000,48624.000000
13942.000000,12856.000000,9023.000000,48725.000000
13929.000000,12838.000000,8998.000000,48623.000000
13889.000000,12812.000000,8987.000000,48706.000000
13917.000000,12818.000000,8982.000000,48637.000000
14167.000000,12803.000000,8992.000000,48704.000000
13920.000000,12841.000000,8988.000000,48735.000000
13826.000000,12795.000000,8943.000000,48677.000000
13854.000000,12804.000000,8944.000000,48674.000000
13848.000000,12767.000000,8931.000000,48750.000000
13838.000000,12788.000000,8950.000000,48659.000000
13803.000000,12862.000000,8917.000000,48645.000000
13851.000000,12799.000000,8943.000000,48652.000000
13797.000000,12775.000000,8906.000000,48700.000000
13816.000000,12757.000000,8901.000000,48664.000000
13839.000000,12740.000000,8899.000000,48682.000000
13774.000000,12752.000000,8894.000000,48604.000000
13806.000000,12755.000000,8897.000000,48595.000000
13789.000000,12728.000000,8885.000000,48632.000000
13784.000000,12737.000000,8859.000000,48615.000000
13773.000000,12703.000000,8849.000000,48626.000000
13756.000000,12725.000000,8799.000000,48557.000000
13724.000000,12680.000000,8824.000000,48616.000000
13755.000000,12705.000000,8803.000000,48623.000000
13703.000000,12690.000000,8777.000000,48514.000000
13691.000000,12688.000000,8774.000000,48618.000000
13690.000000,12644.000000,8759.000000,48539.000000
13685.000000,12691.000000,8765.000000,48517.000000
13713.000000,12659.000000,8789.000000,48532.000000
13645.000000,12635.000000,8686.000000,48536.000000
13647.000000,12639.000000,8688.000000,48473.000000
13655.000000,12635.000000,8636.000000,48499.000000
13669.000000,12611.000000,8664.000000,48520.000000
13615.000000,12629.000000,8611.000000,48484.000000
13626.000000,12592.000000,8661.000000,48495.000000
13657.000000,12605.000000,8587.000000,48429.000000
13621.000000,12604.000000,8636.000000,48459.000000
13605.000000,12591.000000,8578.000000,48452.000000
13607.000000,12587.000000,8597.000000,48451.000000
13553.000000,12648.000000,8551.000000,48419.000000
13622.000000,12584.000000,8563.000000,48438.000000
13646.000000,12595.000000,8547.000000,48458.000000
13524.000000,12553.000000,8532.000000,48439.000000
13596.000000,12583.000000,8624.000000,48426.000000
13525.000000,12543.000000,8500.000000,48427.000000
13553.000000,12566.000000,8514.000000,48427.000000
13493.000000,12553.000000,8522.000000,48411.000000
13527.000000,12579.000000,8535.000000,48396.000000
13507.000000,12534.000000,8483.000000,48417.000000
13468.000000,12543.000000,8460.000000,48447.000000
13494.000000,12510.000000,8430.000000,48373.000000
13459.000000,12446.000000,8443.000000,48373.000000
13439.000000,12503.000000,8429.000000,48401.000000
13453.000000,12486.000000,8448.000000,48383.000000
13448.000000,12401.000000,8384.000000,48357.000000
13431.000000,12448.000000,8387.000000,48359.000000
13384.000000,12452.000000,8372.000000,48333.000000
13403.000000,12452.000000,8381.000000,48328.000000
13401.000000,12418.000000,8368.000000,48260.000000
13399.000000,12410.000000,8348.000000,48310.000000
13351.000000,12428.000000,8307.000000,48330.000000
13389.000000,12391.000000,8316.000000,48277.000000
13354.000000,12415.000000,8287.000000,48271.000000
13352.000000,12412.000000,8270.000000,48298.000000
13340.000000,12393.000000,8229.000000,48308.000000
13336.000000,12418.000000,8251.000000,48202.000000
13347.000000,12349.000000,8252.000000,48242.000000
13324.000000,12389.000000,8204.000000,48280.000000
13253.000000,12334.000000,8182.000000,48237.000000
13272.000000,12364.000000,8162.000000,48185.000000
13333.000000,12392.000000,8171.000000,48192.000000
13273.000000,12337.000000,8153.000000,48216.000000
13271.000000,12334.000000,8185.000000,48235.000000
13302.000000,12303.000000,8198.000000,48250.000000
13244.000000,12361.000000,8158.000000,48227.000000
13243.000000,12325.000000,8117.000000,48214.000000
13282.000000,12344.000000,8167.000000,48199.000000
13280.000000,12319.000000,8140.000000,48203.000000
13270.000000,12293.000000,8179.000000,48218.000000
13246.000000,12305.000000,8124.000000,48181.000000
13261.000000,12324.000000,8105.000000,48220.000000
13231.000000,12294.000000,8132.000000,48228.000000
13220.000000,12319.000000,8108.000000,48196.000000
13200.000000,12280.000000,8135.000000,48186.000000
13266.000000,12293.000000,8105.000000,48215.000000
13245.000000,12311.000000,8124.000000,48187.000000
13222.000000,12288.000000,8117.000000,48206.000000
13197.000000,12305.000000,8120.000000,48178.000000
13224.000000,12289.000000,8083.000000,48194.000000
13217.000000,12288.000000,8140.000000,48179.000000
13199.000000,12275.000000,8128.000000,48187.000000
13183.000000,12295.000000,8076.000000,48137.000000
13254.000000,12257.000000,8070.000000,48234.000000
13198.000000,12256.000000,8067.000000,48125.000000
13159.000000,12295.000000,8105.000000,48176.000000
13156.000000,12288.000000,8053.000000,48185.000000
13177.000000,12281.000000,8081.000000,48170.000000
13153.000000,12225.000000,8085.000000,48181.000000
13141.000000,12273.000000,8058.000000,48177.000000
13179.000000,12328.000000,8048.000000,48171.000000
13151.000000,12268.000000,8074.000000,48148.000000
13143.000000,12277.000000,8058.000000,48100.000000
13134.000000,12229.000000,8024.000000,48145.000000
13100.000000,12228.000000,8047.000000,48155.000000
13025.000000,12232.000000,8019.000000,48122.000000
13052.000000,12224.000000,7996.000000,48125.000000
13113.000000,12201.000000,8013.000000,48146.000000
13053.000000,12218.000000,7977.000000,48097.000000
13047.000000,12189.000000,7981.000000,48056.000000
13033.000000,12208.000000,8002.000000,48127.000000
13045.000000,12195.000000,7945.000000,48202.000000
13034.000000,12152.000000,7977.000000,48127.000000
12959.000000,12171.000000,8020.000000,48077.000000
13025.000000,12163.000000,7976.000000,48114.000000
13059.000000,12162.000000,7980.000000,48109.000000
13057.000000,12177.000000,7980.000000,48117.000000
13036.000000,12187.000000,7983.000000,48156.000000
13033.000000,12230.000000,7989.000000,48133.000000
13059.000000,12227.000000,7984.000000,48112.000000
13101.000000,12253.000000,8013.000000,48207.000000
13085.000000,12239.000000,8045.000000,48168.000000
13076.000000,12172.000000,8028.000000,48144.000000
13101.000000,12206.000000,8022.000000,48166.000000
13077.000000,12175.000000,8105.000000,48219.000000
13148.000000,12214.000000,8056.000000,48157.000000
13114.000000,12232.000000,8084.000000,48211.000000
13164.000000,12267.000000,8119.000000,48204.000000
13075.000000,12205.000000,8105.000000,48175.000000
13171.000000,12302.000000,8155.000000,48212.000000
13211.000000,12311.000000,8128.000000,48204.000000
13165.000000,12331.000000,8154.000000,48238.000000
13169.000000,12296.000000,8163.000000,48256.000000
13219.000000,12342.000000,8199.000000,48258.000000
13197.000000,12359.000000,8230.000000,48251.000000
13312.000000,12358.000000,8259.000000,48269.000000
13237.000000,12363.000000,8246.000000,48329.000000
13277.000000,12312.000000,8198.000000,48325.000000
13268.000000,12370.000000,8274.000000,48345.000000
13322.000000,12315.000000,8260.000000,48324.000000
13318.000000,12393.000000,8301.000000,48317.000000
13310.000000,12427.000000,8305.000000,48376.000000
13335.000000,12421.000000,8404.000000,48380.000000
13405.000000,12428.000000,8454.000000,48388.000000
13396.000000,12482.000000,8474.000000,48410.000000
13431.000000,12494.000000,8491.000000,48437.000000
13444.000000,12527.000000,8537.000000,48441.000000
13462.000000,12510.000000,8611.000000,48460.000000
13532.000000,12556.000000,8584.000000,48501.000000
13574.000000,12597.000000,8669.000000,48509.000000
13561.000000,12567.000000,8732.000000,48520.000000
13639.000000,12619.000000,8752.000000,48579.000000
13646.000000,12675.000000,8783.000000,48604.000000
13705.000000,12728.000000,8847.000000,48636.000000
13725.000000,12735.000000,8995.000000,48676.000000
13777.000000,12799.000000,8988.000000,48696.000000
13814.000000,12779.000000,8952.000000,48714.000000
13872.000000,12839.000000,9029.000000,48731.000000
13983.000000,12843.000000,9075.000000,48710.000000
13948.000000,12888.000000,9097.000000,48789.000000
13954.000000,12889.000000,9083.000000,48813.000000
14018.000000,12902.000000,9108.000000,48805.000000
14002.000000,12897.000000,9136.000000,48798.000000
14045.000000,12933.000000,9050.000000,48813.000000
13986.000000,12915.000000,9188.000000,48802.000000
14002.000000,12969.000000,9114.000000,48828.000000
13981.000000,12878.000000,9141.000000,48828.000000
13982.000000,12825.000000,9127.000000,48855.000000
14019.000000,12929.000000,9166.000000,48816.000000
13962.000000,12888.000000,9142.000000,48762.000000
13961.000000,12878.000000,9108.000000,48794.000000
13953.000000,12923.000000,9070.000000,48758.000000
13938.000000,12857.000000,9104.000000,48786.000000
13919.000000,12853.000000,9051.000000,48743.000000
13947.000000,12862.000000,9068.000000,48750.000000
13901.000000,12851.000000,9069.000000,48759.000000
13900.000000,12931.000000,9044.000000,48738.000000
13904.000000,12825.000000,9020.000000,48748.000000
13913.000000,12775.000000,8965.000000,48713.000000
13864.000000,12821.000000,8958.000000,48705.000000
13855.000000,12822.000000,8985.000000,48755.000000
13840.000000,12795.000000,8927.000000,48688.000000
13871.000000,12781.000000,8914.000000,48725.000000
13856.000000,12783.000000,8949.000000,48684.000000
13843.000000,12792.000000,8972.000000,48688.000000
13854.000000,12776.000000,8957.000000,48716.000000
13857.000000,12799.000000,8933.000000,48660.000000
13868.000000,12803.000000,8945.000000,48667.000000
13871.000000,12783.000000,8926.000000,48685.000000
13863.000000,12802.000000,8961.000000,48666.000000
13901.000000,12803.000000,8872.000000,48715.000000
13867.000000,12796.000000,8941.000000,48659.000000
13839.000000,12806.000000,8926.000000,48661.000000
13819.000000,12793.000000,8917.000000,48644.000000
13848.000000,12775.000000,8906.000000,48669.000000
13753.000000,12773.000000,8910.000000,48633.000000
13780.000000,12759.000000,8874.000000,48681.000000
13883.000000,12747.000000,8940.000000,48639.000000
13775.000000,12754.000000,8879.000000,48647.000000
13782.000000,12743.000000,8823.000000,48632.000000
13774.000000,12738.000000,8854.000000,48671.000000
13753.000000,12719.000000,8850.000000,48638.000000
13709.000000,12664.000000,8859.000000,48613.000000
13712.000000,12720.000000,8824.000000,48596.000000
13697.000000,12767.000000,8847.000000,48616.000000
13695.000000,12664.000000,8823.000000,48587.000000
13696.000000,12725.000000,8796.000000,48594.000000
13722.000000,12704.000000,8804.000000,48611.000000
13697.000000,12752.000000,8801.000000,48612.000000
13762.000000,12683.000000,8783.000000,48586.000000
13670.000000,12678.000000,8748.000000,48572.000000
13711.000000,12707.000000,8775.000000,48610.000000
13679.000000,12687.000000,8736.000000,48605.000000
13730.000000,12713.000000,8781.000000,48586.000000
13692.000000,12704.000000,8775.000000,48584.000000
13675.000000,12680.000000,8770.000000,48594.000000
13691.000000,12695.000000,8757.000000,48539.000000
13683.000000,12682.000000,8777.000000,48551.000000
13656.000000,12675.000000,8797.000000,48566.000000
13652.000000,12700.000000,8799.000000,48592.000000
13609.000000,12660.000000,8702.000000,48570.000000
13598.000000,12711.000000,8781.000000,48499.000000
13633.000000,12631.000000,8700.000000,48544.000000
13638.000000,12615.000000,8673.000000,48431.000000
13624.000000,12629.000000,8714.000000,48503.000000
13618.000000,12601.000000,8655.000000,48495.000000
13620.000000,12643.000000,8689.000000,48523.000000
13603.000000,12591.000000,8668.000000,48530.000000
13544.000000,12639.000000,8688.000000,48512.000000
13626.000000,12620.000000,8641.000000,48552.000000
13584.000000,12575.000000,8683.000000,48540.000000
13581.000000,12619.000000,8623.000000,48520.000000
13611.000000,12599.000000,8648.000000,48513.000000
13573.000000,12578.000000,8608.000000,48483.000000
13571.000000,12623.000000,8633.000000,48493.000000
13528.000000,12613.000000,8650.000000,48521.000000
13604.000000,12589.000000,8610.000000,48459.000000
13527.000000,12604.000000,8612.000000,48503.000000
13579.000000,12584.000000,8613.000000,48523.000000
13504.000000,12565.000000,8594.000000,48483.000000
13494.000000,12579.000000,8589.000000,48519.000000
13527.000000,12579.000000,8602.000000,48495.000000
13523.000000,12581.000000,8597.000000,48480.000000
13524.000000,12618.000000,8578.000000,48462.000000
13477.000000,12556.000000,8596.000000,48461.000000
13447.000000,12558.000000,8540.000000,48462.000000
13463.000000,12497.000000,8548.000000,48401.000000
13497.000000,12542.000000,8536.000000,48417.000000
13479.000000,12504.000000,8531.000000,48444.000000
13458.000000,12533.000000,8531.000000,48436.000000
13437.000000,12517.000000,8522.000000,48422.000000
13435.000000,12525.000000,8529.000000,48407.000000
13469.000000,12506.000000,8540.000000,48433.000000
13457.000000,12517.000000,8471.000000,48410.000000
13421.000000,12530.000000,8486.000000,48422.000000
13416.000000,12525.000000,8490.000000,48457.000000
13446.000000,12504.000000,8503.000000,48391.000000
13393.000000,12519.000000,8482.000000,48413.000000
13348.000000,12485.000000,8463.000000,48395.000000
13398.000000,12473.000000,8473.000000,48362.000000
13465.000000,12474.000000,8464.000000,48401.000000
13435.000000,12487.000000,8475.000000,48413.000000
13398.000000,12435.000000,8501.000000,48352.000000
13411.000000,12452.000000,8474.000000,48383.000000
13448.000000,12434.000000,8427.000000,48428.000000
13355.000000,12466.000000,8439.000000,48385.000000
13348.000000,12458.000000,8454.000000,48323.000000
13368.000000,12461.000000,8478.000000,48362.000000
13388.000000,12428.000000,8449.000000,48368.000000
13367.000000,12460.000000,8438.000000,48389.000000
13330.000000,12463.000000,8434.000000,48370.000000
13350.000000,12470.000000,8432.000000,48354.000000
13327.000000,12467.000000,8417.000000,48378.000000
13336.000000,12441.000000,8421.000000,48368.000000
13346.000000,12436.000000,8384.000000,48346.000000
13216.000000,12429.000000,8428.000000,48265.000000
13269.000000,12387.000000,8346.000000,48308.000000
13315.000000,12396.000000,8374.000000,48421.000000
13271.000000,12402.000000,8362.000000,48325.000000
13251.000000,12344.000000,8349.000000,48286.000000
13279.000000,12367.000000,8333.000000,48322.000000
13294.000000,12407.000000,8408.000000,48282.000000
13251.000000,12382.000000,8387.000000,48325.000000
13246.000000,12400.000000,8331.000000,48318.000000
13270.000000,12377.000000,8317.000000,48312.000000
13274.000000,12386.000000,8319.000000,48314.000000
13330.000000,12431.000000,8337.000000,48288.000000
13243.000000,12393.000000,8308.000000,48302.000000
13202.000000,12321.000000,8283.000000,48273.000000
13198.000000,12344.000000,8327.000000,48263.000000
13225.000000,12438.000000,8294.000000,48310.000000
13264.000000,12401.000000,8325.000000,48310.000000
13236.000000,12421.000000,8330.000000,48309.000000
13192.000000,12363.000000,8314.000000,48308.000000
13178.000000,12378.000000,8315.000000,48301.000000
13198.000000,12367.000000,8319.000000,48292.000000
13145.000000,12343.000000,8335.000000,48308.000000
13200.000000,12368.000000,8292.000000,48318.000000
13163.000000,12363.000000,8295.000000,48270.000000
13174.000000,12376.000000,8256.000000,48252.000000
13231.000000,12337.000000,8264.000000,48290.000000
13161.000000,12302.000000,8290.000000,48314.000000
13130.000000,12332.000000,8285.000000,48295.000000
13177.000000,12303.000000,8272.000000,48244.000000
13160.000000,12342.000000,8276.000000,48307.000000
13237.000000,12314.000000,8275.000000,48242.000000
13168.000000,12352.000000,8296.000000,48292.000000
13139.000000,12339.000000,8290.000000,48384.000000
13169.000000,12350.000000,8306.000000,48278.000000
13153.000000,12344.000000,8259.000000,48260.000000
13122.000000,12315.000000,8303.000000,48244.000000
13088.000000,12291.000000,8245.000000,48274.000000
13183.000000,12275.000000,8270.000000,48236.000000
13083.000000,12280.000000,8288.000000,48253.000000
13125.000000,12352.000000,8202.000000,48218.000000
13085.000000,12288.000000,8221.000000,48223.000000
13028.000000,12345.000000,8229.000000,48205.000000
13048.000000,12289.000000,8224.000000,48242.000000
13084.000000,12152.000000,8184.000000,48239.000000
13045.000000,12277.000000,8222.000000,48224.000000
13022.000000,12219.000000,8203.000000,48256.000000
13050.000000,12280.000000,8242.000000,48259.000000
13066.000000,12332.000000,8267.000000,48270.000000
13079.000000,12257.000000,8230.000000,48362.000000
13116.000000,12300.000000,8333.000000,48312.000000
13145.000000,12355.000000,8344.000000,48239.000000
13160.000000,12370.000000,8431.000000,48350.000000
13184.000000,12425.000000,8445.000000,48462.000000
13229.000000,12374.000000,8483.000000,48375.000000
13292.000000,12446.000000,8527.000000,48449.000000
13262.000000,12448.000000,8567.000000,48477.000000
13275.000000,12441.000000,8564.000000,48461.000000
13306.000000,12485.000000,8550.000000,48456.000000
13311.000000,12472.000000,8654.000000,48488.000000
13407.000000,12546.000000,8730.000000,48588.000000
13399.000000,12577.000000,8770.000000,48550.000000
13432.000000,12592.000000,8779.000000,48548.000000
13533.000000,12639.000000,8902.000000,48632.000000
13618.000000,12729.000000,9043.000000,48727.000000
13909.000000,12889.000000,9380.000000,48933.000000
13967.000000,12979.000000,9441.000000,48960.000000
13968.000000,13032.000000,9506.000000,48987.000000
14128.000000,13199.000000,9617.000000,49009.000000
14120.000000,13109.000000,9608.000000,49048.000000
14089.000000,13088.000000,9631.000000,49084.000000
14097.000000,13084.000000,9629.000000,49045.000000
14091.000000,13053.000000,9587.000000,48956.000000
14116.000000,13092.000000,9599.000000,49047.000000
14079.000000,13105.000000,9564.000000,49030.000000
14096.000000,13035.000000,9562.000000,49072.000000
14021.000000,13039.000000,9550.000000,48998.000000
14022.000000,13050.000000,9550.000000,49059.000000
14025.000000,13095.000000,9543.000000,49008.000000
14055.000000,13085.000000,9560.000000,49021.000000
14001.000000,13056.000000,9554.000000,49019.000000
14051.000000,13045.000000,9569.000000,49009.000000
13987.000000,13034.000000,9532.000000,48993.000000
14044.000000,13075.000000,9520.000000,49030.000000
14034.000000,13012.000000,9479.000000,48992.000000
13956.000000,13055.000000,9578.000000,48989.000000
13968.000000,13044.000000,9453.000000,48956.000000
13948.000000,13055.000000,9514.000000,49004.000000
13965.000000,12978.000000,9512.000000,48998.000000
13964.000000,13065.000000,9513.000000,49016.000000
13863.000000,13029.000000,9475.000000,48967.000000
13893.000000,12961.000000,9461.000000,48903.000000
13844.000000,12935.000000,9469.000000,48916.000000
13885.000000,12994.000000,9395.000000,48915.000000
13851.000000,12961.000000,9410.000000,48919.000000
13816.000000,12929.000000,9367.000000,48899.000000
13836.000000,12941.000000,9341.000000,48888.000000
13798.000000,12884.000000,9359.000000,48950.000000
13777.000000,12923.000000,9341.000000,48909.000000
13766.000000,12889.000000,9326.000000,48879.000000
13734.000000,12867.000000,9296.000000,48756.000000
13745.000000,12828.000000,9263.000000,48856.000000
13712.000000,12900.000000,9299.000000,48833.000000
13738.000000,12851.000000,9253.000000,48807.000000
13751.000000,12871.000000,9224.000000,48855.000000
13676.000000,12859.000000,9211.000000,48807.000000
13724.000000,12858.000000,9210.000000,48819.000000
13665.000000,12881.000000,9205.000000,48791.000000
13705.000000,12830.000000,9193.000000,48818.000000
13655.000000,12835.000000,9283.000000,48806.000000
13683.000000,12831.000000,9161.000000,48767.000000
13703.000000,12765.000000,9156.000000,48773.000000
13750.000000,12840.000000,9177.000000,48777.000000
13736.000000,12844.000000,9119.000000,48788.000000
13717.000000,12835.000000,9132.000000,48807.000000
13667.000000,12734.000000,9104.000000,48751.000000
13646.000000,12753.000000,9104.000000,48765.000000
13660.000000,12796.000000,9119.000000,48741.000000
13648.000000,12740.000000,9056.000000,48701.000000
13562.000000,12757.000000,9017.000000,48697.000000
13474.000000,12692.000000,9067.000000,48733.000000
13589.000000,12698.000000,9001.000000,48693.000000
13546.000000,12648.000000,8992.000000,48707.000000
13565.000000,12693.000000,9004.000000,48647.000000
13578.000000,12716.000000,8934.000000,48664.000000
13562.000000,12728.000000,8985.000000,48688.000000
13536.000000,12701.000000,8950.000000,48704.000000
13502.000000,12692.000000,8979.000000,48682.000000
13556.000000,12732.000000,8956.000000,48653.000000
13521.000000,12652.000000,8924.000000,48669.000000
13506.000000,12661.000000,8926.000000,48675.000000
13522.000000,12682.000000,8915.000000,48619.000000
13488.000000,12677.000000,8880.000000,48695.000000
13538.000000,12694.000000,8873.000000,48591.000000
13467.000000,12627.000000,8851.000000,48655.000000
13457.000000,12703.000000,8935.000000,48620.000000
13476.000000,12640.000000,8873.000000,48606.000000
13460.000000,12608.000000,8879.000000,48632.000000
13450.000000,12613.000000,8887.000000,48626.000000
13424.000000,12590.000000,8832.000000,48581.000000
13437.000000,12597.000000,8830.000000,48599.000000
13404.000000,12580.000000,8794.000000,48566.000000
13443.000000,12593.000000,8790.000000,48575.000000
13390.000000,12589.000000,8807.000000,48568.000000
13367.000000,12581.000000,8779.000000,48547.000000
13335.000000,12587.000000,8779.000000,48564.000000
13381.000000,12577.000000,8797.000000,48561.000000
13366.000000,12557.000000,8766.000000,48525.000000
13353.000000,12573.000000,8717.000000,48576.000000
13311.000000,12509.000000,8737.000000,48530.000000
13258.000000,12528.000000,8778.000000,48556.000000
13341.000000,12541.000000,8715.000000,48527.000000
13313.000000,12581.000000,8714.000000,48503.000000
13289.000000,12535.000000,8710.000000,48523.000000
13275.000000,12501.000000,8700.000000,48535.000000
13311.000000,12502.000000,8659.000000,48539.000000
13235.000000,12524.000000,8654.000000,48484.000000
13290.000000,12455.000000,8689.000000,48515.000000
13304.000000,12488.000000,8654.000000,48502.000000
13275.000000,12502.000000,8609.000000,48513.000000
13278.000000,12486.000000,8649.000000,48491.000000
13262.000000,12419.000000,8649.000000,48462.000000
13247.000000,12440.000000,8593.000000,48500.000000
13245.000000,12395.000000,8623.000000,48433.000000
13207.000000,12464.000000,8595.000000,48474.000000
13193.000000,12452.000000,8627.000000,48509.000000
13245.000000,12437.000000,8612.000000,48472.000000
13239.000000,12497.000000,8636.000000,48459.000000
13187.000000,12456.000000,8586.000000,48462.000000
13251.000000,12434.000000,8527.000000,48418.000000
13193.000000,12454.000000,8575.000000,48454.000000
13210.000000,12453.000000,8562.000000,48448.000000
13302.000000,12442.000000,8557.000000,48407.000000
13187.000000,12440.000000,8583.000000,48476.000000
13207.000000,12347.000000,8592.000000,48436.000000
13197.000000,12443.000000,8602.000000,48445.000000
13249.000000,12442.000000,8593.000000,48486.000000
13159.000000,12424.000000,8589.000000,48435.000000
13147.000000,12375.000000,8447.000000,48429.000000
13162.000000,12438.000000,8549.000000,48379.000000
13108.000000,12432.000000,8495.000000,48431.000000
13107.000000,12380.000000,8490.000000,48388.000000
13110.000000,12323.000000,8462.000000,48381.000000
13065.000000,12388.000000,8433.000000,48396.000000
13112.000000,12352.000000,8447.000000,48399.000000
13051.000000,12352.000000,8476.000000,48374.000000
13032.000000,12347.000000,8414.000000,48363.000000
13004.000000,12302.000000,8420.000000,48471.000000
13008.000000,12288.000000,8406.000000,48372.000000
12981.000000,12293.000000,8435.000000,48325.000000
12983.000000,12304.000000,8373.000000,48335.000000
12970.000000,12282.000000,8342.000000,48323.000000
13016.000000,12319.000000,8354.000000,48326.000000
13020.000000,12269.000000,8383.000000,48330.000000
13011.000000,12297.000000,8372.000000,48325.000000
13036.000000,12294.000000,8420.000000,48364.000000
13058.000000,12295.000000,8374.000000,48351.000000
13065.000000,12313.000000,8394.000000,48355.000000
13012.000000,12301.000000,8410.000000,48358.000000
13041.000000,12352.000000,8387.000000,48369.000000
13070.000000,12278.000000,8443.000000,48410.000000
13075.000000,12330.000000,8448.000000,48387.000000
13088.000000,12345.000000,8496.000000,48268.000000
13087.000000,12364.000000,8459.000000,48417.000000
13064.000000,12390.000000,8509.000000,48467.000000
13127.000000,12399.000000,8520.000000,48425.000000
13129.000000,12376.000000,8520.000000,48457.000000
13129.000000,12400.000000,8567.000000,48430.000000
13146.000000,12377.000000,8596.000000,48457.000000
13174.000000,12384.000000,8578.000000,48459.000000
13155.000000,12427.000000,8595.000000,48483.000000
13177.000000,12435.000000,8609.000000,48479.000000
13209.000000,12412.000000,8624.000000,48486.000000
13124.000000,12458.000000,8604.000000,48531.000000
13180.000000,12406.000000,8625.000000,48490.000000
13235.000000,12418.000000,8656.000000,48482.000000
13217.000000,12486.000000,8670.000000,48485.000000
13215.000000,12463.000000,8760.000000,48548.000000
13256.000000,12488.000000,8679.000000,48502.000000
13263.000000,12427.000000,8727.000000,48537.000000
13309.000000,12480.000000,8745.000000,48555.000000
13294.000000,12517.000000,8780.000000,48555.000000
13311.000000,12498.000000,8782.000000,48593.000000
13348.000000,12563.000000,8818.000000,48576.000000
13381.000000,12559.000000,8892.000000,48664.000000
13372.000000,12603.000000,8896.000000,48675.000000
13413.000000,12560.000000,8946.000000,48654.000000
13465.000000,12664.000000,8983.000000,48727.000000
13394.000000,12672.000000,8999.000000,48723.000000
13512.000000,12695.000000,9087.000000,48754.000000
13470.000000,12737.000000,9101.000000,48783.000000
13611.000000,12783.000000,9165.000000,48821.000000
13655.000000,12857.000000,9147.000000,48848.000000
13668.000000,12835.000000,9292.000000,48921.000000
13741.000000,12873.000000,9289.000000,48983.000000
13805.000000,12949.000000,9438.000000,48983.000000
13842.000000,13013.000000,9537.000000,48993.000000
13891.000000,12973.000000,9501.000000,49016.000000
13940.000000,13063.000000,9567.000000,49050.000000
13995.000000,13022.000000,9556.000000,49082.000000
13981.000000,13038.000000,9619.000000,49065.000000
14017.000000,13077.000000,9596.000000,49086.000000
14014.000000,13105.000000,9623.000000,49070.000000
14079.000000,13129.000000,9571.000000,49024.000000
14030.000000,13036.000000,9639.000000,49099.000000
14027.000000,13096.000000,9637.000000,49045.000000
14042.000000,13098.000000,9610.000000,49038.000000
14042.000000,13085.000000,9647.000000,49092.000000
14053.000000,13069.000000,9638.000000,49081.000000
14020.000000,13069.000000,9668.000000,49096.000000
13995.000000,13047.000000,9607.000000,49066.000000
14018.000000,13052.000000,9613.000000,49042.000000
14000.000000,13041.000000,9592.000000,49077.000000
13988.000000,13088.000000,9623.000000,49096.000000
13991.000000,13099.000000,9619.000000,49041.000000
13960.000000,13049.000000,9592.000000,49049.000000
13953.000000,12980.000000,9623.000000,49078.000000
13969.000000,13021.000000,9611.000000,49032.000000
13948.000000,13030.000000,9617.000000,49037.000000
13975.000000,13015.000000,9581.000000,49030.000000
13948.000000,13053.000000,9576.000000,49054.000000
13939.000000,13046.000000,9566.000000,49021.000000
13900.000000,12937.000000,9540.000000,49043.000000
13919.000000,13015.000000,9531.000000,49026.000000
13910.000000,12963.000000,9524.000000,49017.000000
13934.000000,13001.000000,9546.000000,49048.000000
13936.000000,12987.000000,9544.000000,49006.000000
13933.000000,13010.000000,9524.000000,48999.000000
13907.000000,13013.000000,9523.000000,48994.000000
13924.000000,13009.000000,9499.000000,49055.000000
13896.000000,12988.000000,9498.000000,49032.000000
13899.000000,12973.000000,9444.000000,48960.000000
13931.000000,12998.000000,9470.000000,49019.000000
13873.000000,12975.000000,9478.000000,49009.000000
13890.000000,13019.000000,9478.000000,48975.000000
13882.000000,12977.000000,9567.000000,48995.000000
13890.000000,13010.000000,9485.000000,48991.000000
13884.000000,12969.000000,9464.000000,48982.000000
13911.000000,13010.000000,9495.000000,48998.000000
13898.000000,12949.000000,9457.000000,49005.000000
13877.000000,12964.000000,9468.000000,48955.000000
13878.000000,12948.000000,9399.000000,48966.000000
