660nm,730nm,850nm,940nm
516.000000,9079.000000,4942.000000,43008.000000
539.000000,9049.000000,4915.000000,43062.000000
484.000000,9037.000000,4927.000000,43014.000000
532.000000,9095.000000,4889.000000,42977.000000
579.000000,9120.000000,4926.000000,43015.000000
536.000000,9071.000000,4896.000000,43018.000000
593.000000,9119.000000,4936.000000,43005.000000
552.000000,9123.000000,4909.000000,42979.000000
515.000000,9246.000000,4890.000000,43026.000000
576.000000,9120.000000,4916.000000,43035.000000
535.000000,9085.000000,4897.000000,43034.000000
600.000000,9123.000000,4890.000000,43025.000000
571.000000,9116.000000,4926.000000,43018.000000
573.000000,9101.000000,4972.000000,43028.000000
524.000000,9071.000000,4963.000000,43014.000000
540.000000,9123.000000,5012.000000,43013.000000
598.000000,9119.000000,4932.000000,43037.000000
576.000000,9089.000000,4968.000000,43081.000000
618.000000,9120.000000,4932.000000,43038.000000
591.000000,9165.000000,5029.000000,43057.000000
626.000000,9191.000000,5013.000000,43068.000000
641.000000,9160.000000,5170.000000,43078.000000
660.000000,9205.000000,5021.000000,43089.000000
693.000000,9199.000000,5107.000000,43132.000000
719.000000,9230.000000,5139.000000,43113.000000
770.000000,9091.000000,5107.000000,43106.000000
781.000000,9297.000000,5204.000000,43156.000000
842.000000,9300.000000,5259.000000,43149.000000
824.000000,9319.000000,5294.000000,43228.000000
918.000000,9361.000000,5330.000000,43193.000000
916.000000,9399.000000,5345.000000,43221.000000
973.000000,9395.000000,5394.000000,43259.000000
989.000000,9488.000000,5411.000000,43290.000000
1039.000000,9564.000000,5470.000000,43320.000000
1070.000000,9500.000000,5494.000000,43309.000000
1080.000000,9505.000000,5500.000000,43248.000000
1168.000000,9575.000000,5549.000000,43405.000000
1125.000000,9568.000000,5552.000000,43316.000000
1184.000000,9547.000000,5559.000000,43340.000000
1181.000000,9557.000000,5579.000000,43333.000000
1140.000000,9523.000000,5590.000000,43337.000000
1158.000000,9601.000000,5552.000000,43361.000000
1150.000000,9583.000000,5528.000000,43292.000000
1183.000000,9583.000000,5547.000000,43331.000000
1115.000000,9541.000000,5509.000000,43352.000000
1210.000000,9555.000000,5577.000000,43333.000000
1165.000000,9563.000000,5559.000000,43309.000000
1194.000000,9579.000000,5571.000000,43324.000000
1190.000000,9570.000000,5580.000000,43343.000000
1125.000000,9652.000000,5544.000000,43344.000000
1182.000000,9563.000000,5600.000000,43354.000000
1177.000000,9609.000000,5585.000000,43315.000000
1185.000000,9585.000000,5571.000000,43334.000000
1206.000000,9627.000000,5576.000000,43266.000000
1163.000000,9567.000000,5574.000000,43339.000000
1172.000000,9585.000000,5541.000000,43296.000000
1173.000000,9552.000000,5533.000000,43333.000000
1185.000000,9555.000000,5609.000000,43343.000000
1250.000000,9579.000000,5549.000000,43364.000000
1154.000000,9543.000000,5560.000000,43313.000000
1151.000000,9554.000000,5428.000000,43331.000000
1200.000000,9548.000000,5566.000000,43334.000000
1177.000000,9556.000000,5524.000000,43315.000000
1122.000000,9551.000000,5535.000000,43314.000000
1178.000000,9503.000000,5523.000000,43267.000000
1194.000000,9548.000000,5563.000000,43362.000000
1171.000000,9473.000000,5490.000000,43367.000000
1155.000000,9553.000000,5511.000000,43261.000000
1127.000000,9573.000000,5510.000000,43343.000000
1168.000000,9508.000000,5463.000000,43324.000000
1175.000000,9572.000000,5534.000000,43257.000000
1146.000000,9512.000000,5476.000000,43359.000000
1123.000000,9595.000000,5477.000000,43304.000000
1188.000000,9539.000000,5472.000000,43324.000000
1150.000000,9554.000000,5489.000000,43349.000000
1142.000000,9469.000000,5487.000000,43287.000000
1145.000000,9531.000000,5518.000000,43268.000000
1134.000000,9473.000000,5489.000000,43353.000000
1157.000000,9523.000000,5461.000000,43268.000000
1194.000000,9559.000000,5465.000000,43303.000000
1145.000000,9532.000000,5458.000000,43195.000000
1101.000000,9496.000000,5440.000000,43238.000000
1139.000000,9501.000000,5479.000000,43268.000000
1185.000000,9489.000000,5513.000000,43321.000000
1177.000000,9504.000000,5455.000000,43317.000000
1104.000000,9511.000000,5494.000000,43289.000000
1176.000000,9545.000000,5459.000000,43290.000000
1112.000000,9516.000000,5425.000000,43343.000000
1138.000000,9488.000000,5507.000000,43385.000000
1111.000000,9492.000000,5425.000000,43290.000000
1136.000000,9549.000000,5513.000000,43252.000000
1110.000000,9481.000000,5430.000000,43229.000000
1164.000000,9495.000000,5395.000000,43291.000000
1141.000000,9467.000000,5366.000000,43280.000000
994.000000,9519.000000,5389.000000,43274.000000
1146.000000,9481.000000,5405.000000,43267.000000
1128.000000,9503.000000,5361.000000,43315.000000
1143.000000,9499.000000,5404.000000,43280.000000
1114.000000,9474.000000,5383.000000,43270.000000
1077.000000,9468.000000,5396.000000,43284.000000
1104.000000,9485.000000,5365.000000,43199.000000
1039.000000,9477.000000,5361.000000,43209.000000
1114.000000,9455.000000,5378.000000,43246.000000
1102.000000,9432.000000,5369.000000,43175.000000
1041.000000,9398.000000,5335.000000,43276.000000
1042.000000,9424.000000,5341.000000,43224.000000
1066.000000,9449.000000,5324.000000,43250.000000
1052.000000,9363.000000,5302.000000,43250.000000
1020.000000,9418.000000,5258.000000,43194.000000
1037.000000,9459.000000,5310.000000,43195.000000
1052.000000,9405.000000,5298.000000,43233.000000
972.000000,9413.000000,5337.000000,43134.000000
1026.000000,9361.000000,5234.000000,43239.000000
1009.000000,9361.000000,5243.000000,43246.000000
1041.000000,9343.000000,5204.000000,43232.000000
999.000000,9309.000000,5187.000000,43164.000000
1011.000000,9380.000000,5172.000000,43143.000000
1006.000000,9348.000000,5280.000000,43225.000000
926.000000,9324.000000,5262.000000,43177.000000
1032.000000,9378.000000,5206.000000,43192.000000
1004.000000,9325.000000,5221.000000,43200.000000
978.000000,9318.000000,5186.000000,43177.000000
950.000000,9288.000000,5130.000000,43139.000000
996.000000,9331.000000,5151.000000,43208.000000
1012.000000,9399.000000,5175.000000,43169.000000
1020.000000,9340.000000,5169.000000,43150.000000
918.000000,9358.000000,5203.000000,43148.000000
983.000000,9311.000000,5166.000000,43192.000000
973.000000,9355.000000,5125.000000,43152.000000
956.000000,9278.000000,5133.000000,43112.000000
966.000000,9329.000000,5159.000000,43107.000000
984.000000,9318.000000,5156.000000,43068.000000
943.000000,9296.000000,5157.000000,43186.000000
1022.000000,9293.000000,5165.000000,43145.000000
964.000000,9293.000000,5140.000000,43166.000000
986.000000,9294.000000,5242.000000,43167.000000
990.000000,9331.000000,5141.000000,43248.000000
901.000000,9320.000000,5150.000000,43145.000000
960.000000,9303.000000,5183.000000,43169.000000
1020.000000,9286.000000,5147.000000,43159.000000
975.000000,9320.000000,5118.000000,43126.000000
1000.000000,9318.000000,5151.000000,43169.000000
935.000000,9272.000000,5098.000000,43148.000000
981.000000,9304.000000,5066.000000,43101.000000
941.000000,9267.000000,5097.000000,43133.000000
965.000000,9295.000000,5102.000000,43141.000000
867.000000,9253.000000,5109.000000,43178.000000
873.000000,9219.000000,5009.000000,43066.000000
878.000000,9246.000000,5035.000000,43127.000000
850.000000,9256.000000,4992.000000,43115.000000
862.000000,9152.000000,4998.000000,43027.000000
841.000000,9213.000000,4985.000000,43107.000000
872.000000,9145.000000,5046.000000,43030.000000
857.000000,9243.000000,4972.000000,43101.000000
884.000000,9218.000000,5051.000000,43056.000000
856.000000,9212.000000,4980.000000,43053.000000
855.000000,9174.000000,4986.000000,43086.000000
857.000000,9169.000000,4963.000000,43029.000000
848.000000,9215.000000,4956.000000,43077.000000
856.000000,9255.000000,4972.000000,43054.000000
821.000000,9194.000000,4996.000000,43075.000000
898.000000,9188.000000,4980.000000,43092.000000
903.000000,9233.000000,5016.000000,43112.000000
863.000000,9216.000000,5012.000000,43025.000000
856.000000,9192.000000,4964.000000,43086.000000
883.000000,9241.000000,5003.000000,43045.000000
876.000000,9223.000000,5005.000000,43070.000000
858.000000,9215.000000,5000.000000,43035.000000
882.000000,9223.000000,4980.000000,43091.000000
842.000000,9224.000000,4983.000000,43100.000000
900.000000,9234.000000,5030.000000,43108.000000
901.000000,9244.000000,5009.000000,43091.000000
908.000000,9249.000000,5078.000000,43060.000000
906.000000,9296.000000,5073.000000,43112.000000
910.000000,9210.000000,5027.000000,43259.000000
953.000000,9258.000000,5088.000000,43140.000000
989.000000,9285.000000,5139.000000,43142.000000
1063.000000,9318.000000,5146.000000,43142.000000
964.000000,9324.000000,5176.000000,43113.000000
1049.000000,9390.000000,5207.000000,43223.000000
1059.000000,9436.000000,5269.000000,43266.000000
1155.000000,9442.000000,5311.000000,43269.000000
1235.000000,9465.000000,5439.000000,43295.000000
1188.000000,9468.000000,5389.000000,43291.000000
1280.000000,9543.000000,5460.000000,43284.000000
1297.000000,9537.000000,5521.000000,43318.000000
1329.000000,9501.000000,5528.000000,43331.000000
1297.000000,9524.000000,5529.000000,43351.000000
1351.000000,9559.000000,5577.000000,43345.000000
1377.000000,9622.000000,5536.000000,43346.000000
1400.000000,9626.000000,5612.000000,43403.000000
1375.000000,9745.000000,5656.000000,43460.000000
1366.000000,9663.000000,5673.000000,43415.000000
1398.000000,9691.000000,5541.000000,43443.000000
1393.000000,9607.000000,5606.000000,43402.000000
1413.000000,9696.000000,5631.000000,43375.000000
1406.000000,9645.000000,5648.000000,43407.000000
1418.000000,9667.000000,5565.000000,43375.000000
1388.000000,9625.000000,5623.000000,43369.000000
1385.000000,9593.000000,5655.000000,43432.000000
1393.000000,9732.000000,5595.000000,43385.000000
1435.000000,9679.000000,5627.000000,43413.000000
1431.000000,9583.000000,5628.000000,43396.000000
1386.000000,9651.000000,5620.000000,43397.000000
1386.000000,9571.000000,5613.000000,43396.000000
1399.000000,9625.000000,5589.000000,43389.000000
1377.000000,9636.000000,5598.000000,43358.000000
1363.000000,9620.000000,5576.000000,43345.000000
1471.000000,9695.000000,5626.000000,43373.000000
1388.000000,9646.000000,5594.000000,43392.000000
1362.000000,9644.000000,5635.000000,43404.000000
1353.000000,9612.000000,5577.000000,43364.000000
1366.000000,9619.000000,5596.000000,43354.000000
1326.000000,9633.000000,5578.000000,43356.000000
1352.000000,9603.000000,5584.000000,43327.000000
1370.000000,9606.000000,5571.000000,43336.000000
1317.000000,9600.000000,5588.000000,43349.000000
1377.000000,9660.000000,5482.000000,43354.000000
1343.000000,9609.000000,5594.000000,43368.000000
1294.000000,9555.000000,5510.000000,43300.000000
1380.000000,9607.000000,5510.000000,43393.000000
1376.000000,9515.000000,5549.000000,43336.000000
1377.000000,9545.000000,5557.000000,43333.000000
1383.000000,9588.000000,5595.000000,43208.000000
1375.000000,9590.000000,5536.000000,43376.000000
1339.000000,9601.000000,5550.000000,43335.000000
1341.000000,9576.000000,5515.000000,43339.000000
1344.000000,9529.000000,5485.000000,43344.000000
1371.000000,9582.000000,5519.000000,43354.000000
1366.000000,9570.000000,5484.000000,43350.000000
1330.000000,9605.000000,5494.000000,43315.000000
1359.000000,9548.000000,5503.000000,43303.000000
1377.000000,9595.000000,5511.000000,43304.000000
1329.000000,9538.000000,5540.000000,43332.000000
1304.000000,9681.000000,5489.000000,43323.000000
1268.000000,9560.000000,5507.000000,43339.000000
1304.000000,9535.000000,5600.000000,43321.000000
1328.000000,9610.000000,5477.000000,43330.000000
1291.000000,9571.000000,5487.000000,43267.000000
1360.000000,9559.000000,5496.000000,43310.000000
1332.000000,9539.000000,5497.000000,43391.000000
1311.000000,9569.000000,5466.000000,43302.000000
1344.000000,9525.000000,5501.000000,43307.000000
1399.000000,9567.000000,5498.000000,43330.000000
1345.000000,9496.000000,5479.000000,43352.000000
1282.000000,9513.000000,5454.000000,43322.000000
1348.000000,9531.000000,5410.000000,43296.000000
1326.000000,9667.000000,5430.000000,43311.000000
1318.000000,9572.000000,5461.000000,43299.000000
1277.000000,9616.000000,5428.000000,43283.000000
1296.000000,9543.000000,5417.000000,43318.000000
1329.000000,9530.000000,5424.000000,43328.000000
1277.000000,9526.000000,5446.000000,43300.000000
1295.000000,9507.000000,5410.000000,43283.000000
1301.000000,9489.000000,5424.000000,43264.000000
1308.000000,9519.000000,5391.000000,43273.000000
1277.000000,9491.000000,5367.000000,43250.000000
1288.000000,9497.000000,5375.000000,43271.000000
1295.000000,9428.000000,5435.000000,43280.000000
1247.000000,9507.000000,5387.000000,43237.000000
1247.000000,9414.000000,5493.000000,43291.000000
1258.000000,9465.000000,5334.000000,43247.000000
1229.000000,9444.000000,5312.000000,43277.000000
1220.000000,9447.000000,5290.000000,43228.000000
1245.000000,9515.000000,5363.000000,43231.000000
1245.000000,9463.000000,5275.000000,43257.000000
1229.000000,9424.000000,5365.000000,43266.000000
1223.000000,9420.000000,5300.000000,43218.000000
1213.000000,9387.000000,5229.000000,43199.000000
1214.000000,9439.000000,5283.000000,43223.000000
1203.000000,9418.000000,5263.000000,43213.000000
1132.000000,9479.000000,5325.000000,43234.000000
1162.000000,9423.000000,5264.000000,43232.000000
1197.000000,9354.000000,5264.000000,43202.000000
1186.000000,9368.000000,5257.000000,43208.000000
1223.000000,9378.000000,5161.000000,43270.000000
1142.000000,9398.000000,5209.000000,43193.000000
1114.000000,9289.000000,5269.000000,43213.000000
1167.000000,9435.000000,5250.000000,43187.000000
1238.000000,9380.000000,5230.000000,43200.000000
1200.000000,9410.000000,5260.000000,43201.000000
1228.000000,9409.000000,5335.000000,43213.000000
1195.000000,9445.000000,5260.000000,43238.000000
1170.000000,9412.000000,5215.000000,43185.000000
1164.000000,9365.000000,5221.000000,43193.000000
1176.000000,9370.000000,5241.000000,43225.000000
1206.000000,9452.000000,5235.000000,43159.000000
1212.000000,9447.000000,5244.000000,43246.000000
1289.000000,9394.000000,5234.000000,43225.000000
1196.000000,9393.000000,5252.000000,43224.000000
1109.000000,9367.000000,5242.000000,43224.000000
1185.000000,9376.000000,5210.000000,43163.000000
1106.000000,9371.000000,5194.000000,43255.000000
1149.000000,9346.000000,5206.000000,43170.000000
1150.000000,9330.000000,5205.000000,43242.000000
1158.000000,9385.000000,5188.000000,43150.000000
1185.000000,9355.000000,5150.000000,43159.000000
1135.000000,9308.000000,5193.000000,43125.000000
1042.000000,9301.000000,5067.000000,43164.000000
1094.000000,9289.000000,5104.000000,43136.000000
1099.000000,9301.000000,5070.000000,43125.000000
1074.000000,9300.000000,5134.000000,43146.000000
1070.000000,9280.000000,5043.000000,43152.000000
1077.000000,9223.000000,5035.000000,43130.000000
1103.000000,9270.000000,5044.000000,43113.000000
1098.000000,9337.000000,5072.000000,43186.000000
1090.000000,9291.000000,5053.000000,43110.000000
1104.000000,9263.000000,4983.000000,43156.000000
1055.000000,9313.000000,5085.000000,43141.000000
1098.000000,9279.000000,5083.000000,43144.000000
1063.000000,9274.000000,5065.000000,43154.000000
1061.000000,9254.000000,5095.000000,43086.000000
1046.000000,9279.000000,5084.000000,43121.000000
1075.000000,9242.000000,5097.000000,43118.000000
1026.000000,9249.000000,5169.000000,43083.000000
1056.000000,9315.000000,5095.000000,43098.000000
1079.000000,9283.000000,5078.000000,43110.000000
1077.000000,9245.000000,5097.000000,43186.000000
1101.000000,9345.000000,5091.000000,43205.000000
1050.000000,9271.000000,5138.000000,43188.000000
1097.000000,9275.000000,5118.000000,43202.000000
1086.000000,9302.000000,5091.000000,43145.000000
1090.000000,9338.000000,5087.000000,43162.000000
1093.000000,9324.000000,5105.000000,43176.000000
1110.000000,9326.000000,5153.000000,43190.000000
1171.000000,9347.000000,5205.000000,43179.000000
1173.000000,9339.000000,5239.000000,43172.000000
1188.000000,9370.000000,5277.000000,43219.000000
1187.000000,9419.000000,5243.000000,43212.000000
1272.000000,9469.000000,5299.000000,43310.000000
1295.000000,9420.000000,5341.000000,43262.000000
1246.000000,9624.000000,5466.000000,43337.000000
1370.000000,9537.000000,5417.000000,43325.000000
1416.000000,9611.000000,5477.000000,43288.000000
1425.000000,9612.000000,5555.000000,43339.000000
1421.000000,9608.000000,5494.000000,43360.000000
1447.000000,9609.000000,5577.000000,43374.000000
1464.000000,9588.000000,5615.000000,43412.000000
1476.000000,9625.000000,5623.000000,43382.000000
1491.000000,9600.000000,5638.000000,43388.000000
1410.000000,9733.000000,5669.000000,43389.000000
1489.000000,9652.000000,5659.000000,43434.000000
1481.000000,9668.000000,5672.000000,43394.000000
1473.000000,9685.000000,5662.000000,43420.000000
1497.000000,9579.000000,5625.000000,43394.000000
1445.000000,9648.000000,5623.000000,43357.000000
1457.000000,9630.000000,5588.000000,43359.000000
1526.000000,9659.000000,5636.000000,43371.000000
1475.000000,9683.000000,5638.000000,43351.000000
1470.000000,9635.000000,5677.000000,43363.000000
1484.000000,9645.000000,5713.000000,43429.000000
1460.000000,9637.000000,5631.000000,43407.000000
1502.000000,9655.000000,5676.000000,43384.000000
1514.000000,9684.000000,5670.000000,43389.000000
1511.000000,9691.000000,5669.000000,43350.000000
1524.000000,9658.000000,5631.000000,43397.000000
1514.000000,9711.000000,5641.000000,43379.000000
1492.000000,9658.000000,5684.000000,43418.000000
1468.000000,9639.000000,5597.000000,43376.000000
1545.000000,9701.000000,5696.000000,43334.000000
1465.000000,9615.000000,5645.000000,43367.000000
1523.000000,9617.000000,5674.000000,43359.000000
1555.000000,9663.000000,5572.000000,43347.000000
1515.000000,9671.000000,5644.000000,43411.000000
1542.000000,9640.000000,5612.000000,43401.000000
1499.000000,9699.000000,5583.000000,43394.000000
1529.000000,9611.000000,5640.000000,43375.000000
1511.000000,9661.000000,5623.000000,43372.000000
1535.000000,9657.000000,5613.000000,43341.000000
1548.000000,9669.000000,5607.000000,43379.000000
1504.000000,9658.000000,5611.000000,43382.000000
1544.000000,9637.000000,5622.000000,43393.000000
1496.000000,9603.000000,5624.000000,43429.000000
1527.000000,9656.000000,5638.000000,43401.000000
1606.000000,9620.000000,5696.000000,43355.000000
1563.000000,9596.000000,5612.000000,43385.000000
1477.000000,9633.000000,5608.000000,43287.000000
1539.000000,9669.000000,5578.000000,43417.000000
1552.000000,9676.000000,5630.000000,43386.000000
1562.000000,9678.000000,5656.000000,43399.000000
1560.000000,9686.000000,5627.000000,43407.000000
1526.000000,9661.000000,5592.000000,43349.000000
1552.000000,9667.000000,5630.000000,43339.000000
1563.000000,9657.000000,5627.000000,43367.000000
1552.000000,9648.000000,5610.000000,43417.000000
1556.000000,9651.000000,5617.000000,43391.000000
1556.000000,9616.000000,5614.000000,43410.000000
1559.000000,9648.000000,5609.000000,43350.000000
1530.000000,9723.000000,5602.000000,43415.000000
1564.000000,9667.000000,5692.000000,43384.000000
1571.000000,9631.000000,5565.000000,43325.000000
1613.000000,9644.000000,5685.000000,43307.000000
1573.000000,9625.000000,5561.000000,43375.000000
1566.000000,9719.000000,5577.000000,43444.000000
1554.000000,9663.000000,5600.000000,43375.000000
1573.000000,9663.000000,5556.000000,43377.000000
1554.000000,9612.000000,5575.000000,43368.000000
1554.000000,9663.000000,5537.000000,43383.000000
1503.000000,9697.000000,5561.000000,43401.000000
1564.000000,9680.000000,5628.000000,43372.000000
1555.000000,9711.000000,5554.000000,43353.000000
1574.000000,9655.000000,5544.000000,43392.000000
1569.000000,9576.000000,5572.000000,43380.000000
1599.000000,9601.000000,5544.000000,43314.000000
1525.000000,9603.000000,5508.000000,43450.000000
1524.000000,9608.000000,5505.000000,43387.000000
1455.000000,9615.000000,5500.000000,43345.000000
1527.000000,9607.000000,5521.000000,43361.000000
1469.000000,9599.000000,5490.000000,43407.000000
1535.000000,9607.000000,5467.000000,43317.000000
1443.000000,9601.000000,5517.000000,43314.000000
1465.000000,9531.000000,5510.000000,43369.000000
1479.000000,9554.000000,5438.000000,43313.000000
1445.000000,9601.000000,5454.000000,43330.000000
1452.000000,9579.000000,5503.000000,43330.000000
1441.000000,9519.000000,5347.000000,43269.000000
1403.000000,9533.000000,5405.000000,43298.000000
1454.000000,9577.000000,5420.000000,43306.000000
1446.000000,9527.000000,5368.000000,43335.000000
1464.000000,9504.000000,5413.000000,43311.000000
1389.000000,9472.000000,5376.000000,43279.000000
1333.000000,9447.000000,5383.000000,43296.000000
1424.000000,9497.000000,5350.000000,43260.000000
1484.000000,9501.000000,5346.000000,43271.000000
1426.000000,9517.000000,5350.000000,43291.000000
1413.000000,9555.000000,5381.000000,43321.000000
1445.000000,9501.000000,5388.000000,43292.000000
1411.000000,9501.000000,5316.000000,43293.000000
1410.000000,9488.000000,5337.000000,43339.000000
1458.000000,9485.000000,5339.000000,43232.000000
1353.000000,9445.000000,5376.000000,43250.000000
1531.000000,9512.000000,5341.000000,43252.000000
1375.000000,9505.000000,5249.000000,43292.000000
1430.000000,9508.000000,5364.000000,43341.000000
1436.000000,9504.000000,5280.000000,43235.000000
1446.000000,9462.000000,5332.000000,43265.000000
1484.000000,9479.000000,5356.000000,43265.000000
1428.000000,9517.000000,5352.000000,43260.000000
1476.000000,9513.000000,5388.000000,43288.000000
1435.000000,9487.000000,5352.000000,43285.000000
1398.000000,9556.000000,5292.000000,43280.000000
1440.000000,9473.000000,5316.000000,43267.000000
1429.000000,9508.000000,5340.000000,43222.000000
1434.000000,9388.000000,5299.000000,43145.000000
1419.000000,9468.000000,5299.000000,43236.000000
1443.000000,9461.000000,5246.000000,43317.000000
1438.000000,9445.000000,5298.000000,43275.000000
1377.000000,9463.000000,5226.000000,43275.000000
1408.000000,9475.000000,5237.000000,43247.000000
1378.000000,9452.000000,5269.000000,43244.000000
1400.000000,9398.000000,5248.000000,43197.000000
1380.000000,9435.000000,5174.000000,43246.000000
1380.000000,9390.000000,5208.000000,43202.000000
1348.000000,9453.000000,5197.000000,43229.000000
1322.000000,9236.000000,5202.000000,43186.000000
1352.000000,9398.000000,5181.000000,43189.000000
1329.000000,9359.000000,5084.000000,43229.000000
1358.000000,9380.000000,5143.000000,43139.000000
1278.000000,9332.000000,5186.000000,43230.000000
1286.000000,9343.000000,5177.000000,43193.000000
1347.000000,9326.000000,5152.000000,43156.000000
1307.000000,9406.000000,5157.000000,43156.000000
1286.000000,9413.000000,5190.000000,43181.000000
1358.000000,9385.000000,5158.000000,43163.000000
1343.000000,9437.000000,5129.000000,43215.000000
1331.000000,9383.000000,5180.000000,43204.000000
1318.000000,9412.000000,5160.000000,43216.000000
1315.000000,9401.000000,5193.000000,43180.000000
1330.000000,9359.000000,5146.000000,43189.000000
1382.000000,9398.000000,5182.000000,43140.000000
1373.000000,9367.000000,5164.000000,43188.000000
1358.000000,9396.000000,5108.000000,43171.000000
1399.000000,9343.000000,5171.000000,43202.000000
1389.000000,9460.000000,5192.000000,43245.000000
1347.000000,9383.000000,5197.000000,43202.000000
1348.000000,9424.000000,5181.000000,43228.000000
1364.000000,9381.000000,5231.000000,43196.000000
1397.000000,9454.000000,5194.000000,43237.000000
1444.000000,9431.000000,5250.000000,43230.000000
1419.000000,9399.000000,5209.000000,43263.000000
1438.000000,9504.000000,5322.000000,43264.000000
1493.000000,9500.000000,5357.000000,43315.000000
1536.000000,9517.000000,5284.000000,43359.000000
1546.000000,9549.000000,5421.000000,43276.000000
1534.000000,9634.000000,5502.000000,43329.000000
1612.000000,9617.000000,5548.000000,43364.000000
1589.000000,9640.000000,5586.000000,43396.000000
1707.000000,9662.000000,5630.000000,43383.000000
1732.000000,9758.000000,5606.000000,43507.000000
1733.000000,9692.000000,5663.000000,43390.000000
1699.000000,9750.000000,5690.000000,43415.000000
1813.000000,9754.000000,5727.000000,43475.000000
1852.000000,9772.000000,5766.000000,43433.000000
1794.000000,9810.000000,5757.000000,43488.000000
1896.000000,9808.000000,5732.000000,43441.000000
1823.000000,10031.000000,5786.000000,43491.000000
1861.000000,9806.000000,5821.000000,43552.000000
1862.000000,9805.000000,5800.000000,43551.000000
1840.000000,9829.000000,5743.000000,43458.000000
1839.000000,9733.000000,5723.000000,43503.000000
1892.000000,9827.000000,5791.000000,43517.000000
1933.000000,9828.000000,5807.000000,43494.000000
1851.000000,9837.000000,5783.000000,43500.000000
1839.000000,9785.000000,5811.000000,43453.000000
1907.000000,9813.000000,5777.000000,43495.000000
1778.000000,9786.000000,5754.000000,43507.000000
1876.000000,9764.000000,5769.000000,43481.000000
1877.000000,9780.000000,5750.000000,43502.000000
1844.000000,9777.000000,5763.000000,43475.000000
1850.000000,9736.000000,5752.000000,43463.000000
1872.000000,9782.000000,5749.000000,43444.000000
1860.000000,9755.000000,5759.000000,43490.000000
1822.000000,9747.000000,5713.000000,43413.000000
1839.000000,9777.000000,5672.000000,43471.000000
1831.000000,9770.000000,5720.000000,43440.000000
1811.000000,9740.000000,5722.000000,43431.000000
1796.000000,9691.000000,5682.000000,43413.000000
1817.000000,9709.000000,5705.000000,43453.000000
1840.000000,9802.000000,5751.000000,43424.000000
1806.000000,10023.000000,5710.000000,43468.000000
1794.000000,9735.000000,5720.000000,43539.000000
1752.000000,9748.000000,5728.000000,43440.000000
1786.000000,9731.000000,5687.000000,43347.000000
1729.000000,9760.000000,5671.000000,43432.000000
1757.000000,9715.000000,5693.000000,43471.000000
1833.000000,9812.000000,5717.000000,43429.000000
1735.000000,9698.000000,5695.000000,43355.000000
1810.000000,9721.000000,5657.000000,43435.000000
1773.000000,9706.000000,5664.000000,43396.000000
1729.000000,9719.000000,5741.000000,43432.000000
1756.000000,9780.000000,5739.000000,43437.000000
1792.000000,9725.000000,5683.000000,43468.000000
1765.000000,9731.000000,5696.000000,43417.000000
1752.000000,9719.000000,5748.000000,43396.000000
2028.000000,9770.000000,5670.000000,43428.000000
1769.000000,9731.000000,5699.000000,43412.000000
1740.000000,9704.000000,5678.000000,43424.000000
1733.000000,9747.000000,5613.000000,43419.000000
1742.000000,9669.000000,5634.000000,43401.000000
1848.000000,9754.000000,5644.000000,43417.000000
1734.000000,9697.000000,5654.000000,43505.000000
1768.000000,9723.000000,5635.000000,43469.000000
1765.000000,9671.000000,5586.000000,43392.000000
1724.000000,9727.000000,5619.000000,43431.000000
1821.000000,9717.000000,5650.000000,43437.000000
1735.000000,9699.000000,5641.000000,43346.000000
1711.000000,9615.000000,5701.000000,43397.000000
1740.000000,9661.000000,5634.000000,43400.000000
1742.000000,9721.000000,5553.000000,43443.000000
1728.000000,9667.000000,5620.000000,43396.000000
1730.000000,9659.000000,5603.000000,43420.000000
1721.000000,9717.000000,5642.000000,43409.000000
1739.000000,9693.000000,5645.000000,43419.000000
1654.000000,9669.000000,5601.000000,43480.000000
1733.000000,9636.000000,5622.000000,43433.000000
1669.000000,9675.000000,5640.000000,43426.000000
1721.000000,9655.000000,5653.000000,43385.000000
1747.000000,9707.000000,5673.000000,43388.000000
1714.000000,9599.000000,5584.000000,43408.000000
1734.000000,9727.000000,5587.000000,43340.000000
1781.000000,9657.000000,5577.000000,43430.000000
1712.000000,9675.000000,5621.000000,43292.000000
1682.000000,9659.000000,5586.000000,43439.000000
1705.000000,9641.000000,5548.000000,43372.000000
1696.000000,9654.000000,5519.000000,43377.000000
1711.000000,9610.000000,5568.000000,43363.000000
1710.000000,9635.000000,5576.000000,43361.000000
1705.000000,9644.000000,5565.000000,43380.000000
1671.000000,9729.000000,5576.000000,43328.000000
1678.000000,9615.000000,5522.000000,43356.000000
1646.000000,9575.000000,5601.000000,43344.000000
1710.000000,9641.000000,5553.000000,43370.000000
1657.000000,9588.000000,5496.000000,43335.000000
1667.000000,9623.000000,5432.000000,43368.000000
1666.000000,9589.000000,5544.000000,43307.000000
1666.000000,9611.000000,5480.000000,43371.000000
1687.000000,9575.000000,5501.000000,43403.000000
1631.000000,9628.000000,5549.000000,43343.000000
1584.000000,9579.000000,5459.000000,43308.000000
1637.000000,9527.000000,5428.000000,43306.000000
1620.000000,9587.000000,5465.000000,43320.000000
1578.000000,9579.000000,5412.000000,43299.000000
1609.000000,9531.000000,5444.000000,43302.000000
1651.000000,9476.000000,5430.000000,43339.000000
1599.000000,9529.000000,5424.000000,43327.000000
1549.000000,9599.000000,5499.000000,43316.000000
1566.000000,9498.000000,5443.000000,43302.000000
1553.000000,9635.000000,5403.000000,43333.000000
1588.000000,9539.000000,5416.000000,43275.000000
1491.000000,9525.000000,5369.000000,43231.000000
1558.000000,9523.000000,5386.000000,43289.000000
1580.000000,9529.000000,5422.000000,43286.000000
1573.000000,9533.000000,5413.000000,43277.000000
1595.000000,9483.000000,5411.000000,43286.000000
1515.000000,9462.000000,5398.000000,43320.000000
1561.000000,9497.000000,5378.000000,43270.000000
1522.000000,9500.000000,5423.000000,43373.000000
1489.000000,9481.000000,5402.000000,43262.000000
1523.000000,9467.000000,5397.000000,43237.000000
1533.000000,9508.000000,5334.000000,43249.000000
1557.000000,9419.000000,5363.000000,43267.000000
1490.000000,9425.000000,5319.000000,43243.000000
1481.000000,9469.000000,5298.000000,43217.000000
1420.000000,9429.000000,5310.000000,43254.000000
1431.000000,9420.000000,5363.000000,43239.000000
1480.000000,9398.000000,5255.000000,43167.000000
1407.000000,9382.000000,5252.000000,43200.000000
1392.000000,9333.000000,5219.000000,43210.000000
1406.000000,9334.000000,5230.000000,43213.000000
1387.000000,9379.000000,5201.000000,43191.000000
1396.000000,9320.000000,5258.000000,43221.000000
1366.000000,9248.000000,5182.000000,43194.000000
1354.000000,9382.000000,5157.000000,43191.000000
1417.000000,9313.000000,5128.000000,43208.000000
1343.000000,9318.000000,5170.000000,43152.000000
1367.000000,9273.000000,5187.000000,43181.000000
1380.000000,9328.000000,5190.000000,43144.000000
1373.000000,9297.000000,5156.000000,43179.000000
1324.000000,9372.000000,5193.000000,43169.000000
1287.000000,9317.000000,5160.000000,43176.000000
1310.000000,9356.000000,5168.000000,43152.000000
1381.000000,9337.000000,5120.000000,43150.000000
1335.000000,9344.000000,5173.000000,43210.000000
1317.000000,9329.000000,5163.000000,43202.000000
1371.000000,9326.000000,5169.000000,43144.000000
1401.000000,9332.000000,5210.000000,43158.000000
1315.000000,9120.000000,5174.000000,43157.000000
1293.000000,9337.000000,5183.000000,43230.000000
1328.000000,9367.000000,5283.000000,43192.000000
1352.000000,9335.000000,5186.000000,43190.000000
1308.000000,9347.000000,5259.000000,43236.000000
1366.000000,9340.000000,5247.000000,43217.000000
1433.000000,9428.000000,5325.000000,43265.000000
1437.000000,9408.000000,5318.000000,43267.000000
1412.000000,9462.000000,5328.000000,43257.000000
1450.000000,9453.000000,5342.000000,43272.000000
1526.000000,9527.000000,5430.000000,43289.000000
1450.000000,9458.000000,5410.000000,43324.000000
1502.000000,9536.000000,5439.000000,43276.000000
1606.000000,9511.000000,5486.000000,43353.000000
1589.000000,9532.000000,5506.000000,43327.000000
1659.000000,9537.000000,5544.000000,43370.000000
1657.000000,9569.000000,5568.000000,43356.000000
1699.000000,9635.000000,5550.000000,43336.000000
1679.000000,9657.000000,5618.000000,43424.000000
1724.000000,9613.000000,5593.000000,43386.000000
1678.000000,9628.000000,5635.000000,43391.000000
1676.000000,9620.000000,5605.000000,43357.000000
1716.000000,9647.000000,5643.000000,43373.000000
1670.000000,9629.000000,5627.000000,43437.000000
1823.000000,9619.000000,5647.000000,43372.000000
1690.000000,9636.000000,5624.000000,43375.000000
1718.000000,9583.000000,5622.000000,43373.000000
1677.000000,9627.000000,5652.000000,43376.000000
1768.000000,9544.000000,5617.000000,43383.000000
1671.000000,9650.000000,5642.000000,43388.000000
1630.000000,9623.000000,5646.000000,43411.000000
1632.000000,9609.000000,5609.000000,43375.000000
1653.000000,9610.000000,5652.000000,43284.000000
1643.000000,9600.000000,5611.000000,43356.000000
1630.000000,9641.000000,5640.000000,43307.000000
1660.000000,9575.000000,5593.000000,43307.000000
1654.000000,9603.000000,5594.000000,43354.000000
1616.000000,9557.000000,5579.000000,43387.000000
1691.000000,9603.000000,5605.000000,43371.000000
1648.000000,9663.000000,5595.000000,43344.000000
1614.000000,9568.000000,5586.000000,43332.000000
1644.000000,9567.000000,5595.000000,43311.000000
1643.000000,9553.000000,5603.000000,43345.000000
1595.000000,9555.000000,5578.000000,43391.000000
1644.000000,9589.000000,5591.000000,43365.000000
1645.000000,9575.000000,5575.000000,43350.000000
1668.000000,9575.000000,5611.000000,43359.000000
1651.000000,9593.000000,5548.000000,43266.000000
1639.000000,9587.000000,5575.000000,43349.000000
1627.000000,9547.000000,5543.000000,43283.000000
1604.000000,9560.000000,5584.000000,43347.000000
1590.000000,9591.000000,5616.000000,43331.000000
1575.000000,9525.000000,5617.000000,43375.000000
1572.000000,9592.000000,5566.000000,43352.000000
1477.000000,9544.000000,5507.000000,43321.000000
1582.000000,9559.000000,5589.000000,43306.000000
1589.000000,9539.000000,5591.000000,43316.000000
1592.000000,9540.000000,5561.000000,43302.000000
1615.000000,9560.000000,5525.000000,43317.000000
1613.000000,9539.000000,5594.000000,43331.000000
1586.000000,9535.000000,5583.000000,43361.000000
1574.000000,9543.000000,5518.000000,43354.000000
1589.000000,9568.000000,5527.000000,43298.000000
1723.000000,9475.000000,5544.000000,43326.000000
1602.000000,9576.000000,5514.000000,43297.000000
1626.000000,9595.000000,5536.000000,43276.000000
1602.000000,9563.000000,5544.000000,43320.000000
1589.000000,9497.000000,5558.000000,43337.000000
1610.000000,9552.000000,5546.000000,43338.000000
1589.000000,9547.000000,5483.000000,43313.000000
1636.000000,9563.000000,5593.000000,43373.000000
1601.000000,9506.000000,5579.000000,43338.000000
1615.000000,9591.000000,5535.000000,43353.000000
1647.000000,9549.000000,5545.000000,43335.000000
1605.000000,9588.000000,5587.000000,43358.000000
1636.000000,9593.000000,5565.000000,43338.000000
1626.000000,9573.000000,5556.000000,43322.000000
1637.000000,9546.000000,5505.000000,43363.000000
1635.000000,9593.000000,5576.000000,43378.000000
1617.000000,9588.000000,5527.000000,43308.000000
1726.000000,9604.000000,5536.000000,43402.000000
1646.000000,9575.000000,5559.000000,43371.000000
1641.000000,9577.000000,5469.000000,43397.000000
1645.000000,9575.000000,5577.000000,43377.000000
1647.000000,9563.000000,5523.000000,43353.000000
1642.000000,9539.000000,5576.000000,43367.000000
1670.000000,9561.000000,5591.000000,43383.000000
1670.000000,9587.000000,5568.000000,43323.000000
1691.000000,9565.000000,5578.000000,43385.000000
1632.000000,9535.000000,5562.000000,43360.000000
1660.000000,9615.000000,5551.000000,43322.000000
1703.000000,9597.000000,5556.000000,43438.000000
1639.000000,9567.000000,5508.000000,43372.000000
1671.000000,9611.000000,5582.000000,43335.000000
1655.000000,9576.000000,5548.000000,43348.000000
1650.000000,9599.000000,5515.000000,43304.000000
1649.000000,9575.000000,5545.000000,43363.000000
1640.000000,9573.000000,5555.000000,43382.000000
1667.000000,9559.000000,5528.000000,43352.000000
1645.000000,9569.000000,5517.000000,43313.000000
1660.000000,9575.000000,5547.000000,43366.000000
1726.000000,9572.000000,5547.000000,43347.000000
1658.000000,9612.000000,5527.000000,43361.000000
1691.000000,9575.000000,5524.000000,43359.000000
1669.000000,9523.000000,5529.000000,43392.000000
1719.000000,9604.000000,5572.000000,43395.000000
1656.000000,9552.000000,5554.000000,43373.000000
1725.000000,9583.000000,5544.000000,43391.000000
1742.000000,9523.000000,5533.000000,43362.000000
1679.000000,9585.000000,5540.000000,43374.000000
1798.000000,9535.000000,5573.000000,43412.000000
1717.000000,9618.000000,5568.000000,43353.000000
1745.000000,9693.000000,5516.000000,43367.000000
1741.000000,9611.000000,5540.000000,43380.000000
1752.000000,9651.000000,5581.000000,43351.000000
1747.000000,9617.000000,5532.000000,43362.000000
1752.000000,9663.000000,5627.000000,43391.000000
1748.000000,9603.000000,5560.000000,43356.000000
1746.000000,9617.000000,5568.000000,43394.000000
1671.000000,9638.000000,5517.000000,43360.000000
1783.000000,9661.000000,5572.000000,43424.000000
1778.000000,9599.000000,5635.000000,43419.000000
1730.000000,9564.000000,5531.000000,43331.000000
1719.000000,9603.000000,5485.000000,43401.000000
1749.000000,9547.000000,5524.000000,43357.000000
1721.000000,9669.000000,5575.000000,43409.000000
1696.000000,9599.000000,5525.000000,43380.000000
1702.000000,9597.000000,5524.000000,43337.000000
1692.000000,9568.000000,5494.000000,43364.000000
1680.000000,9576.000000,5462.000000,43309.000000
1686.000000,9591.000000,5451.000000,43354.000000
1673.000000,9507.000000,5423.000000,43333.000000
1574.000000,9538.000000,5464.000000,43360.000000
1661.000000,9551.000000,5463.000000,43303.000000
1686.000000,9490.000000,5511.000000,43334.000000
1717.000000,9569.000000,5492.000000,43351.000000
1711.000000,9527.000000,5435.000000,43333.000000
1723.000000,9556.000000,5481.000000,43351.000000
1704.000000,9592.000000,5472.000000,43353.000000
1670.000000,9583.000000,5464.000000,43373.000000
1702.000000,9547.000000,5476.000000,43405.000000
1719.000000,9536.000000,5443.000000,43351.000000
1774.000000,9549.000000,5410.000000,43345.000000
1700.000000,9535.000000,5438.000000,43332.000000
1743.000000,9585.000000,5436.000000,43335.000000
1726.000000,9516.000000,5414.000000,43363.000000
1733.000000,9583.000000,5412.000000,43356.000000
1814.000000,9581.000000,5405.000000,43339.000000
1774.000000,9571.000000,5467.000000,43389.000000
1766.000000,9549.000000,5541.000000,43389.000000
1758.000000,9568.000000,5462.000000,43359.000000
1821.000000,9618.000000,5360.000000,43375.000000
1763.000000,9575.000000,5498.000000,43376.000000
1815.000000,9631.000000,5488.000000,43383.000000
1818.000000,9600.000000,5517.000000,43425.000000
1830.000000,9647.000000,5525.000000,43410.000000
1855.000000,9671.000000,5565.000000,43407.000000
1874.000000,9636.000000,5555.000000,43477.000000
1879.000000,9688.000000,5597.000000,43459.000000
1963.000000,9691.000000,5620.000000,43467.000000
1869.000000,9755.000000,5634.000000,43476.000000
2009.000000,9729.000000,5668.000000,43463.000000
2057.000000,9770.000000,5667.000000,43491.000000
2001.000000,9807.000000,5733.000000,43529.000000
2109.000000,10036.000000,5687.000000,43516.000000
2103.000000,9808.000000,5739.000000,43508.000000
2141.000000,9845.000000,5767.000000,43515.000000
2080.000000,9868.000000,5842.000000,43542.000000
2082.000000,9857.000000,5816.000000,43564.000000
2190.000000,9879.000000,5846.000000,43570.000000
2161.000000,9915.000000,5860.000000,43559.000000
2221.000000,9896.000000,5838.000000,43557.000000
2150.000000,9856.000000,5816.000000,43558.000000
2184.000000,9897.000000,5846.000000,43585.000000
2173.000000,9886.000000,5856.000000,43564.000000
2234.000000,9971.000000,5819.000000,43623.000000
2209.000000,9923.000000,5883.000000,43551.000000
2189.000000,9906.000000,5895.000000,43551.000000
2203.000000,9890.000000,5854.000000,43537.000000
2193.000000,9888.000000,5875.000000,43481.000000
2245.000000,9903.000000,5874.000000,43565.000000
2274.000000,9873.000000,5863.000000,43541.000000
2240.000000,9905.000000,5851.000000,43609.000000
2241.000000,9869.000000,5816.000000,43590.000000
2225.000000,9909.000000,5879.000000,43565.000000
2196.000000,9893.000000,5849.000000,43543.000000
2206.000000,9925.000000,5846.000000,43589.000000
2235.000000,9895.000000,5832.000000,43573.000000
2300.000000,9964.000000,5844.000000,43568.000000
2240.000000,9873.000000,5830.000000,43524.000000
2213.000000,9948.000000,5819.000000,43572.000000
2246.000000,9909.000000,5856.000000,43559.000000
2238.000000,10101.000000,5775.000000,43646.000000
2237.000000,9890.000000,5849.000000,43561.000000
2180.000000,9884.000000,5878.000000,43575.000000
2273.000000,9936.000000,5863.000000,43582.000000
2282.000000,9933.000000,5908.000000,43579.000000
2247.000000,9897.000000,5863.000000,43504.000000
2268.000000,9956.000000,5846.000000,43549.000000
2269.000000,9885.000000,5846.000000,43560.000000
2272.000000,9907.000000,5810.000000,43557.000000
2297.000000,9884.000000,5828.000000,43600.000000
2268.000000,9858.000000,5847.000000,43554.000000
2263.000000,9895.000000,5851.000000,43551.000000
2311.000000,9928.000000,5877.000000,43573.000000
2269.000000,9965.000000,5834.000000,43590.000000
2326.000000,9920.000000,5853.000000,43581.000000
2296.000000,9988.000000,5822.000000,43601.000000
2278.000000,9880.000000,5849.000000,43556.000000
2286.000000,9863.000000,5862.000000,43596.000000
2260.000000,9936.000000,5797.000000,43589.000000
2220.000000,9865.000000,5864.000000,43547.000000
2270.000000,9908.000000,5842.000000,43568.000000
2305.000000,9922.000000,5837.000000,43561.000000
2280.000000,9963.000000,5809.000000,43559.000000
2295.000000,9922.000000,5786.000000,43570.000000
2204.000000,9893.000000,5859.000000,43569.000000
2311.000000,9920.000000,5774.000000,43606.000000
2230.000000,10080.000000,5901.000000,43578.000000
2286.000000,9887.000000,5860.000000,43554.000000
2354.000000,9935.000000,5843.000000,43560.000000
2340.000000,9895.000000,5853.000000,43608.000000
2357.000000,9865.000000,5864.000000,43562.000000
2333.000000,9903.000000,5852.000000,43556.000000
2320.000000,9864.000000,5807.000000,43496.000000
2266.000000,9915.000000,5791.000000,43507.000000
2295.000000,9917.000000,5850.000000,43501.000000
2289.000000,9901.000000,5831.000000,43554.000000
2290.000000,9903.000000,5791.000000,43584.000000
2320.000000,9900.000000,5784.000000,43564.000000
2314.000000,9912.000000,5791.000000,43565.000000
2220.000000,9928.000000,5769.000000,43545.000000
2319.000000,9872.000000,5787.000000,43519.000000
2322.000000,9936.000000,5772.000000,43552.000000
2293.000000,9863.000000,5801.000000,43515.000000
2290.000000,9938.000000,5783.000000,43579.000000
2301.000000,9881.000000,5793.000000,43583.000000
2282.000000,9881.000000,5795.000000,43588.000000
2294.000000,9856.000000,5762.000000,43569.000000
2268.000000,9914.000000,5822.000000,43579.000000
2266.000000,9897.000000,5753.000000,43580.000000
2325.000000,9855.000000,5795.000000,43499.000000
2351.000000,9895.000000,5772.000000,43534.000000
2302.000000,9939.000000,5803.000000,43540.000000
2342.000000,9884.000000,5786.000000,43575.000000
2317.000000,9879.000000,5749.000000,43550.000000
2356.000000,9908.000000,5712.000000,43618.000000
2228.000000,9834.000000,5711.000000,43531.000000
2300.000000,9925.000000,5728.000000,43531.000000
2321.000000,9900.000000,5746.000000,43520.000000
2285.000000,9836.000000,5726.000000,43542.000000
2264.000000,9915.000000,5762.000000,43519.000000
2260.000000,9874.000000,5687.000000,43549.000000
2285.000000,9804.000000,5702.000000,43527.000000
2251.000000,9847.000000,5693.000000,43484.000000
2247.000000,9865.000000,5705.000000,43505.000000
2274.000000,9835.000000,5643.000000,43461.000000
2243.000000,9857.000000,5687.000000,43503.000000
2259.000000,9811.000000,5658.000000,43533.000000
2243.000000,9755.000000,5659.000000,43521.000000
2242.000000,9825.000000,5613.000000,43498.000000
2216.000000,9811.000000,5640.000000,43455.000000
2250.000000,9819.000000,5671.000000,43474.000000
2223.000000,9900.000000,5683.000000,43428.000000
2145.000000,9810.000000,5719.000000,43488.000000
2243.000000,9853.000000,5647.000000,43472.000000
2236.000000,9848.000000,5668.000000,43503.000000
2294.000000,9900.000000,5555.000000,43513.000000
2242.000000,9876.000000,5676.000000,43501.000000
2270.000000,9868.000000,5711.000000,43463.000000
2247.000000,9804.000000,5660.000000,43548.000000
2257.000000,9792.000000,5691.000000,43557.000000
2145.000000,9806.000000,5603.000000,43479.000000
2219.000000,9826.000000,5628.000000,43434.000000
2125.000000,9846.000000,5648.000000,43435.000000
2249.000000,9834.000000,5651.000000,43475.000000
2261.000000,9741.000000,5585.000000,43489.000000
2233.000000,9803.000000,5627.000000,43503.000000
2264.000000,9837.000000,5575.000000,43494.000000
2222.000000,9743.000000,5551.000000,43431.000000
2260.000000,9741.000000,5562.000000,43451.000000
2169.000000,9742.000000,5544.000000,43500.000000
2180.000000,9749.000000,5538.000000,43433.000000
2127.000000,9713.000000,5552.000000,43423.000000
2097.000000,9706.000000,5519.000000,43372.000000
2133.000000,9683.000000,5489.000000,43400.000000
2075.000000,9699.000000,5432.000000,43395.000000
2098.000000,9718.000000,5426.000000,43358.000000
2081.000000,9647.000000,5438.000000,43402.000000
2068.000000,9671.000000,5391.000000,43391.000000
2059.000000,9627.000000,5421.000000,43428.000000
2059.000000,9656.000000,5431.000000,43422.000000
2066.000000,9696.000000,5433.000000,43379.000000
2045.000000,9632.000000,5394.000000,43395.000000
2057.000000,9682.000000,5430.000000,43368.000000
2031.000000,9658.000000,5463.000000,43387.000000
2073.000000,9644.000000,5420.000000,43389.000000
2020.000000,9666.000000,5439.000000,43380.000000
2037.000000,9656.000000,5385.000000,43379.000000
1984.000000,9586.000000,5409.000000,43391.000000
2040.000000,9665.000000,5427.000000,43382.000000
2061.000000,9624.000000,5380.000000,43365.000000
2022.000000,9650.000000,5417.000000,43326.000000
2012.000000,9627.000000,5424.000000,43376.000000
2060.000000,9633.000000,5400.000000,43391.000000
2040.000000,9645.000000,5399.000000,43363.000000
2014.000000,9611.000000,5486.000000,43379.000000
2049.000000,9616.000000,5439.000000,43394.000000
2063.000000,9608.000000,5495.000000,43417.000000
2105.000000,9676.000000,5504.000000,43464.000000
2097.000000,9692.000000,5525.000000,43445.000000
2140.000000,9711.000000,5547.000000,43451.000000
2187.000000,9727.000000,5580.000000,43440.000000
2176.000000,9805.000000,5594.000000,43454.000000
2180.000000,9744.000000,5672.000000,43445.000000
2214.000000,9795.000000,5696.000000,43491.000000
2230.000000,9778.000000,5664.000000,43462.000000
2242.000000,9874.000000,5742.000000,43564.000000
2291.000000,9859.000000,5754.000000,43517.000000
2304.000000,9877.000000,5819.000000,43575.000000
2302.000000,9921.000000,5845.000000,43563.000000
2388.000000,9966.000000,5930.000000,43586.000000
2459.000000,9938.000000,5875.000000,43611.000000
2402.000000,9936.000000,5918.000000,43651.000000
2446.000000,9999.000000,5915.000000,43644.000000
2426.000000,9977.000000,5929.000000,43650.000000
2488.000000,9976.000000,5943.000000,43601.000000
2467.000000,9999.000000,5866.000000,43601.000000
2490.000000,9981.000000,5931.000000,43636.000000
2472.000000,9982.000000,5904.000000,43598.000000
2465.000000,10040.000000,5921.000000,43691.000000
2477.000000,9988.000000,5915.000000,43601.000000
2459.000000,10023.000000,5960.000000,43573.000000
2476.000000,9979.000000,5904.000000,43631.000000
2495.000000,9989.000000,5897.000000,43587.000000
2506.000000,10006.000000,5889.000000,43616.000000
2478.000000,9969.000000,5991.000000,43608.000000
2485.000000,9999.000000,5932.000000,43636.000000
2488.000000,9976.000000,5927.000000,43662.000000
2484.000000,9996.000000,5890.000000,43651.000000
2487.000000,9995.000000,5907.000000,43617.000000
2462.000000,10045.000000,5920.000000,43610.000000
2489.000000,9960.000000,5911.000000,43612.000000
2506.000000,9939.000000,5931.000000,43611.000000
2498.000000,9977.000000,5910.000000,43610.000000
2495.000000,9946.000000,5985.000000,43723.000000
2467.000000,9975.000000,5927.000000,43605.000000
2452.000000,10003.000000,5920.000000,43594.000000
2493.000000,9963.000000,5858.000000,43606.000000
2440.000000,9950.000000,5835.000000,43595.000000
2499.000000,9979.000000,5863.000000,43616.000000
2492.000000,10027.000000,5934.000000,43597.000000
2500.000000,9997.000000,5919.000000,43594.000000
2464.000000,9999.000000,5925.000000,43649.000000
2472.000000,9974.000000,5923.000000,43606.000000
2463.000000,9962.000000,5854.000000,43613.000000
2501.000000,9989.000000,5899.000000,43595.000000
2471.000000,10012.000000,5887.000000,43606.000000
2536.000000,10009.000000,5903.000000,43582.000000
2432.000000,10004.000000,5868.000000,43627.000000
2464.000000,10013.000000,5884.000000,43602.000000
2512.000000,9988.000000,5917.000000,43639.000000
2540.000000,9950.000000,5905.000000,43521.000000
2496.000000,9991.000000,5893.000000,43656.000000
2500.000000,10033.000000,5873.000000,43639.000000
2468.000000,9972.000000,5859.000000,43627.000000
2486.000000,9979.000000,5920.000000,43636.000000
2507.000000,9963.000000,5834.000000,43590.000000
2440.000000,9957.000000,5829.000000,43590.000000
2482.000000,9937.000000,5852.000000,43624.000000
2478.000000,9987.000000,5864.000000,43609.000000
2441.000000,9986.000000,5885.000000,43599.000000
2505.000000,9937.000000,5858.000000,43635.000000
2448.000000,9967.000000,5865.000000,43537.000000
2434.000000,9934.000000,5819.000000,43599.000000
2450.000000,9949.000000,5838.000000,43587.000000
2487.000000,9979.000000,5869.000000,43585.000000
2427.000000,9978.000000,5795.000000,43609.000000
2473.000000,9920.000000,5833.000000,43599.000000
2463.000000,10017.000000,5767.000000,43560.000000
2461.000000,9946.000000,5869.000000,43574.000000
2427.000000,9931.000000,5823.000000,43585.000000
2484.000000,9932.000000,5858.000000,43575.000000
2456.000000,9963.000000,5887.000000,43635.000000
2455.000000,9958.000000,5876.000000,43566.000000
2471.000000,9930.000000,5890.000000,43591.000000
2473.000000,9899.000000,5879.000000,43609.000000
2455.000000,9926.000000,5879.000000,43621.000000
2444.000000,9873.000000,5858.000000,43613.000000
2456.000000,9970.000000,5853.000000,43607.000000
2509.000000,9966.000000,5916.000000,43590.000000
2463.000000,9962.000000,5825.000000,43624.000000
2508.000000,10005.000000,5803.000000,43601.000000
2497.000000,9953.000000,5858.000000,43560.000000
2459.000000,9886.000000,5819.000000,43578.000000
2507.000000,9920.000000,5856.000000,43649.000000
2529.000000,9919.000000,5844.000000,43607.000000
2521.000000,9965.000000,5886.000000,43620.000000
2511.000000,9991.000000,5870.000000,43558.000000
2551.000000,9989.000000,5829.000000,43569.000000
2515.000000,9950.000000,5797.000000,43626.000000
2512.000000,9959.000000,5763.000000,43587.000000
2489.000000,9983.000000,5879.000000,43675.000000
2520.000000,9993.000000,5795.000000,43617.000000
2564.000000,9950.000000,5753.000000,43567.000000
2564.000000,10005.000000,5763.000000,43576.000000
2559.000000,9949.000000,5779.000000,43608.000000
2620.000000,10003.000000,5801.000000,43593.000000
2541.000000,9965.000000,5831.000000,43624.000000
2536.000000,9936.000000,5798.000000,43587.000000
2504.000000,9930.000000,5778.000000,43580.000000
2456.000000,9888.000000,5701.000000,43521.000000
2441.000000,9889.000000,5635.000000,43572.000000
2433.000000,9851.000000,5586.000000,43492.000000
2432.000000,9852.000000,5569.000000,43514.000000
2349.000000,9831.000000,5539.000000,43490.000000
2372.000000,9832.000000,5633.000000,43458.000000
2375.000000,9808.000000,5563.000000,43479.000000
2390.000000,9807.000000,5533.000000,43516.000000
2396.000000,9844.000000,5565.000000,43513.000000
2370.000000,9784.000000,5555.000000,43473.000000
2350.000000,9825.000000,5548.000000,43482.000000
2415.000000,9826.000000,5605.000000,43490.000000
2429.000000,9886.000000,5556.000000,43567.000000
2652.000000,9931.000000,5797.000000,43597.000000
2576.000000,9940.000000,5834.000000,43672.000000
2621.000000,9979.000000,5820.000000,43637.000000
2677.000000,10023.000000,5975.000000,43704.000000
2814.000000,10159.000000,6030.000000,43727.000000
2855.000000,10137.000000,6077.000000,43763.000000
2819.000000,10185.000000,6068.000000,43734.000000
2896.000000,10139.000000,6057.000000,43765.000000
2810.000000,10159.000000,6052.000000,43749.000000
2855.000000,10179.000000,6115.000000,43750.000000
2791.000000,10135.000000,6023.000000,43673.000000
2871.000000,10091.000000,6061.000000,43720.000000
2826.000000,10167.000000,6077.000000,43764.000000
2800.000000,10187.000000,6077.000000,43748.000000
2850.000000,10207.000000,6059.000000,43761.000000
2807.000000,10118.000000,6118.000000,43705.000000
2856.000000,10122.000000,6009.000000,43754.000000
2849.000000,10103.000000,6002.000000,43749.000000
2827.000000,10151.000000,6062.000000,43730.000000
2806.000000,10100.000000,6032.000000,43729.000000
2921.000000,10129.000000,5952.000000,43685.000000
2828.000000,10157.000000,6008.000000,43769.000000
2910.000000,10131.000000,5999.000000,43716.000000
2833.000000,10113.000000,6015.000000,43733.000000
2820.000000,10127.000000,5968.000000,43738.000000
2869.000000,10181.000000,6010.000000,43718.000000
2875.000000,10140.000000,6031.000000,43728.000000
2864.000000,10153.000000,6027.000000,43745.000000
2883.000000,10139.000000,5971.000000,43744.000000
2888.000000,10122.000000,6136.000000,43722.000000
2852.000000,10125.000000,6002.000000,43710.000000
2899.000000,10107.000000,5981.000000,43699.000000
2905.000000,10141.000000,6018.000000,43703.000000
2870.000000,10112.000000,5949.000000,43755.000000
2897.000000,10112.000000,5984.000000,43717.000000
2837.000000,10155.000000,5976.000000,43708.000000
2905.000000,10155.000000,5932.000000,43702.000000
2883.000000,10120.000000,5912.000000,43674.000000
2878.000000,10136.000000,5951.000000,43704.000000
2930.000000,10147.000000,5944.000000,43716.000000
2891.000000,10081.000000,5853.000000,43645.000000
2854.000000,10035.000000,5901.000000,43655.000000
2827.000000,10075.000000,5839.000000,43671.000000
2839.000000,10089.000000,5845.000000,43623.000000
2813.000000,10079.000000,5774.000000,43593.000000
2830.000000,10060.000000,5838.000000,43681.000000
2789.000000,10007.000000,5801.000000,43674.000000
2818.000000,9983.000000,5835.000000,43669.000000
2830.000000,10018.000000,5768.000000,43633.000000
2820.000000,10043.000000,5840.000000,43653.000000
2844.000000,10048.000000,5814.000000,43637.000000
2803.000000,10085.000000,5816.000000,43591.000000
2796.000000,10036.000000,5798.000000,43664.000000
2831.000000,10039.000000,5814.000000,43639.000000
2678.000000,9984.000000,5744.000000,43599.000000
2785.000000,9999.000000,5768.000000,43583.000000
2800.000000,9985.000000,5733.000000,43593.000000
2744.000000,9933.000000,5700.000000,43608.000000
2686.000000,9995.000000,5677.000000,43597.000000
2649.000000,9879.000000,5593.000000,43514.000000
2618.000000,9913.000000,5601.000000,43558.000000
2643.000000,9871.000000,5560.000000,43540.000000
2647.000000,9826.000000,5562.000000,43555.000000
2663.000000,9878.000000,5588.000000,43541.000000
2646.000000,10087.000000,5530.000000,43489.000000
2681.000000,9772.000000,5538.000000,43544.000000
2621.000000,9847.000000,5535.000000,43533.000000
2634.000000,9889.000000,5618.000000,43605.000000
2648.000000,9843.000000,5601.000000,43581.000000
2645.000000,9859.000000,5543.000000,43523.000000
2623.000000,9842.000000,5537.000000,43537.000000
2603.000000,9857.000000,5559.000000,43486.000000
2604.000000,9877.000000,5504.000000,43522.000000
2621.000000,9879.000000,5521.000000,43512.000000
2589.000000,9864.000000,5507.000000,43552.000000
2635.000000,9862.000000,5567.000000,43503.000000
2610.000000,9846.000000,5468.000000,43539.000000
2666.000000,9890.000000,5546.000000,43532.000000
2639.000000,9802.000000,5540.000000,43496.000000
2712.000000,9916.000000,5643.000000,43616.000000
2698.000000,9924.000000,5632.000000,43592.000000
2678.000000,9908.000000,5631.000000,43569.000000
2700.000000,9970.000000,5669.000000,43654.000000
2759.000000,9934.000000,5703.000000,43595.000000
2775.000000,9948.000000,5776.000000,43626.000000
2834.000000,10000.000000,5739.000000,43627.000000
2860.000000,10026.000000,5797.000000,43663.000000
2815.000000,10052.000000,5867.000000,43664.000000
2917.000000,10091.000000,5978.000000,43713.000000
2999.000000,10155.000000,5940.000000,43703.000000
2942.000000,10119.000000,5972.000000,43766.000000
3045.000000,10139.000000,6027.000000,43733.000000
3044.000000,10228.000000,6021.000000,43799.000000
3040.000000,10171.000000,6023.000000,43852.000000
3103.000000,10192.000000,6058.000000,43799.000000
3121.000000,10163.000000,6098.000000,43784.000000
3097.000000,10229.000000,6148.000000,43801.000000
3070.000000,10290.000000,6089.000000,43761.000000
3118.000000,10196.000000,6085.000000,43817.000000
3105.000000,10286.000000,6118.000000,43786.000000
3150.000000,10292.000000,6134.000000,43859.000000
3084.000000,10253.000000,6096.000000,43813.000000
3103.000000,10284.000000,6159.000000,43786.000000
3057.000000,10205.000000,6096.000000,43804.000000
2963.000000,10253.000000,6072.000000,43742.000000
3099.000000,10181.000000,6063.000000,43772.000000
3067.000000,10242.000000,6100.000000,43863.000000
3037.000000,10207.000000,6074.000000,43785.000000
3044.000000,10237.000000,6028.000000,43799.000000
3040.000000,10147.000000,6066.000000,43719.000000
3016.000000,10200.000000,6055.000000,43739.000000
2987.000000,10219.000000,5999.000000,43755.000000
3001.000000,10217.000000,6078.000000,43771.000000
2995.000000,10195.000000,5995.000000,43735.000000
3022.000000,10176.000000,6122.000000,43752.000000
3019.000000,10203.000000,6081.000000,43714.000000
3045.000000,10220.000000,6105.000000,43780.000000
3002.000000,10151.000000,6095.000000,43745.000000
3025.000000,10157.000000,6052.000000,43708.000000
3019.000000,10101.000000,5995.000000,43750.000000
3018.000000,10175.000000,6014.000000,43766.000000
2998.000000,10249.000000,6063.000000,43714.000000
2999.000000,10157.000000,6001.000000,43729.000000
2985.000000,10202.000000,6016.000000,43737.000000
3010.000000,10153.000000,6045.000000,43748.000000
2951.000000,10161.000000,5974.000000,43752.000000
2999.000000,10156.000000,6023.000000,43745.000000
3007.000000,10179.000000,6001.000000,43765.000000
3014.000000,10206.000000,6036.000000,43774.000000
3029.000000,10159.000000,6054.000000,43721.000000
3030.000000,10130.000000,6050.000000,43773.000000
3053.000000,10221.000000,6022.000000,43740.000000
3040.000000,10315.000000,6067.000000,43763.000000
3021.000000,10170.000000,5972.000000,43771.000000
3046.000000,10115.000000,6002.000000,43745.000000
3057.000000,10176.000000,6051.000000,43770.000000
3165.000000,10094.000000,6094.000000,43776.000000
3059.000000,10229.000000,6047.000000,43765.000000
3082.000000,10169.000000,6080.000000,43798.000000
3064.000000,10175.000000,6030.000000,43774.000000
3056.000000,10181.000000,5979.000000,43828.000000
3021.000000,10188.000000,6023.000000,43793.000000
3047.000000,10196.000000,5986.000000,43719.000000
2919.000000,10176.000000,6011.000000,43783.000000
3117.000000,10167.000000,5952.000000,43741.000000
3066.000000,10171.000000,5943.000000,43750.000000
3105.000000,10180.000000,5995.000000,43747.000000
3058.000000,10155.000000,6010.000000,43646.000000
3080.000000,10179.000000,5987.000000,43727.000000
3066.000000,10091.000000,6075.000000,43738.000000
3107.000000,10181.000000,5998.000000,43759.000000
3045.000000,10103.000000,5984.000000,43755.000000
3061.000000,10161.000000,5992.000000,43731.000000
3102.000000,10172.000000,6053.000000,43739.000000
3078.000000,10119.000000,6018.000000,43743.000000
3110.000000,10145.000000,5947.000000,43748.000000
3126.000000,10149.000000,5951.000000,43928.000000
3104.000000,10150.000000,5924.000000,43717.000000
3066.000000,10159.000000,5960.000000,43768.000000
3092.000000,10131.000000,5989.000000,43754.000000
3092.000000,10132.000000,5947.000000,43845.000000
3034.000000,10151.000000,5943.000000,43707.000000
3093.000000,10081.000000,5988.000000,43772.000000
3054.000000,10156.000000,5848.000000,43691.000000
3076.000000,10132.000000,5890.000000,43803.000000
3066.000000,10175.000000,5943.000000,43710.000000
3070.000000,10163.000000,5953.000000,43667.000000
3025.000000,10101.000000,5909.000000,43719.000000
3010.000000,10156.000000,5930.000000,43649.000000
3004.000000,10147.000000,5882.000000,43715.000000
3010.000000,10135.000000,5843.000000,43675.000000
3005.000000,10031.000000,5761.000000,43623.000000
3001.000000,10115.000000,5963.000000,43703.000000
2960.000000,10193.000000,5898.000000,43678.000000
2967.000000,10088.000000,5884.000000,43644.000000
3011.000000,10104.000000,5982.000000,43674.000000
2957.000000,10085.000000,5857.000000,43630.000000
2951.000000,9970.000000,5811.000000,43620.000000
2905.000000,10103.000000,5836.000000,43668.000000
3047.000000,10054.000000,5725.000000,43697.000000
2932.000000,10032.000000,5779.000000,43654.000000
2953.000000,10027.000000,5827.000000,43635.000000
2938.000000,10009.000000,5781.000000,43637.000000
2944.000000,10111.000000,5815.000000,43660.000000
2945.000000,10080.000000,5833.000000,43641.000000
2866.000000,10025.000000,5801.000000,43695.000000
2924.000000,9930.000000,5784.000000,43538.000000
2949.000000,10027.000000,5807.000000,43623.000000
2953.000000,10015.000000,5797.000000,43634.000000
2915.000000,10088.000000,5745.000000,43650.000000
2965.000000,9972.000000,5776.000000,43565.000000
2955.000000,10037.000000,5767.000000,43650.000000
3048.000000,10047.000000,5802.000000,43615.000000
2901.000000,10055.000000,5828.000000,43663.000000
2963.000000,10011.000000,5794.000000,43682.000000
2936.000000,10035.000000,5826.000000,43681.000000
2912.000000,10025.000000,5737.000000,43672.000000
2953.000000,10039.000000,5774.000000,43650.000000
2947.000000,10075.000000,5805.000000,43683.000000
2922.000000,10059.000000,5798.000000,43664.000000
2916.000000,10079.000000,5757.000000,43672.000000
2935.000000,10029.000000,5731.000000,43642.000000
2914.000000,9993.000000,5743.000000,43666.000000
2872.000000,10035.000000,5704.000000,43667.000000
2927.000000,9941.000000,5700.000000,43584.000000
2936.000000,9935.000000,5780.000000,43609.000000
2883.000000,10015.000000,5688.000000,43680.000000
2849.000000,9978.000000,5578.000000,43662.000000
2801.000000,9942.000000,5613.000000,43645.000000
2868.000000,9978.000000,5656.000000,43685.000000
2804.000000,9960.000000,5668.000000,43603.000000
2822.000000,9952.000000,5610.000000,43579.000000
2863.000000,9867.000000,5613.000000,43581.000000
2815.000000,9910.000000,5556.000000,43585.000000
2761.000000,9960.000000,5628.000000,43578.000000
2820.000000,9968.000000,5625.000000,43545.000000
2802.000000,9871.000000,5583.000000,43646.000000
2854.000000,9939.000000,5606.000000,43572.000000
2716.000000,10019.000000,5598.000000,43628.000000
2816.000000,9951.000000,5599.000000,43588.000000
3052.000000,9855.000000,5574.000000,43551.000000
2813.000000,9964.000000,5589.000000,43586.000000
2815.000000,9983.000000,5610.000000,43568.000000
2809.000000,9923.000000,5581.000000,43588.000000
2868.000000,9877.000000,5628.000000,43540.000000
2879.000000,9944.000000,5607.000000,43564.000000
2856.000000,9949.000000,5617.000000,43569.000000
2908.000000,9922.000000,5562.000000,43608.000000
2904.000000,9971.000000,5600.000000,43557.000000
2845.000000,9975.000000,5722.000000,43655.000000
2899.000000,9991.000000,5638.000000,43599.000000
2957.000000,10015.000000,5689.000000,43621.000000
2940.000000,10043.000000,5660.000000,43619.000000
2967.000000,9933.000000,5725.000000,43712.000000
3016.000000,10071.000000,5746.000000,43748.000000
2998.000000,10064.000000,5748.000000,43729.000000
3065.000000,10112.000000,5865.000000,43737.000000
3129.000000,10153.000000,5915.000000,43876.000000
3197.000000,10155.000000,5905.000000,43742.000000
3211.000000,10273.000000,6021.000000,43874.000000
3236.000000,10207.000000,6031.000000,43792.000000
3214.000000,10291.000000,5969.000000,43827.000000
3365.000000,10290.000000,6035.000000,43781.000000
3378.000000,10331.000000,6103.000000,43869.000000
3385.000000,10370.000000,6150.000000,43851.000000
3363.000000,10296.000000,6213.000000,43857.000000
3510.000000,10387.000000,6161.000000,43823.000000
3499.000000,10302.000000,6210.000000,43855.000000
3535.000000,10431.000000,6243.000000,43872.000000
3523.000000,10418.000000,6267.000000,43866.000000
3468.000000,10367.000000,6368.000000,43904.000000
3447.000000,10411.000000,6199.000000,43911.000000
3472.000000,10417.000000,6228.000000,43778.000000
3448.000000,10377.000000,6233.000000,43901.000000
3400.000000,10381.000000,6229.000000,43882.000000
3512.000000,10522.000000,6227.000000,43940.000000
3455.000000,10434.000000,6235.000000,43936.000000
3495.000000,10411.000000,6271.000000,43915.000000
3460.000000,10432.000000,6213.000000,43908.000000
3408.000000,10430.000000,6286.000000,43831.000000
3617.000000,10432.000000,6250.000000,43891.000000
3500.000000,10380.000000,6215.000000,43871.000000
3431.000000,10454.000000,6233.000000,43912.000000
3515.000000,10386.000000,6100.000000,43855.000000
3499.000000,10365.000000,6225.000000,43878.000000
3487.000000,10462.000000,6272.000000,44015.000000
3470.000000,10430.000000,6220.000000,43916.000000
3497.000000,10394.000000,6239.000000,43878.000000
3507.000000,10448.000000,6178.000000,43903.000000
3439.000000,10405.000000,6217.000000,43876.000000
3493.000000,10455.000000,6213.000000,43982.000000
3498.000000,10390.000000,6114.000000,43920.000000
3460.000000,10396.000000,6223.000000,43810.000000
3456.000000,10422.000000,6131.000000,43914.000000
3387.000000,10462.000000,6253.000000,43843.000000
3467.000000,10379.000000,6153.000000,43860.000000
3391.000000,10321.000000,6160.000000,43768.000000
3490.000000,10371.000000,6193.000000,43871.000000
3426.000000,10380.000000,6095.000000,43855.000000
3485.000000,10392.000000,6183.000000,43871.000000
3477.000000,10388.000000,6169.000000,43880.000000
3462.000000,10351.000000,6151.000000,43865.000000
3442.000000,10368.000000,6142.000000,43925.000000
3473.000000,10333.000000,6167.000000,43819.000000
3524.000000,10369.000000,6136.000000,43935.000000
3465.000000,10339.000000,6257.000000,43893.000000
3466.000000,10403.000000,6138.000000,43894.000000
3524.000000,10315.000000,6130.000000,43800.000000
3483.000000,10340.000000,6141.000000,43827.000000
3489.000000,10434.000000,6213.000000,43963.000000
3436.000000,10374.000000,6131.000000,43897.000000
3548.000000,10335.000000,6074.000000,43918.000000
3468.000000,10374.000000,6162.000000,43848.000000
3518.000000,10409.000000,6074.000000,43808.000000
3490.000000,10360.000000,6169.000000,43851.000000
3448.000000,10346.000000,6126.000000,43820.000000
3491.000000,10375.000000,6162.000000,43818.000000
3505.000000,10398.000000,6162.000000,43897.000000
3409.000000,10342.000000,6076.000000,43881.000000
3417.000000,10364.000000,6070.000000,43805.000000
3504.000000,10279.000000,6107.000000,43773.000000
3412.000000,10319.000000,6094.000000,43865.000000
3524.000000,10455.000000,6048.000000,43794.000000
3482.000000,10327.000000,6108.000000,43821.000000
3544.000000,10342.000000,5960.000000,43860.000000
3459.000000,10299.000000,6083.000000,43790.000000
3390.000000,10253.000000,6163.000000,43855.000000
3412.000000,10270.000000,6024.000000,43868.000000
3483.000000,10352.000000,6127.000000,43862.000000
3459.000000,10317.000000,6090.000000,43870.000000
3490.000000,10315.000000,5992.000000,43833.000000
3491.000000,10292.000000,6073.000000,43822.000000
3401.000000,10290.000000,6049.000000,43810.000000
3452.000000,10297.000000,5981.000000,43829.000000
3424.000000,10293.000000,6060.000000,43813.000000
3405.000000,10289.000000,5970.000000,43708.000000
3373.000000,10305.000000,5989.000000,43815.000000
3390.000000,10275.000000,5926.000000,43689.000000
3372.000000,10271.000000,5976.000000,43757.000000
3431.000000,10277.000000,5943.000000,43740.000000
3393.000000,10243.000000,5969.000000,43779.000000
3361.000000,10203.000000,5962.000000,43737.000000
3393.000000,10210.000000,5956.000000,43730.000000
3386.000000,10207.000000,5923.000000,43802.000000
3398.000000,10197.000000,5880.000000,43752.000000
3336.000000,10208.000000,5864.000000,43749.000000
3328.000000,10181.000000,5865.000000,43787.000000
3314.000000,10331.000000,5883.000000,43777.000000
3551.000000,10203.000000,5896.000000,43770.000000
3303.000000,10265.000000,5870.000000,43777.000000
3281.000000,10248.000000,5910.000000,43794.000000
3330.000000,10156.000000,5900.000000,43714.000000
3234.000000,10300.000000,5902.000000,43750.000000
3297.000000,10183.000000,5856.000000,43738.000000
3308.000000,10205.000000,5823.000000,43738.000000
3359.000000,10155.000000,5831.000000,43694.000000
3308.000000,10109.000000,5855.000000,43681.000000
3335.000000,10160.000000,5863.000000,43741.000000
3355.000000,10138.000000,5810.000000,43699.000000
3454.000000,10167.000000,5836.000000,43730.000000
3330.000000,10104.000000,5847.000000,43703.000000
3438.000000,10247.000000,5936.000000,43716.000000
3340.000000,10250.000000,5821.000000,43749.000000
3354.000000,10084.000000,5741.000000,43689.000000
3322.000000,10177.000000,5805.000000,43759.000000
3377.000000,10181.000000,5822.000000,43576.000000
3363.000000,10176.000000,5742.000000,43734.000000
3352.000000,10247.000000,5857.000000,43760.000000
3423.000000,10214.000000,5816.000000,43744.000000
3326.000000,10173.000000,5778.000000,43641.000000
3360.000000,10193.000000,5807.000000,43712.000000
3329.000000,10157.000000,5828.000000,43694.000000
3323.000000,10143.000000,5751.000000,43732.000000
3302.000000,10135.000000,5782.000000,43706.000000
3314.000000,10160.000000,5853.000000,43690.000000
3352.000000,10168.000000,5783.000000,43741.000000
3332.000000,10147.000000,5682.000000,43779.000000
3268.000000,10091.000000,5749.000000,43711.000000
3255.000000,10109.000000,5671.000000,43574.000000
3250.000000,10075.000000,5692.000000,43683.000000
3284.000000,10115.000000,5550.000000,43499.000000
3249.000000,10049.000000,5681.000000,43684.000000
3312.000000,10128.000000,5658.000000,43613.000000
3259.000000,10083.000000,5681.000000,43665.000000
3243.000000,10058.000000,5587.000000,43610.000000
3238.000000,10041.000000,5644.000000,43612.000000
3217.000000,10051.000000,5608.000000,43653.000000
3211.000000,10064.000000,5649.000000,43644.000000
3237.000000,9936.000000,5587.000000,43614.000000
3209.000000,10065.000000,5625.000000,43713.000000
3216.000000,10028.000000,5585.000000,43620.000000
3399.000000,10047.000000,5633.000000,43655.000000
3216.000000,10055.000000,5622.000000,43613.000000
3350.000000,10050.000000,5607.000000,43593.000000
3209.000000,10071.000000,5592.000000,43651.000000
3272.000000,10025.000000,5623.000000,43702.000000
3204.000000,10060.000000,5644.000000,43665.000000
3210.000000,10023.000000,5648.000000,43659.000000
3199.000000,10047.000000,5648.000000,43638.000000
3236.000000,10075.000000,5629.000000,43623.000000
3226.000000,9977.000000,5764.000000,43759.000000
3285.000000,10110.000000,5707.000000,43670.000000
3316.000000,10058.000000,5644.000000,43758.000000
3335.000000,10092.000000,5751.000000,43691.000000
3366.000000,10189.000000,5759.000000,43747.000000
3439.000000,10228.000000,5874.000000,43745.000000
3570.000000,10289.000000,6089.000000,43857.000000
3625.000000,10371.000000,6134.000000,43885.000000
3584.000000,10424.000000,6165.000000,43878.000000
3749.000000,10436.000000,6217.000000,43932.000000
3680.000000,10452.000000,6172.000000,43915.000000
3753.000000,10457.000000,6259.000000,43985.000000
3787.000000,10488.000000,6237.000000,43928.000000
3783.000000,10515.000000,6389.000000,44017.000000
3752.000000,10452.000000,6211.000000,43946.000000
3757.000000,10562.000000,6342.000000,43935.000000
3754.000000,10427.000000,6303.000000,43913.000000
3803.000000,10473.000000,6296.000000,43792.000000
4009.000000,10425.000000,6271.000000,43902.000000
3774.000000,10500.000000,6265.000000,44009.000000
3729.000000,10455.000000,6223.000000,43940.000000
3714.000000,10448.000000,6271.000000,43887.000000
3672.000000,10454.000000,6268.000000,43944.000000
3726.000000,10528.000000,6276.000000,43990.000000
3734.000000,10465.000000,6225.000000,43986.000000
3750.000000,10461.000000,6248.000000,43941.000000
3753.000000,10487.000000,6256.000000,43903.000000
3733.000000,10530.000000,6230.000000,43908.000000
3696.000000,10527.000000,6196.000000,43857.000000
3724.000000,10471.000000,6230.000000,43936.000000
3692.000000,10442.000000,6221.000000,43939.000000
3729.000000,10433.000000,6240.000000,43931.000000
3721.000000,10500.000000,6189.000000,43906.000000
3714.000000,10455.000000,6226.000000,43901.000000
3675.000000,10446.000000,6224.000000,43902.000000
3695.000000,10439.000000,6247.000000,43881.000000
3684.000000,10414.000000,6261.000000,43891.000000
3714.000000,10380.000000,6242.000000,43822.000000
3600.000000,10385.000000,6164.000000,43879.000000
3610.000000,10396.000000,6123.000000,43916.000000
3679.000000,10384.000000,6222.000000,43890.000000
3638.000000,10344.000000,6168.000000,43898.000000
3661.000000,10365.000000,6136.000000,43895.000000
3557.000000,10488.000000,6078.000000,43899.000000
3631.000000,10374.000000,6117.000000,43866.000000
3611.000000,10415.000000,6139.000000,43887.000000
3656.000000,10373.000000,6142.000000,43862.000000
3660.000000,10374.000000,6106.000000,43877.000000
3715.000000,10424.000000,6121.000000,43878.000000
3623.000000,10413.000000,6143.000000,43903.000000
3669.000000,10351.000000,6180.000000,43858.000000
3683.000000,10345.000000,6109.000000,43870.000000
3631.000000,10401.000000,6069.000000,43898.000000
3621.000000,10344.000000,6132.000000,43848.000000
3680.000000,10353.000000,6127.000000,43783.000000
3629.000000,10380.000000,6144.000000,43872.000000
3610.000000,10460.000000,6117.000000,43839.000000
3612.000000,10407.000000,6144.000000,43839.000000
3578.000000,10294.000000,6141.000000,43758.000000
3627.000000,10369.000000,6107.000000,43840.000000
3624.000000,10332.000000,6044.000000,43825.000000
3574.000000,10322.000000,6183.000000,43856.000000
3584.000000,10338.000000,6031.000000,43831.000000
3625.000000,10387.000000,5917.000000,43783.000000
3550.000000,10357.000000,6089.000000,43818.000000
3579.000000,10334.000000,6041.000000,43862.000000
3595.000000,10359.000000,6078.000000,43891.000000
3687.000000,10304.000000,6049.000000,43743.000000
3655.000000,10251.000000,6031.000000,43823.000000
3312.000000,10357.000000,6084.000000,43842.000000
3515.000000,10286.000000,5978.000000,43876.000000
3522.000000,10269.000000,5867.000000,43765.000000
3608.000000,10246.000000,6012.000000,43818.000000
3543.000000,10343.000000,6070.000000,43790.000000
3511.000000,10326.000000,6024.000000,43767.000000
3519.000000,10232.000000,5932.000000,43810.000000
3505.000000,10281.000000,5980.000000,43816.000000
3472.000000,10161.000000,5954.000000,43797.000000
3441.000000,10248.000000,5944.000000,43869.000000
3502.000000,10269.000000,5932.000000,43743.000000
3489.000000,10199.000000,5979.000000,43760.000000
3432.000000,10224.000000,5962.000000,43737.000000
3455.000000,10235.000000,5993.000000,43757.000000
3433.000000,10259.000000,5897.000000,43733.000000
3451.000000,10178.000000,5848.000000,43708.000000
3462.000000,10239.000000,5887.000000,43766.000000
3403.000000,10213.000000,5855.000000,43729.000000
3475.000000,10225.000000,5912.000000,43774.000000
3479.000000,10217.000000,5953.000000,43740.000000
3463.000000,10200.000000,5891.000000,43715.000000
3431.000000,10174.000000,5904.000000,43766.000000
3440.000000,10144.000000,5855.000000,43844.000000
3447.000000,10067.000000,5929.000000,43740.000000
3383.000000,10155.000000,5763.000000,43735.000000
3456.000000,10176.000000,5831.000000,43777.000000
3573.000000,10208.000000,5847.000000,43848.000000
3433.000000,10161.000000,5873.000000,43800.000000
3455.000000,10205.000000,5890.000000,43765.000000
3464.000000,10170.000000,5860.000000,43703.000000
3435.000000,10199.000000,5897.000000,43668.000000
3445.000000,10171.000000,5862.000000,43733.000000
3480.000000,10161.000000,5881.000000,43668.000000
3408.000000,10136.000000,5834.000000,43754.000000
3447.000000,10155.000000,5864.000000,43779.000000
3427.000000,10179.000000,5820.000000,43730.000000
3499.000000,10139.000000,5802.000000,43731.000000
3501.000000,10207.000000,5845.000000,43726.000000
3452.000000,10178.000000,5830.000000,43709.000000
3418.000000,10143.000000,5741.000000,43754.000000
3461.000000,10131.000000,5780.000000,43677.000000
3440.000000,10211.000000,5797.000000,43649.000000
3395.000000,10131.000000,5879.000000,43708.000000
3413.000000,10225.000000,5756.000000,43815.000000
3392.000000,10101.000000,5760.000000,43644.000000
3336.000000,10080.000000,5747.000000,43646.000000
3319.000000,10032.000000,5705.000000,43640.000000
3293.000000,10095.000000,5637.000000,43632.000000
3311.000000,10039.000000,5628.000000,43615.000000
3332.000000,10063.000000,5706.000000,43636.000000
3312.000000,10023.000000,5602.000000,43636.000000
3231.000000,10011.000000,5631.000000,43657.000000
3271.000000,10051.000000,5598.000000,43705.000000
3227.000000,9999.000000,5596.000000,43587.000000
3328.000000,9936.000000,5610.000000,43641.000000
3190.000000,9936.000000,5622.000000,43649.000000
3253.000000,9968.000000,5650.000000,43604.000000
3236.000000,10006.000000,5574.000000,43622.000000
3239.000000,9951.000000,5484.000000,43517.000000
3225.000000,10016.000000,5579.000000,43609.000000
3210.000000,9926.000000,5560.000000,43639.000000
3243.000000,9987.000000,5603.000000,43573.000000
3248.000000,9955.000000,5570.000000,43633.000000
3251.000000,9992.000000,5604.000000,43570.000000
3213.000000,10016.000000,5600.000000,43611.000000
3101.000000,10018.000000,5572.000000,43644.000000
3228.000000,9992.000000,5639.000000,43662.000000
3223.000000,10041.000000,5615.000000,43729.000000
3241.000000,10033.000000,5671.000000,43594.000000
3145.000000,10012.000000,5646.000000,43676.000000
3293.000000,10047.000000,5671.000000,43691.000000
3342.000000,10139.000000,5778.000000,43636.000000
3337.000000,10044.000000,5688.000000,43627.000000
3374.000000,10059.000000,5747.000000,43551.000000
3366.000000,10112.000000,5801.000000,43717.000000
3428.000000,10163.000000,5832.000000,43667.000000
3476.000000,10225.000000,5874.000000,43787.000000
3519.000000,10228.000000,5938.000000,43852.000000
3587.000000,10211.000000,5953.000000,43835.000000
3573.000000,10266.000000,6052.000000,43821.000000
3766.000000,10265.000000,6064.000000,43846.000000
3647.000000,10308.000000,6030.000000,43816.000000
3679.000000,10396.000000,6188.000000,43804.000000
3710.000000,10370.000000,6167.000000,43915.000000
3770.000000,10404.000000,6139.000000,43967.000000
3774.000000,10404.000000,6176.000000,43931.000000
3813.000000,10466.000000,6277.000000,43849.000000
3823.000000,10478.000000,6256.000000,43908.000000
3815.000000,10444.000000,6247.000000,43949.000000
3853.000000,10523.000000,6324.000000,43947.000000
3854.000000,10516.000000,6222.000000,43880.000000
3932.000000,10465.000000,6243.000000,43898.000000
3836.000000,10489.000000,6341.000000,43935.000000
3870.000000,10434.000000,6280.000000,43947.000000
3887.000000,10468.000000,6228.000000,43983.000000
3783.000000,10483.000000,6277.000000,43873.000000
3837.000000,10500.000000,6282.000000,43952.000000
3869.000000,10501.000000,6264.000000,44015.000000
3844.000000,10473.000000,6234.000000,43980.000000
3889.000000,10472.000000,6216.000000,43942.000000
3851.000000,10517.000000,6232.000000,43918.000000
3911.000000,10460.000000,6226.000000,43919.000000
3882.000000,10457.000000,6248.000000,43985.000000
3841.000000,10490.000000,6351.000000,43931.000000
3826.000000,10513.000000,6216.000000,43937.000000
3874.000000,10490.000000,6243.000000,43965.000000
3860.000000,10389.000000,6200.000000,43954.000000
3862.000000,10488.000000,6233.000000,43931.000000
3814.000000,10499.000000,6216.000000,43931.000000
3925.000000,10493.000000,6239.000000,44005.000000
3892.000000,10418.000000,6312.000000,43990.000000
3898.000000,10571.000000,6219.000000,43937.000000
3834.000000,10507.000000,6172.000000,43935.000000
3926.000000,10480.000000,6201.000000,43887.000000
3859.000000,10461.000000,6213.000000,44005.000000
3927.000000,10447.000000,6215.000000,43954.000000
3893.000000,10490.000000,6142.000000,44033.000000
3891.000000,10484.000000,6227.000000,43958.000000
3913.000000,10455.000000,6239.000000,43976.000000
3872.000000,10512.000000,6182.000000,43929.000000
3918.000000,10495.000000,6159.000000,43980.000000
3921.000000,10476.000000,6187.000000,43964.000000
3885.000000,10462.000000,6178.000000,43904.000000
3819.000000,10454.000000,6226.000000,43884.000000
3920.000000,10490.000000,6160.000000,43972.000000
3928.000000,10360.000000,6202.000000,43845.000000
3879.000000,10499.000000,6185.000000,43939.000000
3820.000000,10412.000000,6180.000000,43918.000000
3890.000000,10502.000000,6183.000000,43913.000000
3865.000000,10428.000000,6180.000000,43845.000000
3906.000000,10463.000000,6159.000000,43955.000000
3904.000000,10445.000000,6136.000000,43886.000000
3897.000000,10455.000000,6165.000000,43899.000000
3876.000000,10443.000000,6214.000000,43854.000000
3898.000000,10483.000000,6166.000000,43904.000000
3924.000000,10463.000000,6232.000000,43913.000000
3863.000000,10476.000000,6245.000000,43984.000000
3873.000000,10465.000000,6255.000000,43921.000000
3892.000000,10453.000000,6071.000000,43931.000000
3922.000000,10442.000000,6151.000000,43946.000000
3813.000000,10382.000000,6238.000000,43925.000000
3853.000000,10471.000000,6149.000000,43921.000000
3876.000000,10472.000000,6154.000000,43948.000000
3880.000000,10420.000000,6104.000000,43908.000000
3878.000000,10444.000000,6139.000000,43929.000000
3904.000000,10461.000000,6131.000000,43892.000000
3877.000000,10459.000000,6136.000000,43866.000000
3790.000000,10398.000000,6126.000000,43813.000000
3885.000000,10402.000000,6120.000000,43888.000000
3730.000000,10375.000000,6079.000000,43886.000000
3871.000000,10375.000000,6051.000000,43886.000000
3840.000000,10425.000000,6166.000000,43894.000000
3854.000000,10445.000000,6060.000000,43892.000000
3848.000000,10426.000000,6065.000000,43855.000000
3864.000000,10383.000000,6048.000000,43895.000000
3778.000000,10357.000000,6143.000000,43890.000000
3797.000000,10410.000000,6076.000000,43852.000000
3851.000000,10371.000000,6050.000000,43784.000000
3818.000000,10390.000000,6030.000000,43851.000000
3779.000000,10317.000000,6068.000000,43825.000000
3793.000000,10354.000000,6013.000000,43818.000000
3790.000000,10376.000000,5987.000000,43850.000000
3823.000000,10327.000000,6000.000000,43868.000000
3797.000000,10373.000000,5998.000000,43842.000000
3784.000000,10368.000000,6107.000000,43890.000000
3783.000000,10352.000000,5961.000000,43835.000000
3836.000000,10300.000000,5913.000000,43779.000000
3846.000000,10298.000000,5993.000000,43821.000000
3746.000000,10222.000000,5830.000000,43798.000000
3769.000000,10333.000000,5934.000000,43831.000000
3746.000000,10301.000000,5987.000000,43865.000000
3814.000000,10324.000000,5970.000000,43776.000000
3767.000000,10324.000000,5947.000000,43858.000000
3735.000000,10305.000000,5944.000000,43806.000000
3744.000000,10321.000000,5945.000000,43800.000000
3822.000000,10296.000000,5907.000000,43834.000000
3816.000000,10340.000000,5996.000000,43813.000000
3845.000000,10349.000000,5950.000000,43805.000000
3814.000000,10334.000000,5938.000000,43905.000000
3898.000000,10344.000000,5948.000000,43779.000000
3807.000000,10334.000000,5909.000000,43834.000000
3811.000000,10310.000000,5980.000000,43838.000000
3798.000000,10302.000000,5886.000000,43822.000000
3774.000000,10264.000000,5929.000000,43811.000000
3812.000000,10340.000000,5919.000000,43821.000000
3784.000000,10348.000000,5822.000000,43811.000000
3860.000000,10335.000000,5930.000000,43847.000000
3830.000000,10307.000000,5892.000000,43750.000000
3809.000000,10320.000000,5818.000000,43821.000000
4009.000000,10272.000000,5820.000000,43790.000000
3717.000000,10248.000000,5803.000000,43886.000000
3717.000000,10234.000000,5846.000000,43806.000000
3738.000000,10266.000000,5791.000000,43773.000000
3710.000000,10203.000000,5807.000000,43715.000000
3702.000000,10246.000000,5712.000000,43682.000000
3711.000000,10182.000000,5757.000000,43778.000000
3643.000000,10197.000000,5799.000000,43747.000000
3648.000000,10181.000000,5751.000000,43754.000000
3629.000000,10241.000000,5973.000000,43711.000000
3701.000000,10175.000000,5697.000000,43735.000000
3684.000000,10149.000000,5678.000000,43659.000000
3667.000000,10188.000000,5710.000000,43758.000000
3650.000000,10245.000000,5716.000000,43702.000000
3654.000000,10254.000000,5610.000000,43713.000000
3686.000000,10186.000000,5698.000000,43742.000000
3891.000000,10101.000000,5664.000000,43742.000000
3633.000000,10203.000000,5686.000000,43690.000000
3587.000000,10125.000000,5732.000000,43755.000000
3662.000000,10183.000000,5647.000000,43695.000000
3772.000000,10342.000000,5602.000000,43689.000000
3696.000000,10195.000000,5695.000000,43667.000000
3662.000000,10249.000000,5702.000000,43796.000000
3645.000000,10140.000000,5665.000000,43717.000000
3672.000000,10227.000000,5621.000000,43701.000000
3674.000000,10152.000000,5661.000000,43734.000000
3702.000000,10191.000000,5676.000000,43714.000000
3691.000000,10245.000000,5639.000000,43700.000000
3682.000000,10233.000000,5720.000000,43755.000000
3709.000000,10211.000000,5730.000000,43743.000000
3747.000000,10175.000000,5759.000000,43781.000000
3781.000000,10220.000000,5781.000000,43815.000000
3795.000000,10253.000000,5793.000000,43784.000000
3888.000000,10239.000000,5831.000000,43745.000000
3890.000000,10313.000000,5904.000000,43849.000000
3943.000000,10367.000000,6062.000000,43865.000000
3987.000000,10384.000000,6015.000000,43934.000000
4050.000000,10437.000000,6085.000000,43923.000000
4047.000000,10472.000000,6126.000000,43978.000000
4109.000000,10521.000000,6223.000000,43950.000000
4148.000000,10544.000000,6212.000000,44027.000000
4242.000000,10597.000000,6247.000000,43954.000000
4306.000000,10645.000000,6298.000000,44023.000000
4249.000000,10613.000000,6237.000000,43999.000000
4303.000000,10628.000000,6394.000000,44070.000000
4286.000000,10661.000000,6319.000000,44051.000000
4335.000000,10488.000000,6342.000000,44075.000000
4300.000000,10644.000000,6356.000000,44132.000000
4425.000000,10689.000000,6402.000000,44005.000000
4294.000000,10635.000000,6353.000000,44048.000000
4270.000000,10708.000000,6337.000000,44040.000000
4291.000000,10640.000000,6331.000000,44026.000000
4350.000000,10688.000000,6267.000000,44089.000000
4356.000000,10668.000000,6378.000000,44018.000000
4302.000000,10655.000000,6316.000000,44118.000000
4338.000000,10591.000000,6343.000000,44016.000000
4330.000000,10609.000000,6292.000000,44054.000000
4303.000000,10683.000000,6327.000000,44025.000000
4309.000000,10687.000000,6343.000000,43976.000000
4248.000000,10667.000000,6386.000000,44002.000000
4344.000000,10688.000000,6282.000000,44038.000000
4303.000000,10458.000000,6243.000000,44053.000000
4301.000000,10657.000000,6315.000000,43990.000000
4303.000000,10659.000000,6295.000000,44099.000000
4320.000000,10632.000000,6264.000000,44046.000000
4280.000000,10678.000000,6270.000000,44026.000000
4288.000000,10643.000000,6272.000000,44024.000000
4296.000000,10635.000000,6235.000000,44000.000000
4276.000000,10587.000000,6260.000000,44026.000000
4252.000000,10576.000000,6203.000000,44003.000000
4302.000000,10647.000000,6229.000000,44005.000000
4234.000000,10543.000000,6204.000000,43961.000000
4217.000000,10537.000000,6115.000000,44000.000000
4203.000000,10589.000000,6152.000000,43975.000000
4228.000000,10579.000000,6157.000000,43905.000000
4247.000000,10548.000000,6273.000000,43981.000000
4291.000000,10647.000000,6157.000000,43948.000000
4270.000000,10507.000000,6135.000000,43925.000000
4281.000000,10523.000000,6184.000000,43957.000000
4223.000000,10555.000000,6163.000000,43953.000000
4221.000000,10565.000000,6208.000000,44007.000000
4225.000000,10585.000000,6163.000000,43983.000000
4207.000000,10559.000000,6119.000000,43939.000000
4219.000000,10464.000000,6172.000000,43969.000000
4231.000000,10502.000000,6165.000000,43931.000000
4286.000000,10579.000000,6098.000000,43942.000000
4232.000000,10479.000000,6088.000000,43953.000000
4168.000000,10509.000000,6066.000000,43936.000000
4160.000000,10538.000000,6094.000000,43941.000000
4209.000000,10443.000000,6104.000000,43883.000000
4109.000000,10515.000000,6086.000000,43875.000000
4207.000000,10484.000000,6114.000000,43833.000000
4080.000000,10479.000000,6032.000000,43974.000000
4070.000000,10446.000000,6123.000000,43824.000000
4124.000000,10378.000000,5998.000000,43881.000000
4014.000000,10430.000000,6022.000000,43894.000000
4060.000000,10411.000000,6039.000000,43871.000000
4037.000000,10403.000000,5944.000000,43848.000000
4055.000000,10290.000000,5985.000000,43899.000000
4069.000000,10381.000000,6038.000000,43875.000000
4049.000000,10337.000000,6003.000000,43911.000000
4025.000000,10415.000000,5971.000000,43833.000000
4061.000000,10405.000000,5927.000000,43869.000000
4041.000000,10418.000000,5976.000000,43803.000000
4011.000000,10480.000000,6139.000000,43792.000000
4096.000000,10387.000000,5981.000000,43822.000000
4030.000000,10440.000000,5947.000000,43804.000000
4053.000000,10446.000000,5964.000000,43856.000000
4044.000000,10395.000000,5950.000000,43880.000000
4000.000000,10325.000000,5868.000000,43868.000000
4022.000000,10353.000000,5859.000000,43827.000000
4201.000000,10341.000000,5875.000000,43831.000000
3982.000000,10329.000000,5855.000000,43842.000000
3987.000000,10305.000000,5850.000000,43802.000000
3951.000000,10340.000000,5860.000000,43816.000000
3874.000000,10280.000000,5838.000000,43790.000000
3943.000000,10279.000000,5850.000000,43787.000000
3846.000000,10267.000000,5825.000000,43727.000000
3907.000000,10296.000000,5857.000000,43817.000000
4036.000000,10317.000000,5834.000000,43881.000000
3929.000000,10279.000000,5826.000000,43763.000000
3871.000000,10294.000000,5918.000000,43804.000000
3943.000000,10290.000000,5801.000000,43753.000000
3895.000000,10296.000000,5776.000000,43752.000000
3894.000000,10222.000000,5792.000000,43751.000000
3908.000000,10226.000000,5808.000000,43771.000000
3887.000000,10295.000000,5745.000000,43767.000000
3934.000000,10274.000000,5836.000000,43817.000000
3953.000000,10284.000000,5985.000000,43741.000000
3943.000000,10246.000000,5786.000000,43791.000000
4022.000000,10271.000000,5850.000000,43769.000000
3922.000000,10267.000000,5797.000000,43785.000000
3923.000000,10378.000000,5721.000000,43784.000000
3936.000000,10297.000000,5770.000000,43823.000000
3941.000000,10270.000000,5777.000000,43809.000000
3904.000000,10244.000000,5775.000000,43794.000000
3915.000000,10235.000000,5774.000000,43795.000000
3882.000000,10239.000000,5812.000000,43774.000000
3925.000000,10312.000000,5801.000000,43792.000000
3961.000000,10227.000000,5802.000000,43787.000000
3931.000000,10278.000000,5788.000000,43771.000000
3929.000000,10276.000000,5856.000000,43741.000000
3936.000000,10337.000000,5796.000000,43792.000000
3925.000000,10270.000000,5815.000000,43808.000000
3925.000000,10265.000000,5805.000000,43739.000000
3889.000000,10376.000000,5920.000000,43731.000000
3882.000000,10240.000000,5771.000000,43725.000000
3919.000000,10255.000000,5861.000000,43917.000000
3897.000000,10256.000000,5802.000000,43758.000000
3940.000000,10271.000000,5770.000000,43770.000000
3862.000000,10308.000000,5762.000000,43755.000000
3848.000000,10283.000000,5712.000000,43745.000000
3851.000000,10195.000000,5738.000000,43683.000000
3867.000000,10230.000000,5669.000000,43705.000000
3844.000000,10226.000000,5688.000000,43698.000000
3856.000000,10226.000000,5668.000000,43732.000000
3819.000000,10274.000000,5635.000000,43717.000000
3806.000000,10173.000000,5625.000000,43705.000000
3792.000000,10158.000000,5600.000000,43669.000000
3797.000000,10156.000000,5609.000000,43670.000000
3734.000000,10041.000000,5692.000000,43701.000000
3823.000000,10182.000000,5713.000000,43664.000000
3807.000000,10153.000000,5560.000000,43572.000000
3846.000000,10179.000000,5673.000000,43708.000000
3754.000000,10056.000000,5607.000000,43711.000000
3803.000000,10115.000000,5644.000000,43726.000000
3863.000000,10151.000000,5677.000000,43713.000000
3858.000000,10167.000000,5611.000000,43724.000000
3852.000000,10168.000000,5657.000000,43707.000000
3797.000000,10197.000000,5555.000000,43690.000000
3848.000000,10134.000000,5674.000000,43702.000000
3838.000000,10081.000000,5760.000000,43802.000000
3888.000000,10237.000000,5686.000000,43720.000000
3794.000000,10087.000000,5651.000000,43741.000000
3866.000000,10200.000000,5735.000000,43763.000000
3916.000000,10143.000000,5691.000000,43786.000000
3925.000000,10192.000000,5654.000000,43738.000000
3968.000000,10153.000000,5723.000000,43764.000000
3950.000000,10215.000000,5726.000000,43747.000000
3999.000000,10203.000000,5745.000000,43754.000000
3983.000000,10305.000000,5734.000000,43772.000000
4019.000000,10295.000000,5772.000000,43801.000000
4008.000000,10323.000000,5867.000000,43859.000000
4079.000000,10355.000000,5851.000000,43852.000000
4064.000000,10385.000000,5912.000000,43850.000000
4134.000000,10431.000000,5912.000000,43872.000000
4106.000000,10333.000000,6026.000000,43877.000000
4190.000000,10452.000000,6059.000000,43941.000000
4295.000000,10489.000000,6033.000000,43987.000000
4308.000000,10516.000000,6166.000000,44021.000000
4375.000000,10535.000000,6223.000000,44075.000000
4404.000000,10629.000000,6252.000000,44073.000000
4373.000000,10607.000000,6284.000000,43943.000000
4452.000000,10658.000000,6320.000000,44041.000000
4450.000000,10650.000000,6259.000000,44031.000000
4522.000000,10680.000000,6316.000000,44029.000000
4525.000000,10665.000000,6283.000000,44013.000000
4461.000000,10764.000000,6404.000000,44052.000000
4489.000000,10752.000000,6383.000000,44099.000000
4499.000000,10772.000000,6335.000000,44086.000000
4515.000000,10656.000000,6370.000000,44028.000000
4568.000000,10587.000000,6242.000000,44034.000000
4389.000000,10623.000000,6328.000000,44074.000000
4461.000000,10629.000000,6373.000000,43882.000000
4488.000000,10676.000000,6308.000000,44066.000000
4460.000000,10655.000000,6375.000000,44049.000000
4518.000000,10731.000000,6292.000000,44029.000000
4494.000000,10680.000000,6279.000000,44046.000000
4462.000000,10711.000000,6259.000000,44065.000000
4398.000000,10660.000000,6255.000000,44076.000000
4436.000000,10708.000000,6352.000000,44035.000000
4384.000000,10608.000000,6194.000000,43999.000000
4478.000000,10576.000000,6273.000000,44073.000000
4473.000000,10626.000000,6268.000000,44039.000000
4316.000000,10648.000000,6202.000000,44012.000000
4467.000000,10641.000000,6225.000000,44039.000000
4502.000000,10585.000000,6163.000000,43962.000000
4448.000000,10599.000000,6274.000000,44046.000000
4387.000000,10657.000000,6324.000000,44066.000000
4348.000000,10579.000000,6190.000000,43996.000000
4429.000000,10620.000000,6192.000000,43982.000000
4353.000000,10556.000000,6211.000000,44010.000000
4259.000000,10575.000000,6173.000000,43997.000000
4348.000000,10582.000000,6249.000000,44030.000000
4365.000000,10603.000000,6199.000000,43995.000000
4429.000000,10495.000000,6211.000000,44012.000000
4400.000000,10535.000000,6156.000000,43979.000000
4366.000000,10575.000000,6245.000000,43963.000000
4421.000000,10577.000000,6241.000000,44008.000000
4382.000000,10564.000000,6263.000000,43932.000000
4384.000000,10529.000000,6207.000000,43968.000000
4376.000000,10599.000000,6130.000000,43956.000000
4364.000000,10616.000000,6181.000000,43962.000000
4366.000000,10579.000000,6123.000000,43894.000000
4408.000000,10601.000000,6165.000000,43975.000000
4378.000000,10528.000000,6166.000000,43925.000000
4328.000000,10535.000000,6200.000000,43975.000000
4379.000000,10574.000000,6219.000000,43975.000000
4342.000000,10551.000000,6172.000000,43974.000000
4393.000000,10564.000000,6117.000000,44003.000000
4400.000000,10567.000000,6121.000000,44069.000000
4366.000000,10543.000000,6086.000000,43996.000000
4483.000000,10567.000000,6154.000000,43981.000000
4366.000000,10546.000000,6157.000000,44005.000000
4416.000000,10549.000000,6236.000000,44063.000000
4305.000000,10463.000000,6078.000000,43943.000000
4336.000000,10470.000000,6116.000000,43966.000000
4329.000000,10491.000000,6081.000000,43956.000000
4377.000000,10466.000000,6052.000000,43927.000000
4354.000000,10523.000000,6088.000000,43949.000000
4307.000000,10514.000000,6054.000000,43954.000000
4288.000000,10381.000000,6089.000000,43940.000000
4293.000000,10437.000000,6028.000000,43938.000000
4217.000000,10515.000000,6050.000000,43823.000000
4289.000000,10442.000000,5987.000000,43951.000000
4276.000000,10496.000000,5961.000000,43955.000000
4246.000000,10453.000000,5982.000000,43856.000000
4333.000000,10451.000000,6060.000000,43883.000000
4284.000000,10424.000000,6017.000000,43963.000000
4223.000000,10541.000000,5954.000000,43865.000000
4204.000000,10398.000000,5980.000000,43889.000000
4131.000000,10393.000000,6037.000000,43871.000000
4238.000000,10434.000000,5932.000000,43875.000000
4201.000000,10395.000000,5997.000000,43824.000000
4240.000000,10382.000000,5919.000000,43919.000000
4172.000000,10392.000000,5905.000000,43875.000000
4132.000000,10391.000000,5797.000000,43853.000000
4173.000000,10399.000000,5947.000000,43898.000000
4199.000000,10354.000000,5912.000000,43880.000000
4174.000000,10387.000000,5900.000000,43789.000000
4230.000000,10414.000000,5835.000000,43778.000000
4179.000000,10331.000000,5924.000000,43843.000000
4182.000000,10360.000000,5866.000000,43824.000000
4138.000000,10342.000000,5862.000000,43828.000000
4160.000000,10334.000000,5745.000000,43836.000000
4181.000000,10343.000000,5815.000000,43779.000000
4156.000000,10367.000000,5843.000000,43686.000000
4154.000000,10302.000000,5854.000000,43777.000000
4126.000000,10381.000000,5833.000000,43860.000000
4178.000000,10303.000000,5897.000000,43827.000000
4116.000000,10356.000000,5816.000000,43826.000000
4155.000000,10325.000000,5846.000000,43910.000000
4149.000000,10365.000000,5848.000000,43813.000000
4131.000000,10299.000000,5811.000000,43779.000000
4170.000000,10367.000000,5836.000000,43807.000000
4105.000000,10371.000000,5838.000000,43752.000000
4144.000000,10349.000000,5806.000000,43850.000000
4137.000000,10297.000000,5853.000000,43845.000000
4131.000000,10377.000000,5879.000000,43793.000000
4090.000000,10326.000000,5837.000000,43826.000000
4149.000000,10253.000000,5792.000000,43830.000000
4194.000000,10265.000000,5848.000000,43823.000000
4105.000000,10312.000000,5851.000000,43788.000000
4093.000000,10262.000000,5791.000000,43832.000000
4090.000000,10366.000000,5900.000000,43801.000000
4074.000000,10286.000000,5780.000000,43795.000000
4015.000000,10225.000000,5684.000000,43777.000000
4057.000000,10249.000000,5748.000000,43752.000000
4029.000000,10243.000000,5718.000000,43837.000000
4033.000000,10207.000000,5709.000000,43700.000000
3958.000000,10220.000000,5722.000000,43759.000000
3963.000000,10156.000000,5714.000000,43724.000000
3982.000000,10139.000000,5668.000000,43814.000000
3967.000000,10173.000000,5623.000000,43708.000000
3974.000000,10228.000000,5670.000000,43731.000000
3941.000000,10209.000000,5611.000000,43689.000000
3980.000000,10191.000000,5643.000000,43683.000000
3967.000000,10174.000000,5660.000000,43741.000000
3972.000000,10193.000000,5647.000000,43644.000000
3923.000000,10195.000000,5751.000000,43704.000000
3999.000000,10148.000000,5664.000000,43672.000000
3948.000000,10170.000000,5472.000000,43502.000000
3964.000000,10205.000000,5677.000000,43690.000000
3961.000000,10196.000000,5672.000000,43702.000000
3982.000000,10151.000000,5635.000000,43726.000000
4008.000000,10241.000000,5579.000000,43892.000000
4011.000000,10205.000000,5666.000000,43760.000000
3900.000000,10196.000000,5716.000000,43749.000000
3990.000000,10169.000000,5612.000000,43723.000000
4039.000000,10213.000000,5653.000000,43708.000000
4028.000000,10191.000000,5642.000000,43747.000000
4018.000000,10183.000000,5714.000000,43731.000000
4030.000000,10103.000000,5652.000000,43766.000000
4044.000000,10201.000000,5768.000000,43731.000000
3986.000000,10193.000000,5748.000000,43766.000000
4044.000000,10220.000000,5719.000000,43750.000000
3984.000000,10277.000000,5755.000000,43814.000000
4093.000000,10239.000000,5744.000000,43737.000000
4054.000000,10257.000000,5821.000000,43736.000000
4129.000000,10283.000000,5823.000000,43828.000000
4086.000000,10228.000000,5866.000000,43804.000000
4187.000000,10365.000000,5909.000000,43884.000000
4288.000000,10344.000000,5934.000000,43834.000000
4294.000000,10408.000000,6001.000000,43925.000000
4395.000000,10376.000000,6091.000000,43935.000000
4469.000000,10506.000000,6134.000000,43979.000000
4458.000000,10583.000000,6209.000000,44011.000000
4470.000000,10611.000000,6279.000000,43899.000000
4499.000000,10622.000000,6205.000000,44072.000000
4554.000000,10592.000000,6273.000000,43976.000000
4635.000000,10636.000000,6361.000000,44082.000000
4600.000000,10671.000000,6418.000000,44069.000000
4624.000000,10684.000000,6353.000000,44086.000000
4601.000000,10595.000000,6389.000000,44151.000000
4625.000000,10687.000000,6389.000000,44107.000000
4634.000000,10688.000000,6404.000000,44083.000000
4608.000000,10693.000000,6346.000000,44051.000000
4613.000000,10675.000000,6358.000000,44035.000000
4634.000000,10720.000000,6366.000000,44085.000000
4622.000000,10669.000000,6386.000000,44068.000000
4476.000000,10655.000000,6338.000000,44112.000000
4581.000000,10719.000000,6253.000000,44060.000000
4489.000000,10664.000000,6271.000000,44016.000000
4599.000000,10605.000000,6320.000000,44038.000000
4555.000000,10639.000000,6280.000000,44034.000000
4590.000000,10659.000000,6361.000000,44016.000000
4535.000000,10565.000000,6336.000000,44056.000000
4625.000000,10663.000000,6335.000000,44009.000000
4619.000000,10680.000000,6338.000000,44032.000000
4576.000000,10653.000000,6281.000000,44044.000000
4575.000000,10650.000000,6317.000000,44087.000000
4568.000000,10687.000000,6263.000000,44058.000000
4563.000000,10641.000000,6348.000000,44043.000000
4580.000000,10616.000000,6310.000000,44052.000000
4526.000000,10685.000000,6287.000000,44073.000000
4559.000000,10557.000000,6212.000000,44031.000000
4550.000000,10619.000000,6289.000000,44041.000000
4597.000000,10545.000000,6246.000000,44128.000000
4571.000000,10559.000000,6263.000000,44078.000000
4448.000000,10621.000000,6319.000000,43969.000000
4534.000000,10595.000000,6262.000000,43971.000000
4581.000000,10623.000000,6262.000000,44065.000000
4569.000000,10614.000000,6240.000000,44038.000000
4504.000000,10621.000000,6258.000000,44040.000000
4551.000000,10616.000000,6255.000000,44032.000000
4568.000000,10633.000000,6279.000000,44063.000000
4482.000000,10583.000000,6222.000000,44047.000000
4570.000000,10639.000000,6259.000000,44036.000000
4514.000000,10575.000000,6254.000000,44022.000000
4493.000000,10597.000000,6208.000000,44041.000000
4380.000000,10597.000000,6115.000000,44117.000000
4515.000000,10607.000000,6253.000000,44002.000000
4501.000000,10647.000000,6255.000000,44043.000000
4552.000000,10547.000000,6207.000000,44023.000000
4518.000000,10680.000000,6176.000000,43962.000000
4481.000000,10575.000000,6162.000000,43918.000000
4531.000000,10507.000000,6248.000000,43990.000000
4524.000000,10536.000000,6218.000000,43996.000000
4507.000000,10552.000000,6197.000000,43961.000000
4479.000000,10543.000000,6186.000000,43961.000000
4472.000000,10531.000000,6199.000000,43989.000000
4566.000000,10635.000000,6169.000000,43964.000000
4455.000000,10528.000000,6118.000000,43992.000000
4372.000000,10552.000000,6223.000000,43980.000000
4388.000000,10601.000000,6112.000000,43956.000000
4330.000000,10523.000000,6114.000000,44008.000000
4407.000000,10511.000000,6166.000000,43955.000000
4420.000000,10517.000000,6102.000000,43966.000000
4453.000000,10488.000000,6143.000000,43969.000000
4431.000000,10465.000000,6100.000000,43831.000000
4439.000000,10471.000000,6072.000000,43897.000000
4473.000000,10519.000000,6032.000000,43852.000000
4416.000000,10495.000000,6072.000000,43914.000000
4412.000000,10482.000000,6055.000000,43895.000000
4404.000000,10637.000000,6073.000000,43967.000000
4387.000000,10466.000000,6041.000000,43936.000000
4414.000000,10583.000000,6077.000000,43939.000000
4384.000000,10488.000000,6008.000000,43957.000000
4304.000000,10449.000000,5858.000000,43921.000000
4336.000000,10380.000000,5977.000000,43909.000000
4298.000000,10504.000000,5894.000000,43887.000000
4344.000000,10445.000000,5946.000000,43897.000000
4372.000000,10503.000000,6101.000000,43892.000000
4324.000000,10413.000000,5998.000000,43849.000000
4259.000000,10486.000000,5935.000000,43894.000000
4297.000000,10379.000000,5975.000000,43901.000000
4284.000000,10391.000000,5967.000000,43852.000000
4334.000000,10408.000000,5972.000000,43934.000000
4230.000000,10315.000000,5993.000000,43893.000000
4253.000000,10446.000000,5992.000000,43945.000000
4288.000000,10333.000000,5986.000000,43860.000000
4269.000000,10395.000000,5943.000000,43916.000000
4292.000000,10351.000000,6023.000000,43803.000000
4295.000000,10336.000000,5891.000000,43795.000000
4325.000000,10369.000000,5912.000000,43847.000000
4343.000000,10377.000000,6023.000000,43924.000000
4310.000000,10431.000000,6003.000000,43896.000000
4311.000000,10443.000000,5966.000000,43922.000000
4299.000000,10436.000000,5998.000000,43904.000000
4336.000000,10441.000000,5958.000000,43847.000000
4391.000000,10325.000000,5914.000000,43865.000000
4307.000000,10403.000000,5957.000000,43903.000000
4273.000000,10350.000000,5970.000000,43869.000000
4225.000000,10434.000000,5936.000000,43849.000000
4299.000000,10332.000000,5909.000000,43855.000000
4267.000000,10341.000000,5952.000000,43877.000000
4236.000000,10341.000000,5961.000000,43804.000000
4305.000000,10305.000000,5900.000000,43841.000000
4252.000000,10326.000000,5857.000000,43891.000000
4223.000000,10317.000000,5843.000000,43831.000000
4218.000000,10333.000000,5837.000000,43942.000000
4142.000000,10219.000000,5814.000000,43808.000000
4154.000000,10257.000000,5858.000000,43807.000000
4196.000000,10245.000000,5779.000000,43770.000000
4198.000000,10293.000000,5757.000000,43855.000000
4116.000000,10275.000000,5785.000000,43788.000000
4169.000000,10287.000000,5754.000000,43772.000000
4151.000000,10249.000000,5819.000000,43767.000000
4204.000000,10291.000000,5780.000000,43822.000000
4157.000000,10312.000000,5795.000000,43796.000000
4179.000000,10252.000000,5745.000000,43790.000000
4224.000000,10235.000000,5705.000000,43758.000000
4173.000000,10343.000000,5743.000000,43786.000000
4201.000000,10258.000000,5821.000000,43758.000000
4166.000000,10287.000000,5656.000000,43755.000000
4166.000000,10231.000000,5717.000000,43764.000000
4058.000000,10262.000000,5768.000000,43776.000000
4116.000000,10248.000000,5732.000000,43756.000000
4171.000000,10317.000000,5567.000000,43780.000000
4229.000000,10328.000000,5768.000000,43799.000000
4250.000000,10256.000000,5754.000000,43865.000000
4276.000000,10326.000000,5860.000000,43812.000000
4317.000000,10391.000000,5898.000000,43877.000000
4291.000000,10366.000000,5919.000000,43930.000000
4364.000000,10398.000000,5942.000000,43929.000000
4304.000000,10470.000000,6020.000000,43944.000000
4460.000000,10438.000000,5987.000000,43951.000000
4398.000000,10576.000000,6134.000000,43958.000000
4771.000000,10662.000000,6314.000000,44208.000000
4693.000000,10675.000000,6339.000000,44103.000000
4763.000000,10704.000000,6397.000000,44074.000000
4749.000000,10731.000000,6377.000000,44099.000000
4753.000000,10767.000000,6420.000000,44070.000000
4786.000000,10711.000000,6414.000000,44127.000000
4770.000000,10794.000000,6383.000000,44072.000000
4827.000000,10784.000000,6516.000000,44108.000000
4822.000000,10792.000000,6443.000000,44151.000000
4866.000000,10830.000000,6326.000000,44102.000000
4835.000000,10773.000000,6449.000000,44146.000000
4874.000000,10761.000000,6410.000000,44082.000000
4671.000000,10769.000000,6375.000000,44117.000000
4898.000000,10780.000000,6408.000000,44122.000000
4789.000000,10760.000000,6329.000000,44185.000000
4799.000000,10799.000000,6366.000000,44137.000000
4823.000000,10756.000000,6373.000000,44096.000000
4831.000000,10735.000000,6355.000000,44060.000000
4798.000000,10724.000000,6359.000000,44104.000000
4741.000000,10720.000000,6413.000000,44121.000000
4794.000000,10711.000000,6317.000000,44038.000000
4848.000000,10711.000000,6321.000000,44136.000000
4808.000000,10700.000000,6288.000000,44122.000000
4752.000000,10738.000000,6321.000000,44078.000000
4764.000000,10725.000000,6297.000000,44076.000000
4757.000000,10717.000000,6304.000000,44036.000000
4729.000000,10581.000000,6297.000000,43967.000000
4684.000000,10627.000000,6235.000000,44049.000000
4815.000000,10611.000000,6268.000000,43963.000000
4721.000000,10662.000000,6234.000000,44042.000000
4715.000000,10585.000000,6233.000000,44068.000000
4666.000000,10647.000000,6196.000000,43987.000000
4696.000000,10608.000000,6079.000000,44034.000000
4674.000000,10591.000000,6172.000000,43891.000000
4675.000000,10643.000000,6122.000000,43991.000000
4715.000000,10594.000000,6213.000000,44038.000000
4616.000000,10506.000000,6112.000000,43933.000000
4553.000000,10551.000000,6069.000000,44029.000000
4493.000000,10554.000000,6112.000000,43956.000000
4548.000000,10540.000000,6036.000000,43942.000000
4572.000000,10613.000000,6008.000000,43951.000000
4510.000000,10521.000000,6090.000000,43921.000000
4538.000000,10434.000000,6004.000000,43991.000000
4543.000000,10516.000000,5994.000000,43974.000000
4619.000000,10525.000000,6016.000000,43928.000000
4662.000000,10525.000000,5853.000000,43931.000000
4589.000000,10511.000000,6041.000000,43916.000000
4575.000000,10422.000000,6029.000000,43915.000000
4501.000000,10492.000000,5942.000000,43923.000000
4590.000000,10538.000000,5990.000000,43883.000000
4636.000000,10520.000000,5951.000000,43943.000000
4568.000000,10462.000000,5914.000000,43937.000000
4525.000000,10461.000000,5930.000000,43885.000000
4514.000000,10449.000000,5915.000000,43852.000000
4445.000000,10426.000000,5891.000000,43850.000000
4499.000000,10399.000000,5853.000000,43845.000000
4577.000000,10412.000000,5792.000000,43819.000000
4467.000000,10355.000000,5785.000000,43865.000000
4438.000000,10365.000000,5706.000000,43851.000000
4600.000000,10409.000000,5761.000000,43771.000000
4468.000000,10334.000000,5799.000000,43859.000000
4519.000000,10406.000000,5839.000000,43815.000000
4444.000000,10371.000000,5776.000000,43871.000000
4454.000000,10252.000000,5655.000000,43901.000000
4434.000000,10420.000000,5814.000000,43824.000000
4481.000000,10436.000000,5782.000000,43800.000000
4481.000000,10410.000000,5794.000000,43857.000000
4486.000000,10358.000000,5786.000000,43811.000000
4492.000000,10368.000000,5757.000000,43825.000000
4505.000000,10338.000000,5782.000000,43855.000000
4578.000000,10360.000000,5780.000000,43878.000000
4541.000000,10378.000000,5755.000000,43836.000000
4516.000000,10485.000000,5837.000000,43814.000000
4549.000000,10464.000000,5810.000000,43873.000000
4713.000000,10446.000000,5859.000000,43822.000000
4552.000000,10460.000000,5893.000000,43945.000000
4605.000000,10495.000000,5946.000000,43751.000000
4663.000000,10543.000000,5961.000000,44005.000000
4887.000000,10649.000000,6210.000000,44070.000000
4809.000000,10712.000000,6437.000000,44079.000000
5036.000000,10821.000000,6433.000000,44181.000000
5062.000000,10853.000000,6472.000000,44170.000000
5108.000000,10869.000000,6486.000000,44145.000000
5115.000000,10950.000000,6401.000000,44230.000000
5110.000000,10890.000000,6415.000000,44187.000000
5086.000000,10878.000000,6398.000000,44110.000000
5161.000000,10862.000000,6452.000000,44250.000000
5106.000000,10869.000000,6355.000000,44168.000000
5194.000000,10865.000000,6507.000000,44178.000000
5250.000000,10850.000000,6418.000000,44142.000000
5141.000000,10897.000000,6452.000000,44142.000000
5177.000000,10856.000000,6612.000000,44169.000000
5110.000000,10929.000000,6435.000000,44174.000000
5149.000000,10917.000000,6392.000000,44317.000000
5185.000000,10851.000000,6465.000000,44285.000000
5188.000000,10870.000000,6251.000000,44120.000000
5153.000000,10835.000000,6373.000000,44220.000000
5181.000000,10876.000000,6471.000000,44125.000000
5173.000000,10874.000000,6402.000000,44163.000000
5132.000000,10913.000000,6419.000000,44201.000000
5198.000000,10839.000000,6426.000000,44164.000000
5173.000000,10809.000000,6440.000000,44223.000000
5104.000000,10737.000000,6391.000000,44147.000000
5099.000000,10884.000000,6390.000000,44186.000000
5161.000000,10795.000000,6352.000000,44072.000000
5164.000000,10856.000000,6396.000000,44164.000000
5124.000000,10945.000000,6444.000000,44204.000000
5121.000000,10810.000000,6421.000000,44140.000000
5107.000000,10845.000000,6424.000000,44143.000000
5125.000000,10857.000000,6341.000000,44141.000000
5123.000000,10839.000000,6401.000000,43978.000000
5160.000000,10799.000000,6343.000000,44154.000000
5105.000000,10825.000000,6382.000000,44165.000000
5124.000000,10784.000000,6362.000000,44186.000000
5096.000000,11067.000000,6358.000000,44185.000000
5086.000000,10902.000000,6314.000000,44108.000000
5127.000000,10795.000000,6322.000000,44112.000000
5142.000000,10809.000000,6369.000000,44191.000000
5135.000000,10832.000000,6325.000000,44174.000000
5094.000000,10763.000000,6351.000000,44067.000000
5095.000000,10792.000000,6317.000000,44137.000000
5028.000000,10881.000000,6305.000000,44171.000000
5084.000000,10777.000000,6280.000000,44013.000000
5075.000000,10723.000000,6312.000000,44144.000000
5091.000000,10765.000000,6301.000000,44135.000000
5131.000000,10809.000000,6319.000000,44110.000000
5067.000000,10764.000000,6320.000000,44104.000000
5074.000000,10765.000000,6278.000000,44120.000000
4995.000000,10804.000000,6279.000000,44108.000000
5021.000000,10675.000000,6269.000000,44060.000000
5053.000000,10652.000000,6181.000000,44044.000000
5028.000000,10741.000000,6252.000000,44119.000000
5114.000000,10770.000000,6237.000000,44123.000000
5003.000000,10743.000000,6201.000000,44060.000000
5015.000000,10805.000000,6151.000000,44118.000000
4976.000000,10733.000000,6192.000000,44085.000000
5021.000000,10693.000000,6087.000000,44073.000000
5016.000000,10692.000000,6175.000000,44012.000000
4953.000000,10719.000000,6175.000000,44013.000000
4983.000000,10691.000000,6166.000000,44052.000000
4975.000000,10695.000000,6120.000000,43986.000000
5032.000000,10643.000000,6114.000000,44046.000000
4962.000000,10709.000000,6127.000000,44092.000000
4962.000000,10633.000000,6098.000000,44048.000000
4908.000000,10660.000000,6107.000000,44058.000000
4979.000000,10629.000000,6048.000000,43989.000000
4942.000000,10667.000000,6054.000000,43956.000000
4969.000000,10615.000000,6088.000000,44104.000000
4915.000000,10603.000000,6126.000000,44029.000000
4937.000000,10611.000000,6095.000000,44028.000000
4902.000000,10634.000000,6111.000000,44010.000000
4937.000000,10604.000000,6108.000000,43983.000000
4955.000000,10601.000000,6046.000000,44057.000000
4911.000000,10644.000000,6097.000000,43967.000000
4923.000000,10634.000000,6060.000000,44034.000000
4911.000000,10671.000000,6065.000000,43994.000000
5033.000000,10619.000000,6049.000000,43986.000000
4931.000000,10599.000000,6047.000000,44039.000000
5078.000000,10651.000000,6053.000000,43977.000000
4918.000000,10649.000000,6078.000000,43950.000000
5082.000000,10651.000000,6023.000000,43992.000000
4959.000000,10620.000000,6035.000000,43994.000000
4868.000000,10656.000000,5995.000000,43995.000000
4902.000000,10580.000000,6049.000000,44001.000000
4887.000000,10571.000000,5965.000000,43969.000000
4923.000000,10639.000000,6001.000000,43984.000000
4903.000000,10607.000000,6023.000000,44044.000000
4866.000000,10606.000000,5981.000000,44009.000000
4821.000000,10568.000000,6033.000000,43962.000000
4818.000000,10587.000000,5964.000000,43979.000000
4853.000000,10548.000000,5935.000000,43943.000000
4775.000000,10521.000000,5904.000000,43920.000000
4842.000000,10532.000000,5932.000000,43916.000000
4785.000000,10480.000000,5912.000000,43951.000000
4799.000000,10548.000000,5903.000000,43885.000000
4730.000000,10459.000000,5843.000000,43910.000000
4756.000000,10472.000000,5862.000000,43916.000000
4740.000000,10379.000000,5825.000000,43872.000000
4688.000000,10408.000000,5856.000000,43872.000000
4740.000000,10500.000000,5807.000000,43840.000000
4710.000000,10473.000000,5858.000000,43885.000000
4685.000000,10424.000000,5798.000000,43845.000000
4644.000000,10439.000000,5776.000000,43853.000000
4675.000000,10473.000000,5769.000000,43861.000000
4676.000000,10435.000000,5790.000000,43899.000000
4747.000000,10424.000000,5809.000000,43868.000000
4588.000000,10405.000000,5747.000000,43838.000000
4706.000000,10430.000000,5819.000000,43843.000000
4602.000000,10402.000000,5751.000000,43789.000000
4677.000000,10437.000000,5790.000000,43889.000000
4748.000000,10474.000000,5764.000000,43859.000000
4713.000000,10469.000000,5828.000000,43891.000000
4585.000000,10484.000000,5788.000000,43829.000000
4687.000000,10479.000000,5818.000000,43915.000000
4688.000000,10448.000000,5826.000000,43918.000000
4732.000000,10489.000000,5836.000000,43940.000000
4757.000000,10462.000000,5792.000000,43913.000000
4777.000000,10457.000000,5865.000000,43913.000000
4784.000000,10499.000000,5834.000000,43878.000000
4832.000000,10449.000000,5785.000000,43908.000000
4793.000000,10514.000000,5898.000000,43957.000000
4843.000000,10513.000000,5923.000000,43886.000000
4925.000000,10555.000000,5965.000000,43946.000000
4973.000000,10564.000000,5950.000000,43990.000000
4923.000000,10609.000000,6035.000000,44009.000000
5007.000000,10680.000000,6057.000000,43955.000000
5019.000000,10722.000000,6113.000000,44061.000000
5021.000000,10779.000000,6275.000000,44076.000000
5113.000000,10792.000000,6212.000000,44119.000000
5121.000000,10803.000000,6297.000000,44168.000000
5218.000000,10848.000000,6310.000000,44200.000000
5250.000000,10894.000000,6395.000000,44120.000000
5251.000000,10902.000000,6417.000000,44185.000000
5303.000000,10877.000000,6462.000000,44201.000000
5330.000000,10939.000000,6560.000000,44202.000000
5339.000000,11002.000000,6500.000000,44226.000000
5390.000000,10921.000000,6494.000000,44199.000000
5423.000000,10979.000000,6587.000000,44265.000000
5406.000000,11051.000000,6521.000000,44292.000000
5426.000000,10995.000000,6563.000000,44245.000000
5326.000000,11068.000000,6596.000000,44268.000000
5457.000000,10996.000000,6523.000000,44225.000000
5424.000000,10940.000000,6481.000000,44104.000000
5416.000000,11002.000000,6564.000000,44282.000000
5478.000000,10989.000000,6585.000000,44194.000000
5383.000000,10937.000000,6530.000000,44269.000000
5387.000000,10986.000000,6550.000000,44296.000000
5423.000000,10849.000000,6494.000000,44243.000000
5460.000000,10956.000000,6470.000000,44231.000000
5427.000000,10964.000000,6545.000000,44177.000000
5428.000000,10952.000000,6511.000000,44215.000000
5432.000000,11011.000000,6542.000000,44193.000000
5407.000000,10918.000000,6497.000000,44217.000000
5383.000000,11001.000000,6485.000000,44238.000000
5388.000000,10951.000000,6472.000000,44215.000000
5415.000000,10988.000000,6454.000000,44226.000000
5419.000000,10963.000000,6482.000000,44226.000000
5333.000000,10925.000000,6476.000000,44225.000000
5358.000000,10945.000000,6423.000000,44213.000000
5417.000000,10949.000000,6465.000000,44200.000000
5377.000000,10931.000000,6452.000000,44241.000000
5363.000000,10925.000000,6475.000000,44301.000000
5362.000000,10927.000000,6439.000000,44202.000000
5369.000000,10945.000000,6456.000000,44215.000000
5315.000000,10957.000000,6441.000000,44034.000000
5375.000000,10926.000000,6389.000000,44245.000000
5355.000000,10866.000000,6371.000000,44181.000000
5380.000000,10937.000000,6388.000000,44192.000000
5351.000000,10824.000000,6344.000000,44058.000000
5376.000000,10933.000000,6417.000000,44210.000000
5436.000000,10984.000000,6430.000000,44242.000000
5391.000000,10873.000000,6407.000000,44222.000000
5392.000000,10868.000000,6396.000000,44197.000000
5345.000000,10890.000000,6379.000000,44160.000000
5371.000000,10897.000000,6377.000000,44183.000000
5448.000000,10906.000000,6410.000000,44193.000000
5320.000000,10881.000000,6421.000000,44192.000000
5508.000000,10947.000000,6392.000000,44228.000000
5281.000000,10887.000000,6361.000000,44219.000000
5391.000000,11077.000000,6359.000000,44143.000000
5329.000000,10897.000000,6368.000000,44165.000000
5340.000000,10929.000000,6317.000000,44104.000000
5349.000000,10913.000000,6359.000000,44118.000000
5319.000000,10942.000000,6384.000000,44153.000000
5349.000000,10886.000000,6344.000000,44144.000000
5319.000000,10861.000000,6335.000000,44118.000000
5326.000000,10841.000000,6356.000000,44149.000000
