660nm,730nm,850nm,940nm
5023.000000,14669.000000,14752.000000,50314.000000
5011.000000,14759.000000,14800.000000,50281.000000
5043.000000,14745.000000,14758.000000,50317.000000
5073.000000,14726.000000,14737.000000,50296.000000
5001.000000,14759.000000,14786.000000,50348.000000
4988.000000,14687.000000,14810.000000,50340.000000
5040.000000,14671.000000,14803.000000,50362.000000
5080.000000,14756.000000,14785.000000,50312.000000
4980.000000,14780.000000,14817.000000,50385.000000
5070.000000,14811.000000,14859.000000,50397.000000
5144.000000,14719.000000,14834.000000,50341.000000
4999.000000,14778.000000,14821.000000,50323.000000
4969.000000,14726.000000,14841.000000,50385.000000
5013.000000,14769.000000,14798.000000,50257.000000
5019.000000,14701.000000,14827.000000,50386.000000
5040.000000,14661.000000,14805.000000,50375.000000
5025.000000,14761.000000,14855.000000,50374.000000
5081.000000,14693.000000,14818.000000,50386.000000
5041.000000,14723.000000,14890.000000,50398.000000
5047.000000,14834.000000,15018.000000,50422.000000
5036.000000,14779.000000,14866.000000,50389.000000
5031.000000,14775.000000,14924.000000,50379.000000
5051.000000,14792.000000,14898.000000,50420.000000
5007.000000,14783.000000,14937.000000,50369.000000
4965.000000,14700.000000,14926.000000,50401.000000
5009.000000,14791.000000,14869.000000,50422.000000
5055.000000,14741.000000,14923.000000,50411.000000
4944.000000,14743.000000,14846.000000,50383.000000
4939.000000,14729.000000,14900.000000,50300.000000
4978.000000,14780.000000,14910.000000,50346.000000
4889.000000,14737.000000,14854.000000,50382.000000
4981.000000,14712.000000,14876.000000,50412.000000
4952.000000,14694.000000,14933.000000,50397.000000
4870.000000,14779.000000,14775.000000,50399.000000
4866.000000,14727.000000,14946.000000,50419.000000
4868.000000,14775.000000,15018.000000,50403.000000
4796.000000,14711.000000,14843.000000,50408.000000
4830.000000,14663.000000,14965.000000,50346.000000
4840.000000,14675.000000,14903.000000,50334.000000
4960.000000,14642.000000,14796.000000,50368.000000
4795.000000,14647.000000,14866.000000,50354.000000
4776.000000,14649.000000,14813.000000,50360.000000
4843.000000,14629.000000,14848.000000,50378.000000
4813.000000,14603.000000,14863.000000,50363.000000
4882.000000,14605.000000,14861.000000,50379.000000
4824.000000,14633.000000,14875.000000,50380.000000
4748.000000,14600.000000,14791.000000,50322.000000
4767.000000,14627.000000,14865.000000,50364.000000
4849.000000,14629.000000,14869.000000,50352.000000
4723.000000,14639.000000,14815.000000,50381.000000
4620.000000,14479.000000,14907.000000,50348.000000
4684.000000,14568.000000,14847.000000,50317.000000
4703.000000,14576.000000,14837.000000,50303.000000
4753.000000,14644.000000,14892.000000,50382.000000
4701.000000,14594.000000,14810.000000,50396.000000
4750.000000,14668.000000,14878.000000,50358.000000
4788.000000,14627.000000,14894.000000,50408.000000
4758.000000,14623.000000,14906.000000,50332.000000
4792.000000,14707.000000,14904.000000,50378.000000
4851.000000,14603.000000,14913.000000,50513.000000
4804.000000,14696.000000,14949.000000,50409.000000
4780.000000,14655.000000,14899.000000,50518.000000
4816.000000,14723.000000,14961.000000,50438.000000
4792.000000,14696.000000,14889.000000,50477.000000
4850.000000,14666.000000,15004.000000,50414.000000
4847.000000,14695.000000,14934.000000,50476.000000
4838.000000,14692.000000,14978.000000,50457.000000
4826.000000,14717.000000,14998.000000,50459.000000
4871.000000,14675.000000,14975.000000,50455.000000
4836.000000,14711.000000,14993.000000,50513.000000
4971.000000,14679.000000,15055.000000,50514.000000
4787.000000,14712.000000,14994.000000,50522.000000
4771.000000,14654.000000,15061.000000,50523.000000
5097.000000,14683.000000,15080.000000,50530.000000
4901.000000,14780.000000,15108.000000,50631.000000
4809.000000,14716.000000,15035.000000,50572.000000
4821.000000,14714.000000,15232.000000,50620.000000
4840.000000,14692.000000,15097.000000,50540.000000
4827.000000,14729.000000,15082.000000,50484.000000
4771.000000,14707.000000,15120.000000,50543.000000
4700.000000,14719.000000,15133.000000,50517.000000
4739.000000,14747.000000,15144.000000,50588.000000
4661.000000,14707.000000,15176.000000,50549.000000
4819.000000,14692.000000,15166.000000,50635.000000
4768.000000,14703.000000,15138.000000,50617.000000
4866.000000,14703.000000,15201.000000,50570.000000
4763.000000,14751.000000,15219.000000,50629.000000
4857.000000,14627.000000,15163.000000,50583.000000
4799.000000,14695.000000,15258.000000,50631.000000
4829.000000,14711.000000,15225.000000,50505.000000
4779.000000,14750.000000,15300.000000,50641.000000
4773.000000,14734.000000,15323.000000,50696.000000
4797.000000,14727.000000,15345.000000,50672.000000
4852.000000,14769.000000,15354.000000,50645.000000
4845.000000,14753.000000,15348.000000,50629.000000
4936.000000,14808.000000,15492.000000,50808.000000
5052.000000,14886.000000,15444.000000,50816.000000
5011.000000,14873.000000,15649.000000,50852.000000
4950.000000,15011.000000,15490.000000,50811.000000
4958.000000,14886.000000,15573.000000,50821.000000
4971.000000,14890.000000,15552.000000,50735.000000
4998.000000,14901.000000,15606.000000,50849.000000
4989.000000,14927.000000,15678.000000,50850.000000
5041.000000,14932.000000,15671.000000,50840.000000
5030.000000,14969.000000,15764.000000,50894.000000
4995.000000,14939.000000,15780.000000,50909.000000
5036.000000,14948.000000,15745.000000,50925.000000
5035.000000,14858.000000,15712.000000,50911.000000
5128.000000,14985.000000,15873.000000,50985.000000
4933.000000,15023.000000,15791.000000,50966.000000
5016.000000,15012.000000,15905.000000,51009.000000
4985.000000,15003.000000,15900.000000,50970.000000
4996.000000,15035.000000,15920.000000,50954.000000
4938.000000,15067.000000,15887.000000,50856.000000
5016.000000,14976.000000,15914.000000,50971.000000
5015.000000,15224.000000,15928.000000,50905.000000
4953.000000,14950.000000,15900.000000,51003.000000
4945.000000,14948.000000,15878.000000,50937.000000
4940.000000,15026.000000,15933.000000,50949.000000
4955.000000,14977.000000,15841.000000,50951.000000
4964.000000,14976.000000,15857.000000,50891.000000
4941.000000,14966.000000,15835.000000,50950.000000
4968.000000,14986.000000,15923.000000,50900.000000
4968.000000,15021.000000,15858.000000,50902.000000
5002.000000,14952.000000,15835.000000,50886.000000
4949.000000,14981.000000,15877.000000,50959.000000
4893.000000,14964.000000,15870.000000,50950.000000
4943.000000,15143.000000,15864.000000,50940.000000
4928.000000,15008.000000,15776.000000,50937.000000
4952.000000,14968.000000,15825.000000,51038.000000
4925.000000,14967.000000,15892.000000,50952.000000
4871.000000,14970.000000,15853.000000,50956.000000
4873.000000,14961.000000,15785.000000,50938.000000
4976.000000,14874.000000,15794.000000,50987.000000
4865.000000,14983.000000,15816.000000,50969.000000
4915.000000,14935.000000,15889.000000,50915.000000
4939.000000,14930.000000,15835.000000,50952.000000
4905.000000,15053.000000,15844.000000,50883.000000
4888.000000,14960.000000,15831.000000,50951.000000
4952.000000,14974.000000,15803.000000,50940.000000
4905.000000,15011.000000,15851.000000,50952.000000
4885.000000,14938.000000,15851.000000,50963.000000
4821.000000,14973.000000,15761.000000,50934.000000
4777.000000,14974.000000,15894.000000,50952.000000
4815.000000,14939.000000,15840.000000,50893.000000
4777.000000,14920.000000,15787.000000,50903.000000
4748.000000,14928.000000,15790.000000,50867.000000
4709.000000,15057.000000,15783.000000,50840.000000
4667.000000,14918.000000,15813.000000,50993.000000
4648.000000,14914.000000,15728.000000,50992.000000
4749.000000,14951.000000,15764.000000,50946.000000
4696.000000,14792.000000,15735.000000,50901.000000
4797.000000,14929.000000,15825.000000,50852.000000
4800.000000,14919.000000,15754.000000,50821.000000
4718.000000,14913.000000,15698.000000,50875.000000
4729.000000,14871.000000,15739.000000,50890.000000
4681.000000,14854.000000,15733.000000,50894.000000
4678.000000,14804.000000,15780.000000,50845.000000
4559.000000,14868.000000,15733.000000,50853.000000
4628.000000,14858.000000,15659.000000,50872.000000
4602.000000,14735.000000,15736.000000,50777.000000
4674.000000,14857.000000,15723.000000,50859.000000
4618.000000,14807.000000,15785.000000,50843.000000
4628.000000,14827.000000,15675.000000,50817.000000
4631.000000,14835.000000,15682.000000,50827.000000
4627.000000,14857.000000,15667.000000,50835.000000
4666.000000,14779.000000,15627.000000,50818.000000
4608.000000,14813.000000,15638.000000,50809.000000
4628.000000,14827.000000,15660.000000,50919.000000
4605.000000,14813.000000,15696.000000,50844.000000
4632.000000,14772.000000,15707.000000,50792.000000
4612.000000,14804.000000,15646.000000,50856.000000
4621.000000,14811.000000,15710.000000,50864.000000
4514.000000,14628.000000,15650.000000,50817.000000
4575.000000,14787.000000,15633.000000,50851.000000
4686.000000,14796.000000,15649.000000,50751.000000
4614.000000,14838.000000,15571.000000,50761.000000
4575.000000,14822.000000,15650.000000,50921.000000
4603.000000,14804.000000,15617.000000,50809.000000
4548.000000,14737.000000,15669.000000,50929.000000
4557.000000,14758.000000,15757.000000,50813.000000
4637.000000,14807.000000,15708.000000,50784.000000
4622.000000,14764.000000,15663.000000,50811.000000
4727.000000,14772.000000,15655.000000,50840.000000
4448.000000,14762.000000,15563.000000,50766.000000
4530.000000,14703.000000,15607.000000,50699.000000
4603.000000,14826.000000,15614.000000,50933.000000
4534.000000,14727.000000,15602.000000,50796.000000
4583.000000,14787.000000,15571.000000,50682.000000
4501.000000,14696.000000,15566.000000,50797.000000
4526.000000,14612.000000,15640.000000,50758.000000
4529.000000,14746.000000,15492.000000,50760.000000
4497.000000,14728.000000,15470.000000,50828.000000
4510.000000,14687.000000,15534.000000,50716.000000
4455.000000,14705.000000,15685.000000,50723.000000
4480.000000,14721.000000,15537.000000,50755.000000
4507.000000,14660.000000,15555.000000,50801.000000
4433.000000,14711.000000,15526.000000,50765.000000
4464.000000,14748.000000,15522.000000,50775.000000
4367.000000,14664.000000,15528.000000,50772.000000
4513.000000,14751.000000,15576.000000,50777.000000
4495.000000,14732.000000,15540.000000,50749.000000
4499.000000,14656.000000,15572.000000,50764.000000
4465.000000,14778.000000,15476.000000,50783.000000
4528.000000,14697.000000,15561.000000,50829.000000
4537.000000,14611.000000,15533.000000,50742.000000
4517.000000,14725.000000,15605.000000,50836.000000
4502.000000,14767.000000,15526.000000,50729.000000
4525.000000,14724.000000,15558.000000,50802.000000
4532.000000,14779.000000,15555.000000,50790.000000
4545.000000,14796.000000,15566.000000,50821.000000
4562.000000,14786.000000,15605.000000,50776.000000
4529.000000,14734.000000,15671.000000,50784.000000
4566.000000,14756.000000,15635.000000,50822.000000
4616.000000,14794.000000,15679.000000,50722.000000
4573.000000,14735.000000,15646.000000,50861.000000
4619.000000,14687.000000,15642.000000,50823.000000
4603.000000,14823.000000,15694.000000,50870.000000
4616.000000,14796.000000,15797.000000,50794.000000
4718.000000,14841.000000,15767.000000,50882.000000
4659.000000,14860.000000,15767.000000,50867.000000
4681.000000,14914.000000,15837.000000,50933.000000
4730.000000,14816.000000,15908.000000,50935.000000
4781.000000,14981.000000,15943.000000,50977.000000
4784.000000,14969.000000,16006.000000,51048.000000
4707.000000,15001.000000,15998.000000,51097.000000
4848.000000,15033.000000,16074.000000,51019.000000
4924.000000,15051.000000,15967.000000,51085.000000
4981.000000,15087.000000,16247.000000,51159.000000
4996.000000,15138.000000,16252.000000,51273.000000
5041.000000,15155.000000,16184.000000,51144.000000
4989.000000,15159.000000,16227.000000,51077.000000
5061.000000,15165.000000,16265.000000,51113.000000
5020.000000,15177.000000,16244.000000,51131.000000
4790.000000,15116.000000,16210.000000,51066.000000
4968.000000,15116.000000,16247.000000,51092.000000
4866.000000,15182.000000,16236.000000,51187.000000
4976.000000,15094.000000,16254.000000,51096.000000
4982.000000,15099.000000,16305.000000,51177.000000
4988.000000,15111.000000,16211.000000,51105.000000
4935.000000,15184.000000,16221.000000,51215.000000
5015.000000,15175.000000,16183.000000,51063.000000
5021.000000,15066.000000,16088.000000,50934.000000
4932.000000,15044.000000,16119.000000,51086.000000
4993.000000,15130.000000,16204.000000,51163.000000
4997.000000,15038.000000,16167.000000,51110.000000
4937.000000,15021.000000,16185.000000,51106.000000
4871.000000,14954.000000,16044.000000,51142.000000
4910.000000,15056.000000,16163.000000,51129.000000
4912.000000,15095.000000,16185.000000,51116.000000
4920.000000,14943.000000,16150.000000,51057.000000
4973.000000,15204.000000,16098.000000,51019.000000
4900.000000,15126.000000,16082.000000,51135.000000
4975.000000,15034.000000,16133.000000,51038.000000
4845.000000,15017.000000,16131.000000,51019.000000
4774.000000,15068.000000,16061.000000,51052.000000
4846.000000,15027.000000,16087.000000,51021.000000
4823.000000,14994.000000,16038.000000,51041.000000
4817.000000,14952.000000,16250.000000,51004.000000
4819.000000,15015.000000,16149.000000,51028.000000
4899.000000,14942.000000,16119.000000,50974.000000
4789.000000,15011.000000,16054.000000,51012.000000
4802.000000,14816.000000,16036.000000,50971.000000
4784.000000,14964.000000,16071.000000,50995.000000
4846.000000,14871.000000,16114.000000,50900.000000
4743.000000,14997.000000,16075.000000,51022.000000
4796.000000,14949.000000,16019.000000,50956.000000
5004.000000,15016.000000,15999.000000,51005.000000
4780.000000,15050.000000,16029.000000,51020.000000
4772.000000,14910.000000,15999.000000,50967.000000
4735.000000,14937.000000,15998.000000,51069.000000
4770.000000,15017.000000,15907.000000,50965.000000
4785.000000,14958.000000,15942.000000,50980.000000
4797.000000,14926.000000,15917.000000,51101.000000
4745.000000,14903.000000,15912.000000,50957.000000
4767.000000,14944.000000,15894.000000,51097.000000
4722.000000,14883.000000,15931.000000,50932.000000
4651.000000,14883.000000,15899.000000,50906.000000
4695.000000,14947.000000,15880.000000,50943.000000
4664.000000,14885.000000,15901.000000,50989.000000
4623.000000,14956.000000,15997.000000,50964.000000
4686.000000,14881.000000,15861.000000,50899.000000
4668.000000,14883.000000,15824.000000,51016.000000
4717.000000,14889.000000,15915.000000,50926.000000
4818.000000,14847.000000,15736.000000,50908.000000
4659.000000,14877.000000,15827.000000,50899.000000
4649.000000,14899.000000,15652.000000,50882.000000
4657.000000,14894.000000,15797.000000,50914.000000
4636.000000,14822.000000,15860.000000,50911.000000
4439.000000,14910.000000,15768.000000,50876.000000
4566.000000,14835.000000,15788.000000,50875.000000
4679.000000,14735.000000,15798.000000,50948.000000
4533.000000,14839.000000,15719.000000,50835.000000
4617.000000,14798.000000,15759.000000,50832.000000
4604.000000,14754.000000,15752.000000,50881.000000
4597.000000,14794.000000,15737.000000,50843.000000
4498.000000,14801.000000,15751.000000,50887.000000
4563.000000,14831.000000,15733.000000,50912.000000
4584.000000,14778.000000,15678.000000,50838.000000
4560.000000,14737.000000,15822.000000,50824.000000
4548.000000,14768.000000,15695.000000,50842.000000
4610.000000,14779.000000,15697.000000,50846.000000
4583.000000,14754.000000,15773.000000,50860.000000
4605.000000,14776.000000,15784.000000,50854.000000
4597.000000,14861.000000,15704.000000,50866.000000
4578.000000,14778.000000,15690.000000,50848.000000
4581.000000,14857.000000,15595.000000,50813.000000
4546.000000,14798.000000,15669.000000,50868.000000
4492.000000,14746.000000,15671.000000,50984.000000
4516.000000,14767.000000,15641.000000,50823.000000
4550.000000,14743.000000,15623.000000,50807.000000
4537.000000,14762.000000,15617.000000,50806.000000
4485.000000,14692.000000,15672.000000,50823.000000
4540.000000,14797.000000,15616.000000,50914.000000
4540.000000,14754.000000,15577.000000,50740.000000
4531.000000,14831.000000,15726.000000,50795.000000
4546.000000,14787.000000,15558.000000,50816.000000
4483.000000,14836.000000,15510.000000,50840.000000
4488.000000,14731.000000,15565.000000,50757.000000
4497.000000,14760.000000,15556.000000,50678.000000
4460.000000,14683.000000,15589.000000,50848.000000
4577.000000,14695.000000,15543.000000,50790.000000
4506.000000,14721.000000,15607.000000,50774.000000
4402.000000,14726.000000,15547.000000,50760.000000
4661.000000,14708.000000,15668.000000,50853.000000
4492.000000,14738.000000,15518.000000,50762.000000
4555.000000,14780.000000,15488.000000,50705.000000
4497.000000,14785.000000,15593.000000,50811.000000
4500.000000,14743.000000,15579.000000,50826.000000
4506.000000,14707.000000,15586.000000,50695.000000
4505.000000,14736.000000,15645.000000,50887.000000
4516.000000,14743.000000,15634.000000,50836.000000
4581.000000,14839.000000,15617.000000,50803.000000
4489.000000,14715.000000,15573.000000,50816.000000
4533.000000,14719.000000,15609.000000,50788.000000
4624.000000,14843.000000,15742.000000,50800.000000
4522.000000,14693.000000,15627.000000,50837.000000
4590.000000,14760.000000,15465.000000,50815.000000
4609.000000,14743.000000,15594.000000,50802.000000
4542.000000,14876.000000,15859.000000,50835.000000
4639.000000,14835.000000,15714.000000,50886.000000
4643.000000,14802.000000,15745.000000,50801.000000
4736.000000,14841.000000,15776.000000,50946.000000
4880.000000,14866.000000,15833.000000,50900.000000
4765.000000,14895.000000,15901.000000,50942.000000
4783.000000,14953.000000,15889.000000,51017.000000
4849.000000,15031.000000,15970.000000,51018.000000
4891.000000,14993.000000,16079.000000,51039.000000
4797.000000,15048.000000,16146.000000,51174.000000
4969.000000,15127.000000,16117.000000,51105.000000
4974.000000,15005.000000,16103.000000,51151.000000
5000.000000,15135.000000,16274.000000,51071.000000
5049.000000,15213.000000,16283.000000,51250.000000
5103.000000,15195.000000,16332.000000,51183.000000
5089.000000,15187.000000,16235.000000,51214.000000
5067.000000,15143.000000,16323.000000,51154.000000
5092.000000,15159.000000,16363.000000,51261.000000
5111.000000,14986.000000,16305.000000,51239.000000
5000.000000,15138.000000,16221.000000,51150.000000
5178.000000,15148.000000,16314.000000,51174.000000
5059.000000,15228.000000,16285.000000,51183.000000
4965.000000,15240.000000,16234.000000,51107.000000
5039.000000,15147.000000,16166.000000,51152.000000
5040.000000,15100.000000,16184.000000,51176.000000
5019.000000,15107.000000,16286.000000,51107.000000
5025.000000,15149.000000,16211.000000,51163.000000
5086.000000,15135.000000,16195.000000,51127.000000
4991.000000,15129.000000,16216.000000,51071.000000
5035.000000,15043.000000,16079.000000,51137.000000
5008.000000,15139.000000,16133.000000,51150.000000
5099.000000,15181.000000,16101.000000,51157.000000
4982.000000,15111.000000,16190.000000,51068.000000
4976.000000,15103.000000,16278.000000,51114.000000
5037.000000,15175.000000,16184.000000,51119.000000
5014.000000,15170.000000,16096.000000,51094.000000
4960.000000,15070.000000,16145.000000,51079.000000
4979.000000,15103.000000,16182.000000,51083.000000
4933.000000,15080.000000,16147.000000,51090.000000
5013.000000,15074.000000,16152.000000,51143.000000
4967.000000,15069.000000,16125.000000,51003.000000
5005.000000,15036.000000,16159.000000,51067.000000
4990.000000,15111.000000,16115.000000,51069.000000
4940.000000,15062.000000,16091.000000,51085.000000
4929.000000,15098.000000,16062.000000,50973.000000
4908.000000,15056.000000,16149.000000,51045.000000
4943.000000,15045.000000,16063.000000,51123.000000
4892.000000,15051.000000,16069.000000,51078.000000
4867.000000,14962.000000,16129.000000,51060.000000
4895.000000,15040.000000,16049.000000,51054.000000
4908.000000,15004.000000,16071.000000,51058.000000
4905.000000,15016.000000,16014.000000,51024.000000
4829.000000,15052.000000,16004.000000,51047.000000
4933.000000,15005.000000,15974.000000,51031.000000
4824.000000,14995.000000,15961.000000,51056.000000
4836.000000,15231.000000,16010.000000,50999.000000
4850.000000,14984.000000,15919.000000,51007.000000
4818.000000,14885.000000,16040.000000,51015.000000
4828.000000,14979.000000,15980.000000,51121.000000
4862.000000,15041.000000,15931.000000,50985.000000
4855.000000,14988.000000,15972.000000,50979.000000
4845.000000,14969.000000,15949.000000,50954.000000
4832.000000,14966.000000,15928.000000,51009.000000
4787.000000,14963.000000,15916.000000,50977.000000
4895.000000,14931.000000,15884.000000,50972.000000
4765.000000,14902.000000,15857.000000,50962.000000
4793.000000,15001.000000,15868.000000,51041.000000
4908.000000,14947.000000,15889.000000,50925.000000
4763.000000,14956.000000,15863.000000,50925.000000
4809.000000,14948.000000,15764.000000,50930.000000
4796.000000,14902.000000,15789.000000,50854.000000
4746.000000,14888.000000,15772.000000,50922.000000
4716.000000,14946.000000,15788.000000,50877.000000
4727.000000,14877.000000,15802.000000,50946.000000
4710.000000,14837.000000,15758.000000,50884.000000
4653.000000,14930.000000,15694.000000,50880.000000
4716.000000,14878.000000,15726.000000,50886.000000
4779.000000,14824.000000,15711.000000,50984.000000
4677.000000,14825.000000,15749.000000,50921.000000
4729.000000,14956.000000,15744.000000,50847.000000
4685.000000,14755.000000,15733.000000,50889.000000
4727.000000,14819.000000,15730.000000,50894.000000
4743.000000,14877.000000,15706.000000,50898.000000
4632.000000,14799.000000,15656.000000,50810.000000
4638.000000,14878.000000,15718.000000,50863.000000
4648.000000,14851.000000,15705.000000,50866.000000
4767.000000,14839.000000,15706.000000,50849.000000
4658.000000,14833.000000,15652.000000,50886.000000
4768.000000,14832.000000,15714.000000,50862.000000
4625.000000,14843.000000,15769.000000,50798.000000
4511.000000,14811.000000,15693.000000,51010.000000
4672.000000,14808.000000,15654.000000,50753.000000
4616.000000,14880.000000,15628.000000,50882.000000
4661.000000,14812.000000,15685.000000,50817.000000
4601.000000,14847.000000,15649.000000,51008.000000
4686.000000,14806.000000,15671.000000,50837.000000
4660.000000,14796.000000,15717.000000,50812.000000
4638.000000,14830.000000,15797.000000,50860.000000
4646.000000,14848.000000,15634.000000,50842.000000
4576.000000,14736.000000,15654.000000,50830.000000
4556.000000,14721.000000,15635.000000,50873.000000
4599.000000,14841.000000,15486.000000,50823.000000
4667.000000,14734.000000,15679.000000,50894.000000
4634.000000,14759.000000,15737.000000,50786.000000
4615.000000,14839.000000,15640.000000,50839.000000
4591.000000,14804.000000,15555.000000,50749.000000
4629.000000,14798.000000,15590.000000,50806.000000
4569.000000,14712.000000,15511.000000,50822.000000
4558.000000,14744.000000,15573.000000,50822.000000
4552.000000,14664.000000,15559.000000,50798.000000
4544.000000,14721.000000,15548.000000,50763.000000
4530.000000,14651.000000,15502.000000,50775.000000
4487.000000,14743.000000,15564.000000,50713.000000
4589.000000,14663.000000,15580.000000,50795.000000
4550.000000,14783.000000,15553.000000,50784.000000
4573.000000,14725.000000,15512.000000,50822.000000
4559.000000,14831.000000,15581.000000,50891.000000
4559.000000,14748.000000,15576.000000,50757.000000
4588.000000,14691.000000,15571.000000,50850.000000
4586.000000,14740.000000,15584.000000,50858.000000
4573.000000,14709.000000,15649.000000,50824.000000
4527.000000,14729.000000,15573.000000,50783.000000
4571.000000,14753.000000,15635.000000,50872.000000
4605.000000,14710.000000,15694.000000,50955.000000
4593.000000,14751.000000,15660.000000,50820.000000
4686.000000,14768.000000,15561.000000,50727.000000
4592.000000,14773.000000,15577.000000,50811.000000
4694.000000,14819.000000,15556.000000,50873.000000
4613.000000,14756.000000,15711.000000,50799.000000
4742.000000,14779.000000,15653.000000,50856.000000
4694.000000,14842.000000,15741.000000,50866.000000
4689.000000,14803.000000,15793.000000,50926.000000
4760.000000,14879.000000,15849.000000,50921.000000
4785.000000,14917.000000,15833.000000,50934.000000
4810.000000,14914.000000,15983.000000,51016.000000
4777.000000,14963.000000,15965.000000,51003.000000
4879.000000,15055.000000,15960.000000,51109.000000
4979.000000,15086.000000,16079.000000,51049.000000
5071.000000,15061.000000,16233.000000,51218.000000
5110.000000,15221.000000,16317.000000,51205.000000
5135.000000,15186.000000,16284.000000,51170.000000
5176.000000,15199.000000,16360.000000,51344.000000
5166.000000,15247.000000,16359.000000,51170.000000
5152.000000,15131.000000,16502.000000,51208.000000
5121.000000,15220.000000,16356.000000,51281.000000
5148.000000,15207.000000,16334.000000,51225.000000
5152.000000,15187.000000,16282.000000,51133.000000
5042.000000,15175.000000,16302.000000,51266.000000
5100.000000,15207.000000,16289.000000,51204.000000
5076.000000,15147.000000,16263.000000,51174.000000
5092.000000,15244.000000,16336.000000,51157.000000
5066.000000,15135.000000,16168.000000,51146.000000
5085.000000,15149.000000,16236.000000,51142.000000
5047.000000,15163.000000,16189.000000,51132.000000
5018.000000,15119.000000,16195.000000,51146.000000
5070.000000,15006.000000,16097.000000,51171.000000
5032.000000,15119.000000,16200.000000,51115.000000
5071.000000,15170.000000,16237.000000,51124.000000
5017.000000,15165.000000,16178.000000,51072.000000
5034.000000,15055.000000,16188.000000,51070.000000
5086.000000,15137.000000,16188.000000,51154.000000
5025.000000,15065.000000,16164.000000,51051.000000
5056.000000,15152.000000,16189.000000,51138.000000
5024.000000,15103.000000,16118.000000,51025.000000
5006.000000,15080.000000,16093.000000,51305.000000
4958.000000,14989.000000,16118.000000,51078.000000
4976.000000,15047.000000,16131.000000,51038.000000
4962.000000,15102.000000,16083.000000,51026.000000
4951.000000,15047.000000,16129.000000,51079.000000
5023.000000,15053.000000,16004.000000,51071.000000
4929.000000,15003.000000,16079.000000,51055.000000
4890.000000,15091.000000,16068.000000,51096.000000
4955.000000,15052.000000,16077.000000,51017.000000
4816.000000,15083.000000,16131.000000,51087.000000
4961.000000,15064.000000,16059.000000,51042.000000
4944.000000,14994.000000,16066.000000,51085.000000
4904.000000,15074.000000,16020.000000,51036.000000
4889.000000,15013.000000,16041.000000,51029.000000
4896.000000,15028.000000,15996.000000,51018.000000
4895.000000,15065.000000,16034.000000,51071.000000
4937.000000,15040.000000,16244.000000,50999.000000
4951.000000,15003.000000,15983.000000,51054.000000
4790.000000,14974.000000,15972.000000,50985.000000
4869.000000,15036.000000,15983.000000,51025.000000
4820.000000,14948.000000,15964.000000,51011.000000
4932.000000,15016.000000,15967.000000,50983.000000
4867.000000,15029.000000,15938.000000,50929.000000
4918.000000,14989.000000,15902.000000,51001.000000
4799.000000,14923.000000,15977.000000,51028.000000
4902.000000,14964.000000,15921.000000,50930.000000
4806.000000,14851.000000,15938.000000,50908.000000
4834.000000,14919.000000,15820.000000,50961.000000
4818.000000,14972.000000,15848.000000,50947.000000
4852.000000,14966.000000,15942.000000,50971.000000
4835.000000,14882.000000,15792.000000,50952.000000
4794.000000,14997.000000,15821.000000,50961.000000
4774.000000,14899.000000,15822.000000,50965.000000
4843.000000,14908.000000,15825.000000,50951.000000
4842.000000,14841.000000,15794.000000,50939.000000
4775.000000,14876.000000,15735.000000,50972.000000
4767.000000,14920.000000,15757.000000,50908.000000
4793.000000,14837.000000,15767.000000,50954.000000
4789.000000,14889.000000,15811.000000,50905.000000
4795.000000,14913.000000,15717.000000,50856.000000
4811.000000,14866.000000,15755.000000,50898.000000
4775.000000,14951.000000,15761.000000,50907.000000
4752.000000,14858.000000,15819.000000,50922.000000
4810.000000,14871.000000,15784.000000,50843.000000
4742.000000,14972.000000,15729.000000,50887.000000
4719.000000,14860.000000,15762.000000,50892.000000
4804.000000,14844.000000,15848.000000,50871.000000
4749.000000,14826.000000,15757.000000,50838.000000
4858.000000,14820.000000,15700.000000,50909.000000
4741.000000,14856.000000,15707.000000,50938.000000
4780.000000,14785.000000,15742.000000,50863.000000
4780.000000,14818.000000,15749.000000,50912.000000
4731.000000,14910.000000,15705.000000,50886.000000
4690.000000,14809.000000,15666.000000,50810.000000
4747.000000,14837.000000,15707.000000,50854.000000
4673.000000,14829.000000,15708.000000,50830.000000
4709.000000,14859.000000,15725.000000,50865.000000
4681.000000,14844.000000,15669.000000,50943.000000
4697.000000,14843.000000,15764.000000,50883.000000
4693.000000,14801.000000,15787.000000,50843.000000
4665.000000,14787.000000,15696.000000,50933.000000
4623.000000,14815.000000,15623.000000,50899.000000
4685.000000,15023.000000,15658.000000,50795.000000
4697.000000,14880.000000,15634.000000,50783.000000
4610.000000,14762.000000,15638.000000,50810.000000
4631.000000,14752.000000,15630.000000,50870.000000
4646.000000,14803.000000,15679.000000,50797.000000
4659.000000,14786.000000,15646.000000,50843.000000
4636.000000,14757.000000,15534.000000,50771.000000
4610.000000,14751.000000,15658.000000,50827.000000
4668.000000,14759.000000,15555.000000,50781.000000
4645.000000,14784.000000,15573.000000,50856.000000
4681.000000,14747.000000,15473.000000,50830.000000
4680.000000,14800.000000,15704.000000,50841.000000
4593.000000,14783.000000,15586.000000,50799.000000
4717.000000,14795.000000,15637.000000,50753.000000
4772.000000,14721.000000,15715.000000,50920.000000
4651.000000,14775.000000,15648.000000,50840.000000
4699.000000,14840.000000,15634.000000,50900.000000
4703.000000,14798.000000,15676.000000,50861.000000
4699.000000,14830.000000,15662.000000,50831.000000
4702.000000,14818.000000,15577.000000,50892.000000
4732.000000,14804.000000,15762.000000,50887.000000
4723.000000,14937.000000,15648.000000,50943.000000
4765.000000,14891.000000,15643.000000,50970.000000
4814.000000,14925.000000,15856.000000,50874.000000
4878.000000,14955.000000,15855.000000,50973.000000
4866.000000,14966.000000,15746.000000,50976.000000
4899.000000,14971.000000,15924.000000,51016.000000
4911.000000,15026.000000,16022.000000,51002.000000
5000.000000,15051.000000,15997.000000,51057.000000
5000.000000,15063.000000,16082.000000,51047.000000
5253.000000,15186.000000,16379.000000,51279.000000
5129.000000,15181.000000,16237.000000,51133.000000
5071.000000,15178.000000,16305.000000,51236.000000
5113.000000,15218.000000,16290.000000,51201.000000
5101.000000,15078.000000,16218.000000,51042.000000
5164.000000,15195.000000,16328.000000,51234.000000
5227.000000,15151.000000,16294.000000,51142.000000
5135.000000,15173.000000,16278.000000,51156.000000
5120.000000,15179.000000,16228.000000,51130.000000
5153.000000,15178.000000,16258.000000,51183.000000
5123.000000,15133.000000,16239.000000,51181.000000
5117.000000,15183.000000,16130.000000,51271.000000
5103.000000,15125.000000,16213.000000,51177.000000
5010.000000,15182.000000,16202.000000,51246.000000
5120.000000,15148.000000,16245.000000,51173.000000
5106.000000,15156.000000,16113.000000,51115.000000
5073.000000,15123.000000,16160.000000,51029.000000
5081.000000,15055.000000,16184.000000,51115.000000
5060.000000,15111.000000,16190.000000,51124.000000
5056.000000,15123.000000,16191.000000,51045.000000
5075.000000,15125.000000,16181.000000,51165.000000
5100.000000,15105.000000,16102.000000,51087.000000
5044.000000,15080.000000,16150.000000,51129.000000
5070.000000,15039.000000,16084.000000,51043.000000
5097.000000,15117.000000,16147.000000,51213.000000
4972.000000,15073.000000,16195.000000,51129.000000
5042.000000,15034.000000,16082.000000,51053.000000
5061.000000,15050.000000,16155.000000,51022.000000
5039.000000,15041.000000,16045.000000,51177.000000
5085.000000,15055.000000,16103.000000,51115.000000
5008.000000,15055.000000,16092.000000,51148.000000
5033.000000,15055.000000,16112.000000,51060.000000
5009.000000,15038.000000,16101.000000,51067.000000
5036.000000,15058.000000,16122.000000,51057.000000
4955.000000,15030.000000,16075.000000,51073.000000
5054.000000,14918.000000,16063.000000,51044.000000
5024.000000,15031.000000,16071.000000,51040.000000
5029.000000,15129.000000,16225.000000,51023.000000
4975.000000,15029.000000,16015.000000,51066.000000
4952.000000,14935.000000,16034.000000,50917.000000
4999.000000,14958.000000,16047.000000,50979.000000
5007.000000,15056.000000,15999.000000,51000.000000
4990.000000,15006.000000,15961.000000,51049.000000
4943.000000,15000.000000,16004.000000,51008.000000
4949.000000,14989.000000,15968.000000,50993.000000
4928.000000,14939.000000,15994.000000,51019.000000
4881.000000,14931.000000,16020.000000,50951.000000
4894.000000,14985.000000,15971.000000,50998.000000
4905.000000,14923.000000,15987.000000,51044.000000
4861.000000,14968.000000,15986.000000,51057.000000
4910.000000,15010.000000,15960.000000,51049.000000
4885.000000,14957.000000,15903.000000,50996.000000
4844.000000,14964.000000,16030.000000,50946.000000
4850.000000,14968.000000,15952.000000,51030.000000
4833.000000,14984.000000,15886.000000,50945.000000
4859.000000,14929.000000,15892.000000,51023.000000
4887.000000,14951.000000,15827.000000,50974.000000
4853.000000,14923.000000,15884.000000,50987.000000
4822.000000,14923.000000,15913.000000,50986.000000
4943.000000,14927.000000,15890.000000,50889.000000
4863.000000,14901.000000,15882.000000,50967.000000
4847.000000,14851.000000,15777.000000,51090.000000
4864.000000,14885.000000,15781.000000,50918.000000
4720.000000,14830.000000,15807.000000,51006.000000
4839.000000,14866.000000,15786.000000,50962.000000
4829.000000,14840.000000,15843.000000,50997.000000
4816.000000,14853.000000,15808.000000,50897.000000
4736.000000,14810.000000,15774.000000,50911.000000
4807.000000,14843.000000,15730.000000,50916.000000
4834.000000,14850.000000,15700.000000,50915.000000
4816.000000,14845.000000,15912.000000,50975.000000
4806.000000,14787.000000,15802.000000,50989.000000
4821.000000,14814.000000,15688.000000,50977.000000
4784.000000,14850.000000,15819.000000,50863.000000
4710.000000,14936.000000,15844.000000,50951.000000
4771.000000,14846.000000,15690.000000,50848.000000
4740.000000,14832.000000,15641.000000,50862.000000
4713.000000,14891.000000,15754.000000,50901.000000
4728.000000,14859.000000,15737.000000,50896.000000
4710.000000,14833.000000,15738.000000,50894.000000
4662.000000,14815.000000,15704.000000,50919.000000
4735.000000,14858.000000,15701.000000,50881.000000
4743.000000,14793.000000,15772.000000,50916.000000
4637.000000,14753.000000,15713.000000,50873.000000
4670.000000,14831.000000,15768.000000,50878.000000
4672.000000,14824.000000,15732.000000,50879.000000
4699.000000,14882.000000,15727.000000,50930.000000
4595.000000,14698.000000,15704.000000,50872.000000
4705.000000,14827.000000,15682.000000,50864.000000
4680.000000,14827.000000,15818.000000,50896.000000
4679.000000,14774.000000,15674.000000,50896.000000
4684.000000,14667.000000,15644.000000,50818.000000
4679.000000,14796.000000,15692.000000,50862.000000
4712.000000,14797.000000,15670.000000,50877.000000
4677.000000,14758.000000,15634.000000,50900.000000
4679.000000,14744.000000,15692.000000,50849.000000
4651.000000,14810.000000,15614.000000,50855.000000
4633.000000,14713.000000,15666.000000,50851.000000
4626.000000,14773.000000,15753.000000,50802.000000
4554.000000,14772.000000,15590.000000,50890.000000
4693.000000,14590.000000,15549.000000,50841.000000
4622.000000,14711.000000,15614.000000,50798.000000
4572.000000,14772.000000,15549.000000,50847.000000
4602.000000,14724.000000,15588.000000,50839.000000
4659.000000,14712.000000,15592.000000,50806.000000
4705.000000,14715.000000,15687.000000,50870.000000
4584.000000,14737.000000,15661.000000,50830.000000
4585.000000,14612.000000,15513.000000,50737.000000
4652.000000,14748.000000,15611.000000,50877.000000
4691.000000,14706.000000,15576.000000,50766.000000
4632.000000,14740.000000,15604.000000,50831.000000
4605.000000,14655.000000,15675.000000,50864.000000
4639.000000,14765.000000,15618.000000,50857.000000
4596.000000,14709.000000,15593.000000,50942.000000
4601.000000,14704.000000,15657.000000,50873.000000
4660.000000,14796.000000,15590.000000,50827.000000
4693.000000,14767.000000,15628.000000,50836.000000
4625.000000,14780.000000,15707.000000,50839.000000
4597.000000,14678.000000,15726.000000,50881.000000
4653.000000,14815.000000,15696.000000,50852.000000
4708.000000,14745.000000,15686.000000,50755.000000
4698.000000,14855.000000,15750.000000,50913.000000
4644.000000,14800.000000,15847.000000,50780.000000
4743.000000,14797.000000,15665.000000,50868.000000
4655.000000,14764.000000,15766.000000,50921.000000
4745.000000,14875.000000,15801.000000,50920.000000
4776.000000,14869.000000,15769.000000,50891.000000
4759.000000,14875.000000,15869.000000,50942.000000
4824.000000,14906.000000,15928.000000,51033.000000
4773.000000,14928.000000,15976.000000,51033.000000
4816.000000,14952.000000,16002.000000,51019.000000
5016.000000,15060.000000,16053.000000,51043.000000
5022.000000,15024.000000,16136.000000,51119.000000
4999.000000,15128.000000,16247.000000,51236.000000
5151.000000,15164.000000,16271.000000,51128.000000
5110.000000,15195.000000,16337.000000,51171.000000
5154.000000,15168.000000,16272.000000,51201.000000
5182.000000,15183.000000,16255.000000,51302.000000
5153.000000,15189.000000,16346.000000,51179.000000
5173.000000,15135.000000,16409.000000,51150.000000
5132.000000,15155.000000,16267.000000,51170.000000
5133.000000,15150.000000,16406.000000,51207.000000
5141.000000,15148.000000,16333.000000,51188.000000
5141.000000,15107.000000,16341.000000,51109.000000
5102.000000,15150.000000,16216.000000,51177.000000
5148.000000,15186.000000,16297.000000,51205.000000
5135.000000,15255.000000,16306.000000,51297.000000
5114.000000,15136.000000,16256.000000,51208.000000
5073.000000,15212.000000,16263.000000,51131.000000
5147.000000,15134.000000,16270.000000,51188.000000
5121.000000,15269.000000,16261.000000,51192.000000
5106.000000,15143.000000,16269.000000,51140.000000
5092.000000,15204.000000,16243.000000,51160.000000
5114.000000,15201.000000,16226.000000,51130.000000
5115.000000,15113.000000,16233.000000,51141.000000
5026.000000,15092.000000,16238.000000,51163.000000
5048.000000,15088.000000,16233.000000,51144.000000
5111.000000,15080.000000,16227.000000,51167.000000
5057.000000,15112.000000,16201.000000,51140.000000
5068.000000,15119.000000,16236.000000,50998.000000
5030.000000,15077.000000,16185.000000,51028.000000
5052.000000,15058.000000,16208.000000,51182.000000
5029.000000,15161.000000,16199.000000,51129.000000
4947.000000,15107.000000,16240.000000,51072.000000
5016.000000,15068.000000,16170.000000,51090.000000
5020.000000,15081.000000,16157.000000,51072.000000
4985.000000,15053.000000,16163.000000,51104.000000
5032.000000,15053.000000,16156.000000,51108.000000
5042.000000,15072.000000,16170.000000,51182.000000
5026.000000,15071.000000,16100.000000,51124.000000
4949.000000,15059.000000,16073.000000,51075.000000
5013.000000,15080.000000,16134.000000,51060.000000
4918.000000,15074.000000,16150.000000,51079.000000
4979.000000,15011.000000,16067.000000,51095.000000
4995.000000,14977.000000,16101.000000,51089.000000
4933.000000,15094.000000,16105.000000,51042.000000
4977.000000,15012.000000,16113.000000,51050.000000
4896.000000,14954.000000,16088.000000,51070.000000
5015.000000,15017.000000,16081.000000,51032.000000
4980.000000,14911.000000,15978.000000,51072.000000
4948.000000,15000.000000,16091.000000,51030.000000
5016.000000,15027.000000,16114.000000,51158.000000
4926.000000,14973.000000,16044.000000,51053.000000
5042.000000,14924.000000,16019.000000,50951.000000
4989.000000,14971.000000,15996.000000,51029.000000
4979.000000,14955.000000,16036.000000,51053.000000
4886.000000,14983.000000,15994.000000,51039.000000
4872.000000,14969.000000,15994.000000,51017.000000
4905.000000,14995.000000,16015.000000,51034.000000
4941.000000,14991.000000,15970.000000,51081.000000
5035.000000,14954.000000,15976.000000,51035.000000
4903.000000,14930.000000,15974.000000,51010.000000
4897.000000,14890.000000,15913.000000,51020.000000
4839.000000,14959.000000,15995.000000,51048.000000
4862.000000,15076.000000,15952.000000,50980.000000
4880.000000,15006.000000,15961.000000,51040.000000
4795.000000,14910.000000,15884.000000,50933.000000
4895.000000,14904.000000,15918.000000,51032.000000
4778.000000,14812.000000,15895.000000,50986.000000
4858.000000,14900.000000,15848.000000,51013.000000
4831.000000,14932.000000,15977.000000,50974.000000
4866.000000,14906.000000,15900.000000,50960.000000
4813.000000,14901.000000,15814.000000,50943.000000
4716.000000,14879.000000,15771.000000,50996.000000
4766.000000,14861.000000,15772.000000,51003.000000
4851.000000,14947.000000,15959.000000,50985.000000
4816.000000,14993.000000,15812.000000,50968.000000
4870.000000,15011.000000,15809.000000,50954.000000
4770.000000,14907.000000,15799.000000,50980.000000
4789.000000,14812.000000,15754.000000,50943.000000
4759.000000,14886.000000,15829.000000,50918.000000
4644.000000,14835.000000,15789.000000,50942.000000
4836.000000,14837.000000,15802.000000,50909.000000
4820.000000,14807.000000,15868.000000,50959.000000
4746.000000,14919.000000,15768.000000,50899.000000
4773.000000,14828.000000,15780.000000,50920.000000
4892.000000,14962.000000,15792.000000,50902.000000
4837.000000,14885.000000,15782.000000,50940.000000
4836.000000,14864.000000,15952.000000,50930.000000
4821.000000,14875.000000,15816.000000,50982.000000
4780.000000,14826.000000,15839.000000,51014.000000
4826.000000,14851.000000,15801.000000,50958.000000
4859.000000,14852.000000,15798.000000,50901.000000
4794.000000,14845.000000,15741.000000,50953.000000
4762.000000,14787.000000,15829.000000,50895.000000
4835.000000,14865.000000,15750.000000,50925.000000
4798.000000,14843.000000,15743.000000,50907.000000
4743.000000,14804.000000,15842.000000,50927.000000
4762.000000,14797.000000,15766.000000,50926.000000
4696.000000,14944.000000,15896.000000,50900.000000
4850.000000,14761.000000,15714.000000,50883.000000
4726.000000,14791.000000,15720.000000,50882.000000
4795.000000,14841.000000,15755.000000,50940.000000
4811.000000,14921.000000,15684.000000,50839.000000
4757.000000,14834.000000,15654.000000,50886.000000
4711.000000,14861.000000,15698.000000,50865.000000
4721.000000,14847.000000,15660.000000,50874.000000
4790.000000,14815.000000,15713.000000,50872.000000
4756.000000,14871.000000,15691.000000,50853.000000
4752.000000,14845.000000,15689.000000,50882.000000
4746.000000,14814.000000,15588.000000,51006.000000
4694.000000,14761.000000,15698.000000,50925.000000
4770.000000,14876.000000,15552.000000,50831.000000
4782.000000,14791.000000,15680.000000,50839.000000
4591.000000,14885.000000,15749.000000,50884.000000
4843.000000,14788.000000,15736.000000,50803.000000
4778.000000,14744.000000,15704.000000,50868.000000
4769.000000,14833.000000,15708.000000,50922.000000
4789.000000,14775.000000,15653.000000,50850.000000
4765.000000,14817.000000,15763.000000,50912.000000
4727.000000,14903.000000,15673.000000,50881.000000
4772.000000,14868.000000,15769.000000,50902.000000
4804.000000,14861.000000,15658.000000,50871.000000
4786.000000,14886.000000,15698.000000,50928.000000
4866.000000,14827.000000,15684.000000,50939.000000
4738.000000,15024.000000,15764.000000,50936.000000
4876.000000,14915.000000,15762.000000,50947.000000
4878.000000,14872.000000,15733.000000,50847.000000
4852.000000,14843.000000,15775.000000,50954.000000
4825.000000,14913.000000,15829.000000,50852.000000
4852.000000,14853.000000,15802.000000,50925.000000
4881.000000,14885.000000,15795.000000,50929.000000
4947.000000,14895.000000,15940.000000,51008.000000
4984.000000,14905.000000,15921.000000,50960.000000
4978.000000,15131.000000,16007.000000,51071.000000
4969.000000,14971.000000,15932.000000,51075.000000
5044.000000,15040.000000,16045.000000,50970.000000
4950.000000,14964.000000,16029.000000,51118.000000
5075.000000,15000.000000,16088.000000,51028.000000
5037.000000,15095.000000,16139.000000,51071.000000
5178.000000,15359.000000,16289.000000,51168.000000
5149.000000,15128.000000,16267.000000,51130.000000
5286.000000,15227.000000,16285.000000,51248.000000
5439.000000,15258.000000,16363.000000,51241.000000
5259.000000,15279.000000,16369.000000,51321.000000
5273.000000,15250.000000,16354.000000,51324.000000
5253.000000,15284.000000,16433.000000,51298.000000
5291.000000,15261.000000,16397.000000,51270.000000
5295.000000,15264.000000,16432.000000,51274.000000
5350.000000,15255.000000,16389.000000,51538.000000
5360.000000,15292.000000,16381.000000,51269.000000
5265.000000,15247.000000,16407.000000,51237.000000
5311.000000,15287.000000,16427.000000,51254.000000
5319.000000,15256.000000,16396.000000,51155.000000
5298.000000,15213.000000,16407.000000,51276.000000
5268.000000,15284.000000,16262.000000,51164.000000
5301.000000,15231.000000,16369.000000,51282.000000
5266.000000,15265.000000,16299.000000,51233.000000
5185.000000,15249.000000,16430.000000,51260.000000
5201.000000,15203.000000,16288.000000,51262.000000
5222.000000,15359.000000,16234.000000,51312.000000
5274.000000,15191.000000,16220.000000,51233.000000
5162.000000,15203.000000,16346.000000,51226.000000
5292.000000,15299.000000,16266.000000,51199.000000
5330.000000,15213.000000,16373.000000,51225.000000
5257.000000,15217.000000,16302.000000,51185.000000
5172.000000,15223.000000,16257.000000,51247.000000
5251.000000,15205.000000,16262.000000,51197.000000
5242.000000,15138.000000,16283.000000,51180.000000
5276.000000,15156.000000,16279.000000,51210.000000
5252.000000,15163.000000,16293.000000,51199.000000
5108.000000,15189.000000,16306.000000,51252.000000
5205.000000,15163.000000,16323.000000,51271.000000
5171.000000,15123.000000,16284.000000,51253.000000
5214.000000,15149.000000,16292.000000,51255.000000
5166.000000,15168.000000,16202.000000,51338.000000
5165.000000,15188.000000,16268.000000,51223.000000
5234.000000,15168.000000,16311.000000,51159.000000
5223.000000,15141.000000,16272.000000,51143.000000
5193.000000,15210.000000,16255.000000,51177.000000
5179.000000,15149.000000,16233.000000,51176.000000
5159.000000,15038.000000,16183.000000,51172.000000
5174.000000,15112.000000,16253.000000,51148.000000
5136.000000,15089.000000,16200.000000,51190.000000
5210.000000,15069.000000,16131.000000,51146.000000
5164.000000,15165.000000,16135.000000,51135.000000
5214.000000,15130.000000,16141.000000,51023.000000
5097.000000,15073.000000,16211.000000,51185.000000
5166.000000,15079.000000,16182.000000,51108.000000
5150.000000,15128.000000,16092.000000,51201.000000
5105.000000,15097.000000,16124.000000,51131.000000
5073.000000,15146.000000,16130.000000,51115.000000
5092.000000,15045.000000,16073.000000,51152.000000
5088.000000,15095.000000,16163.000000,51097.000000
5092.000000,15087.000000,16110.000000,51194.000000
5111.000000,15116.000000,16125.000000,51089.000000
5070.000000,15079.000000,16097.000000,51135.000000
5143.000000,15245.000000,16090.000000,51112.000000
5021.000000,15046.000000,16054.000000,51089.000000
5137.000000,14992.000000,16095.000000,51111.000000
5074.000000,15020.000000,16050.000000,51062.000000
5002.000000,15035.000000,16034.000000,51036.000000
5029.000000,15023.000000,16052.000000,51066.000000
5035.000000,15095.000000,16017.000000,51093.000000
5078.000000,15051.000000,16065.000000,51072.000000
5075.000000,15075.000000,16098.000000,51011.000000
5009.000000,15051.000000,15972.000000,51106.000000
5032.000000,15001.000000,15878.000000,50969.000000
4966.000000,14986.000000,15978.000000,51045.000000
4908.000000,14967.000000,15959.000000,50997.000000
4999.000000,15121.000000,15950.000000,51054.000000
5041.000000,14909.000000,16079.000000,51052.000000
5012.000000,15016.000000,15968.000000,51055.000000
5011.000000,14908.000000,16032.000000,51012.000000
4988.000000,14950.000000,15926.000000,50985.000000
4931.000000,14969.000000,15916.000000,51002.000000
4972.000000,14932.000000,15915.000000,50988.000000
4951.000000,14953.000000,15929.000000,51049.000000
4905.000000,15011.000000,15957.000000,51028.000000
5007.000000,15271.000000,15902.000000,50953.000000
5070.000000,14981.000000,15909.000000,50998.000000
4946.000000,15018.000000,15822.000000,50942.000000
4885.000000,14907.000000,15890.000000,51046.000000
4940.000000,14892.000000,15856.000000,51019.000000
4960.000000,15034.000000,15938.000000,50970.000000
4923.000000,14940.000000,15868.000000,51005.000000
4980.000000,14950.000000,15779.000000,50986.000000
4980.000000,14952.000000,15938.000000,51014.000000
4958.000000,14897.000000,15887.000000,50951.000000
4944.000000,14931.000000,15898.000000,50982.000000
5012.000000,14963.000000,15810.000000,50979.000000
4920.000000,15014.000000,15867.000000,50926.000000
4957.000000,14936.000000,15780.000000,51043.000000
4923.000000,14989.000000,15771.000000,51030.000000
4978.000000,14895.000000,15860.000000,51002.000000
4979.000000,14986.000000,15902.000000,51005.000000
4928.000000,14916.000000,15776.000000,50966.000000
4840.000000,14945.000000,15740.000000,51039.000000
4953.000000,14924.000000,15810.000000,50970.000000
4912.000000,14938.000000,15797.000000,50946.000000
4902.000000,14892.000000,15809.000000,50953.000000
4870.000000,14866.000000,15806.000000,50938.000000
4960.000000,14879.000000,15755.000000,50919.000000
4817.000000,14996.000000,15766.000000,50986.000000
4882.000000,14746.000000,15628.000000,50803.000000
4838.000000,14863.000000,15775.000000,50885.000000
4959.000000,14883.000000,15664.000000,50962.000000
4845.000000,14815.000000,15744.000000,50898.000000
4881.000000,14759.000000,15755.000000,50862.000000
4879.000000,14819.000000,15779.000000,50975.000000
4895.000000,14757.000000,15749.000000,50859.000000
4834.000000,14825.000000,15713.000000,50919.000000
4870.000000,14812.000000,15737.000000,50904.000000
4848.000000,14814.000000,15737.000000,50920.000000
4831.000000,14817.000000,15729.000000,50975.000000
4787.000000,14831.000000,15773.000000,50942.000000
4843.000000,14872.000000,15793.000000,50981.000000
4850.000000,14805.000000,15724.000000,50938.000000
4879.000000,14858.000000,15819.000000,50922.000000
5001.000000,14896.000000,15781.000000,50912.000000
4872.000000,14843.000000,15778.000000,50944.000000
4916.000000,14957.000000,15893.000000,50889.000000
4853.000000,14901.000000,15758.000000,50950.000000
4890.000000,14890.000000,15762.000000,50915.000000
4913.000000,14907.000000,15826.000000,50988.000000
4865.000000,14855.000000,15836.000000,50970.000000
4891.000000,14881.000000,15668.000000,51017.000000
4898.000000,14871.000000,15814.000000,50994.000000
4912.000000,14893.000000,15853.000000,50998.000000
4937.000000,14907.000000,15913.000000,51106.000000
4874.000000,14887.000000,15829.000000,50979.000000
4995.000000,14923.000000,15943.000000,50967.000000
4926.000000,14856.000000,15901.000000,51071.000000
4996.000000,15025.000000,15958.000000,51062.000000
5032.000000,15004.000000,15988.000000,51093.000000
5084.000000,15053.000000,16098.000000,51111.000000
5117.000000,15088.000000,16205.000000,51136.000000
5133.000000,15109.000000,16160.000000,51195.000000
5280.000000,15170.000000,16273.000000,51243.000000
5243.000000,15255.000000,16266.000000,51226.000000
5297.000000,15186.000000,16375.000000,51254.000000
5343.000000,15234.000000,16477.000000,51337.000000
5377.000000,15284.000000,16497.000000,51305.000000
5380.000000,15266.000000,16392.000000,51314.000000
5380.000000,15266.000000,16466.000000,51299.000000
5372.000000,15259.000000,16544.000000,51298.000000
5281.000000,15267.000000,16453.000000,51283.000000
5288.000000,15281.000000,16454.000000,51304.000000
5355.000000,15296.000000,16532.000000,51341.000000
5415.000000,15268.000000,16375.000000,51345.000000
5469.000000,15184.000000,16451.000000,51232.000000
5339.000000,15298.000000,16380.000000,51227.000000
5281.000000,15272.000000,16414.000000,51387.000000
5366.000000,15291.000000,16534.000000,51301.000000
5124.000000,15250.000000,16451.000000,51313.000000
5331.000000,15212.000000,16417.000000,51313.000000
5255.000000,15282.000000,16390.000000,51273.000000
5197.000000,15208.000000,16401.000000,51283.000000
5339.000000,15234.000000,16395.000000,51284.000000
5326.000000,15265.000000,16478.000000,51278.000000
5246.000000,15171.000000,16377.000000,51263.000000
5286.000000,15208.000000,16403.000000,51314.000000
5305.000000,15200.000000,16352.000000,51237.000000
5210.000000,15127.000000,16390.000000,51217.000000
5201.000000,15222.000000,16354.000000,51254.000000
5239.000000,15127.000000,16320.000000,51306.000000
5257.000000,15176.000000,16401.000000,51213.000000
5216.000000,15203.000000,16338.000000,51200.000000
5238.000000,15034.000000,16290.000000,51178.000000
5163.000000,15120.000000,16299.000000,51205.000000
5286.000000,15123.000000,16295.000000,51153.000000
5176.000000,15128.000000,16284.000000,51211.000000
5192.000000,15113.000000,16286.000000,51201.000000
5180.000000,15163.000000,16294.000000,51165.000000
5149.000000,15138.000000,16277.000000,51201.000000
5170.000000,15131.000000,16282.000000,51184.000000
5270.000000,15140.000000,16235.000000,51184.000000
5163.000000,15131.000000,16265.000000,51186.000000
5218.000000,15131.000000,16267.000000,51164.000000
5182.000000,15052.000000,16239.000000,51175.000000
5156.000000,15148.000000,16212.000000,51159.000000
5070.000000,15130.000000,16205.000000,51209.000000
5120.000000,15078.000000,16209.000000,51195.000000
5175.000000,15180.000000,16102.000000,51178.000000
5158.000000,15093.000000,16221.000000,51182.000000
5145.000000,14979.000000,16167.000000,51151.000000
5154.000000,15104.000000,16206.000000,51150.000000
5071.000000,15080.000000,16147.000000,51127.000000
5089.000000,15036.000000,16143.000000,51132.000000
5121.000000,15052.000000,16178.000000,51067.000000
5096.000000,15045.000000,16208.000000,51176.000000
5123.000000,15093.000000,16111.000000,51159.000000
5112.000000,14887.000000,16134.000000,51149.000000
5088.000000,15072.000000,16087.000000,51081.000000
5175.000000,15119.000000,16109.000000,51156.000000
5150.000000,15043.000000,16065.000000,51154.000000
5110.000000,15150.000000,16111.000000,51064.000000
5022.000000,15028.000000,16086.000000,51131.000000
5007.000000,15014.000000,15986.000000,51175.000000
5059.000000,15006.000000,16062.000000,51113.000000
5104.000000,15051.000000,16121.000000,51057.000000
5035.000000,15037.000000,16089.000000,51108.000000
5082.000000,15008.000000,16061.000000,51050.000000
5020.000000,15018.000000,16034.000000,51073.000000
4961.000000,15022.000000,16033.000000,51104.000000
5099.000000,15076.000000,16001.000000,51144.000000
5004.000000,14982.000000,15997.000000,51053.000000
5021.000000,15046.000000,15938.000000,51161.000000
5100.000000,14989.000000,15991.000000,51058.000000
5168.000000,14998.000000,15959.000000,51056.000000
4971.000000,14955.000000,15947.000000,51067.000000
4959.000000,14945.000000,15923.000000,51101.000000
5004.000000,14981.000000,15975.000000,51053.000000
5034.000000,14967.000000,15966.000000,51045.000000
4984.000000,15111.000000,15912.000000,51185.000000
5009.000000,14934.000000,15905.000000,51037.000000
5037.000000,14948.000000,16038.000000,51051.000000
4958.000000,14945.000000,15938.000000,51026.000000
4956.000000,14942.000000,15936.000000,51136.000000
4953.000000,14951.000000,15929.000000,51054.000000
4978.000000,14933.000000,15856.000000,51041.000000
4956.000000,14986.000000,15946.000000,51075.000000
5046.000000,15019.000000,15884.000000,50949.000000
4953.000000,14950.000000,15988.000000,51051.000000
4961.000000,14878.000000,15937.000000,51011.000000
4907.000000,14945.000000,15944.000000,51028.000000
4942.000000,14930.000000,15932.000000,50995.000000
5030.000000,14996.000000,15922.000000,51079.000000
4931.000000,14927.000000,15909.000000,51010.000000
4979.000000,14934.000000,15873.000000,50957.000000
4934.000000,14855.000000,15919.000000,50975.000000
4945.000000,14837.000000,15763.000000,50991.000000
4986.000000,14933.000000,15920.000000,51006.000000
4799.000000,14842.000000,15905.000000,51005.000000
4865.000000,14868.000000,15828.000000,50976.000000
4911.000000,14898.000000,15809.000000,50999.000000
4880.000000,14829.000000,15817.000000,50973.000000
4846.000000,14880.000000,15867.000000,51024.000000
4833.000000,14851.000000,15831.000000,50975.000000
4876.000000,14875.000000,15833.000000,50959.000000
4913.000000,14885.000000,15810.000000,51038.000000
4873.000000,14832.000000,15820.000000,51029.000000
4923.000000,14858.000000,15772.000000,50859.000000
4873.000000,14891.000000,15839.000000,51007.000000
4887.000000,14966.000000,15969.000000,50916.000000
4869.000000,14831.000000,15806.000000,51005.000000
4922.000000,14852.000000,15791.000000,51059.000000
4886.000000,14832.000000,15853.000000,51000.000000
4907.000000,14847.000000,15847.000000,51030.000000
4898.000000,14840.000000,15840.000000,51010.000000
4892.000000,14894.000000,15821.000000,50936.000000
4876.000000,14966.000000,15854.000000,51048.000000
4922.000000,14869.000000,15904.000000,51009.000000
4920.000000,14893.000000,15899.000000,50998.000000
4903.000000,14945.000000,15891.000000,51030.000000
4979.000000,14784.000000,16006.000000,50991.000000
4984.000000,14950.000000,15962.000000,51065.000000
4890.000000,14914.000000,15968.000000,51124.000000
5026.000000,14965.000000,15972.000000,51044.000000
5006.000000,14966.000000,16006.000000,51052.000000
4995.000000,14970.000000,15985.000000,51109.000000
5020.000000,14983.000000,16064.000000,51036.000000
5102.000000,14997.000000,16006.000000,51092.000000
4973.000000,14999.000000,16081.000000,51101.000000
5176.000000,15118.000000,16133.000000,50961.000000
5164.000000,15090.000000,16194.000000,51178.000000
5218.000000,15118.000000,16357.000000,51236.000000
5239.000000,15132.000000,16313.000000,51252.000000
5201.000000,15139.000000,16396.000000,51252.000000
5292.000000,15191.000000,16359.000000,51308.000000
5356.000000,15254.000000,16391.000000,51315.000000
5373.000000,15219.000000,16488.000000,51333.000000
5382.000000,15271.000000,16510.000000,51415.000000
5462.000000,15300.000000,16530.000000,51299.000000
5406.000000,15278.000000,16540.000000,51381.000000
5534.000000,15276.000000,16491.000000,51373.000000
5436.000000,15370.000000,16562.000000,51322.000000
5468.000000,15257.000000,16561.000000,51279.000000
5417.000000,15280.000000,16563.000000,51380.000000
5418.000000,15357.000000,16658.000000,51295.000000
5435.000000,15302.000000,16573.000000,51349.000000
5425.000000,15135.000000,16567.000000,51353.000000
5399.000000,15276.000000,16528.000000,51333.000000
5436.000000,15279.000000,16434.000000,51371.000000
5390.000000,15288.000000,16488.000000,51325.000000
5366.000000,15184.000000,16538.000000,51298.000000
5441.000000,15318.000000,16494.000000,51330.000000
5396.000000,15267.000000,16461.000000,51353.000000
5357.000000,15274.000000,16387.000000,51465.000000
5420.000000,15240.000000,16476.000000,51248.000000
5307.000000,15164.000000,16449.000000,51342.000000
5401.000000,15235.000000,16467.000000,51291.000000
5385.000000,15298.000000,16488.000000,51302.000000
5359.000000,15207.000000,16431.000000,51330.000000
5284.000000,15107.000000,16396.000000,51301.000000
5360.000000,15259.000000,16417.000000,51312.000000
5317.000000,15159.000000,16400.000000,51304.000000
5337.000000,15254.000000,16407.000000,51259.000000
5322.000000,15245.000000,16409.000000,51308.000000
5385.000000,15211.000000,16447.000000,51357.000000
5299.000000,15225.000000,16433.000000,51382.000000
5343.000000,15188.000000,16438.000000,51182.000000
5309.000000,15151.000000,16382.000000,51334.000000
5357.000000,15240.000000,16343.000000,51209.000000
5329.000000,15223.000000,16391.000000,51248.000000
5363.000000,15182.000000,16357.000000,51235.000000
5304.000000,15084.000000,16410.000000,51315.000000
5357.000000,15291.000000,16377.000000,51276.000000
5288.000000,15220.000000,16354.000000,51259.000000
5279.000000,15192.000000,16394.000000,51274.000000
5241.000000,15152.000000,16427.000000,51282.000000
5252.000000,15232.000000,16347.000000,51213.000000
5322.000000,15201.000000,16332.000000,51242.000000
5320.000000,15223.000000,16325.000000,51266.000000
5318.000000,15155.000000,16229.000000,51271.000000
5381.000000,15218.000000,16316.000000,51274.000000
5223.000000,15120.000000,16335.000000,51235.000000
5241.000000,15159.000000,16277.000000,51214.000000
5279.000000,15235.000000,16278.000000,51269.000000
5237.000000,15147.000000,16284.000000,51248.000000
5258.000000,15139.000000,16257.000000,51286.000000
5219.000000,15114.000000,16265.000000,51202.000000
5158.000000,15073.000000,16263.000000,51195.000000
5232.000000,15162.000000,16260.000000,51177.000000
5254.000000,15116.000000,16242.000000,51232.000000
5191.000000,15108.000000,16208.000000,51188.000000
5253.000000,15145.000000,16230.000000,51168.000000
5269.000000,15027.000000,16213.000000,51185.000000
5169.000000,15046.000000,16158.000000,51176.000000
5202.000000,15157.000000,16355.000000,51171.000000
5186.000000,15050.000000,16166.000000,51142.000000
5214.000000,15045.000000,16131.000000,51191.000000
5182.000000,15078.000000,16155.000000,51175.000000
5115.000000,15092.000000,16169.000000,51154.000000
5247.000000,15100.000000,16205.000000,51244.000000
5170.000000,15030.000000,16162.000000,51117.000000
5107.000000,15084.000000,16098.000000,51132.000000
5110.000000,15034.000000,16078.000000,51155.000000
5024.000000,14822.000000,16085.000000,51163.000000
5101.000000,15089.000000,16109.000000,51113.000000
5156.000000,14920.000000,15993.000000,51124.000000
5088.000000,15007.000000,16088.000000,51130.000000
5021.000000,15040.000000,16098.000000,51169.000000
5110.000000,15040.000000,16124.000000,51194.000000
5071.000000,14986.000000,16164.000000,51149.000000
5077.000000,14938.000000,16066.000000,51103.000000
5081.000000,14982.000000,15990.000000,51125.000000
5020.000000,14877.000000,16059.000000,51115.000000
5027.000000,14976.000000,16084.000000,51100.000000
5147.000000,14875.000000,15939.000000,51111.000000
5088.000000,15004.000000,16082.000000,51143.000000
5086.000000,15046.000000,16137.000000,51122.000000
5111.000000,15042.000000,16045.000000,51108.000000
4995.000000,14878.000000,16042.000000,51012.000000
5077.000000,14983.000000,16029.000000,51106.000000
5235.000000,14996.000000,16087.000000,51137.000000
5068.000000,15029.000000,16033.000000,51142.000000
5097.000000,15040.000000,16068.000000,51136.000000
5137.000000,15002.000000,16041.000000,51050.000000
5045.000000,15025.000000,16069.000000,51104.000000
5092.000000,14951.000000,16175.000000,51084.000000
5066.000000,14948.000000,16032.000000,51090.000000
5017.000000,14861.000000,16032.000000,51032.000000
4972.000000,14958.000000,15965.000000,51105.000000
4998.000000,14992.000000,15939.000000,51141.000000
5063.000000,14966.000000,15940.000000,51052.000000
4986.000000,15064.000000,15993.000000,51093.000000
4993.000000,14963.000000,15959.000000,51046.000000
4903.000000,14899.000000,15943.000000,51027.000000
4971.000000,14934.000000,15960.000000,51028.000000
4977.000000,14924.000000,16005.000000,51009.000000
4991.000000,14958.000000,15943.000000,51056.000000
4939.000000,14946.000000,15954.000000,51030.000000
5005.000000,14997.000000,15945.000000,51107.000000
4936.000000,14953.000000,15987.000000,51001.000000
4920.000000,15070.000000,15925.000000,51025.000000
4971.000000,14923.000000,15785.000000,51072.000000
5003.000000,14923.000000,15917.000000,50975.000000
4986.000000,14929.000000,15952.000000,51075.000000
4974.000000,14881.000000,15888.000000,51066.000000
5030.000000,14954.000000,15940.000000,51047.000000
5019.000000,14948.000000,15973.000000,51062.000000
5002.000000,14909.000000,16030.000000,51051.000000
5070.000000,14890.000000,15977.000000,50986.000000
5065.000000,15015.000000,15935.000000,51072.000000
5043.000000,14996.000000,15974.000000,51048.000000
5028.000000,15001.000000,16029.000000,51049.000000
5047.000000,14954.000000,16083.000000,51024.000000
5048.000000,15122.000000,16153.000000,51098.000000
5112.000000,14960.000000,15976.000000,51089.000000
5054.000000,14935.000000,16175.000000,51120.000000
5127.000000,15018.000000,16072.000000,51150.000000
5111.000000,15081.000000,16041.000000,51111.000000
5135.000000,15022.000000,16065.000000,51094.000000
5171.000000,15034.000000,16115.000000,51119.000000
5221.000000,15003.000000,16109.000000,51122.000000
5243.000000,15092.000000,16130.000000,51216.000000
5326.000000,15116.000000,16318.000000,51207.000000
5287.000000,15099.000000,16276.000000,51167.000000
5342.000000,15200.000000,16310.000000,51295.000000
5332.000000,15189.000000,16354.000000,51276.000000
5438.000000,15196.000000,16368.000000,51243.000000
5417.000000,15239.000000,16445.000000,51353.000000
5505.000000,15305.000000,16538.000000,51365.000000
5554.000000,15307.000000,16601.000000,51420.000000
5525.000000,15413.000000,16629.000000,51409.000000
5660.000000,15344.000000,16665.000000,51396.000000
5613.000000,15381.000000,16662.000000,51423.000000
5631.000000,15314.000000,16606.000000,51407.000000
5601.000000,15380.000000,16647.000000,51396.000000
5639.000000,15386.000000,16654.000000,51493.000000
5581.000000,15428.000000,16654.000000,51436.000000
5652.000000,15409.000000,16647.000000,51427.000000
5615.000000,15403.000000,16653.000000,51523.000000
5574.000000,15278.000000,16654.000000,51386.000000
5624.000000,15347.000000,16669.000000,51397.000000
5581.000000,15375.000000,16560.000000,51423.000000
5601.000000,15393.000000,16642.000000,51438.000000
5615.000000,15361.000000,16628.000000,51409.000000
5588.000000,15335.000000,16648.000000,51324.000000
5633.000000,15372.000000,16656.000000,51415.000000
5658.000000,15384.000000,16560.000000,51339.000000
5623.000000,15363.000000,16576.000000,51390.000000
5620.000000,15289.000000,16619.000000,51440.000000
5605.000000,15323.000000,16549.000000,51383.000000
5505.000000,15340.000000,16487.000000,51461.000000
5538.000000,15366.000000,16626.000000,51369.000000
5547.000000,15333.000000,16536.000000,51398.000000
5509.000000,15315.000000,16582.000000,51363.000000
5524.000000,15402.000000,16617.000000,51375.000000
5547.000000,15344.000000,16561.000000,51424.000000
5525.000000,15352.000000,16542.000000,51322.000000
5624.000000,15283.000000,16548.000000,51419.000000
5556.000000,15324.000000,16540.000000,51367.000000
5464.000000,15348.000000,16527.000000,51364.000000
5566.000000,15295.000000,16563.000000,51400.000000
5426.000000,15345.000000,16603.000000,51432.000000
5482.000000,15297.000000,16441.000000,51282.000000
5507.000000,15220.000000,16437.000000,51223.000000
5479.000000,15296.000000,16563.000000,51364.000000
5432.000000,15312.000000,16497.000000,51363.000000
5456.000000,15311.000000,16493.000000,51331.000000
5481.000000,15303.000000,16530.000000,51434.000000
5512.000000,15231.000000,16632.000000,51286.000000
5500.000000,15292.000000,16523.000000,51344.000000
5358.000000,15283.000000,16388.000000,51278.000000
5472.000000,15286.000000,16458.000000,51317.000000
5451.000000,15309.000000,16430.000000,51406.000000
5448.000000,15266.000000,16502.000000,51415.000000
5431.000000,15281.000000,16481.000000,51323.000000
5431.000000,15260.000000,16386.000000,51297.000000
5517.000000,15305.000000,16540.000000,51235.000000
5424.000000,15278.000000,16455.000000,51297.000000
5368.000000,15245.000000,16389.000000,51349.000000
5410.000000,15227.000000,16371.000000,51309.000000
5429.000000,15213.000000,16502.000000,51256.000000
5411.000000,15305.000000,16438.000000,51325.000000
5361.000000,15244.000000,16421.000000,51306.000000
5427.000000,15225.000000,16366.000000,51457.000000
5427.000000,15259.000000,16374.000000,51300.000000
5449.000000,15270.000000,16372.000000,51296.000000
5363.000000,15195.000000,16345.000000,51261.000000
5354.000000,15195.000000,16275.000000,51227.000000
5362.000000,15183.000000,16374.000000,51276.000000
5326.000000,15220.000000,16385.000000,51256.000000
5370.000000,15281.000000,16288.000000,51244.000000
5330.000000,15179.000000,16365.000000,51318.000000
5610.000000,15276.000000,16316.000000,51235.000000
5309.000000,15154.000000,16303.000000,51273.000000
5215.000000,15145.000000,16297.000000,51224.000000
5310.000000,15195.000000,16298.000000,51225.000000
5376.000000,15125.000000,16264.000000,51224.000000
5287.000000,15166.000000,16255.000000,51245.000000
5340.000000,15191.000000,16330.000000,51151.000000
5312.000000,15155.000000,16300.000000,51218.000000
5340.000000,15107.000000,16267.000000,51209.000000
5329.000000,15113.000000,16290.000000,51231.000000
5241.000000,15195.000000,16285.000000,51292.000000
5267.000000,15141.000000,16183.000000,51235.000000
5311.000000,15148.000000,16222.000000,51171.000000
5195.000000,15146.000000,16230.000000,51121.000000
5283.000000,15181.000000,16252.000000,51166.000000
5272.000000,14985.000000,16231.000000,51325.000000
5257.000000,15093.000000,16217.000000,51227.000000
5192.000000,15151.000000,16210.000000,51261.000000
5273.000000,15115.000000,16234.000000,51196.000000
5306.000000,15087.000000,16161.000000,51196.000000
5260.000000,15071.000000,16209.000000,51188.000000
5264.000000,15098.000000,16123.000000,51263.000000
5238.000000,15115.000000,16204.000000,51249.000000
5217.000000,15144.000000,16154.000000,51187.000000
5157.000000,15224.000000,16190.000000,51190.000000
5199.000000,15099.000000,16133.000000,51177.000000
5315.000000,14995.000000,16114.000000,51263.000000
5087.000000,15088.000000,16171.000000,51192.000000
5203.000000,15094.000000,16132.000000,51164.000000
5218.000000,15104.000000,16087.000000,51163.000000
5205.000000,15139.000000,16063.000000,51077.000000
5172.000000,15081.000000,16115.000000,51136.000000
5133.000000,15047.000000,16081.000000,51123.000000
5185.000000,15051.000000,16066.000000,51093.000000
5124.000000,15037.000000,16110.000000,51122.000000
5390.000000,15068.000000,16081.000000,51175.000000
5214.000000,15033.000000,16085.000000,51116.000000
5043.000000,15010.000000,16159.000000,51078.000000
5137.000000,15035.000000,16080.000000,51111.000000
5133.000000,15017.000000,16032.000000,51123.000000
5107.000000,15003.000000,15986.000000,51112.000000
5132.000000,14917.000000,16035.000000,51058.000000
5099.000000,15023.000000,16089.000000,51109.000000
5229.000000,14991.000000,16019.000000,51085.000000
5139.000000,14983.000000,16042.000000,51128.000000
5086.000000,15267.000000,16033.000000,51172.000000
5149.000000,15023.000000,16015.000000,51161.000000
5179.000000,15038.000000,16097.000000,51128.000000
5144.000000,14900.000000,16065.000000,51081.000000
5218.000000,14992.000000,16030.000000,51179.000000
5259.000000,15018.000000,16206.000000,51201.000000
5187.000000,15075.000000,16129.000000,51096.000000
5152.000000,15065.000000,16125.000000,51261.000000
5192.000000,15070.000000,16131.000000,51170.000000
5216.000000,15005.000000,16040.000000,51173.000000
5265.000000,15107.000000,16126.000000,51180.000000
5239.000000,15077.000000,16149.000000,51104.000000
5203.000000,15161.000000,16174.000000,51181.000000
5253.000000,15090.000000,16182.000000,51177.000000
5264.000000,15143.000000,16223.000000,51229.000000
5310.000000,15113.000000,16199.000000,51193.000000
5412.000000,15159.000000,16271.000000,51229.000000
5319.000000,15157.000000,16230.000000,51212.000000
5349.000000,15231.000000,16254.000000,51297.000000
5322.000000,15168.000000,16320.000000,51279.000000
5404.000000,15225.000000,16354.000000,51271.000000
5454.000000,15195.000000,16416.000000,51324.000000
5478.000000,15261.000000,16466.000000,51363.000000
5607.000000,15393.000000,16561.000000,51391.000000
5701.000000,15371.000000,16677.000000,51461.000000
5685.000000,15470.000000,16664.000000,51497.000000
5783.000000,15448.000000,16720.000000,51482.000000
5704.000000,15446.000000,16649.000000,51557.000000
5753.000000,15482.000000,16740.000000,51501.000000
5742.000000,15524.000000,16719.000000,51481.000000
5753.000000,15482.000000,16730.000000,51500.000000
5821.000000,15396.000000,16753.000000,51496.000000
5784.000000,15467.000000,16761.000000,51443.000000
5734.000000,15452.000000,16789.000000,51506.000000
5769.000000,15477.000000,16791.000000,51490.000000
5689.000000,15444.000000,16586.000000,51519.000000
5746.000000,15485.000000,16724.000000,51509.000000
5711.000000,15495.000000,16625.000000,51498.000000
5721.000000,15450.000000,16696.000000,51467.000000
5751.000000,15455.000000,16675.000000,51519.000000
5775.000000,15469.000000,16695.000000,51564.000000
5693.000000,15436.000000,16694.000000,51528.000000
5593.000000,15460.000000,16705.000000,51453.000000
5688.000000,15335.000000,16693.000000,51458.000000
5653.000000,15435.000000,16683.000000,51498.000000
5692.000000,15407.000000,16643.000000,51454.000000
5619.000000,15435.000000,16645.000000,51327.000000
5693.000000,15403.000000,16655.000000,51453.000000
5709.000000,15449.000000,16640.000000,51396.000000
5630.000000,15283.000000,16736.000000,51537.000000
5631.000000,15412.000000,16584.000000,51470.000000
5647.000000,15458.000000,16634.000000,51417.000000
5615.000000,15410.000000,16648.000000,51457.000000
5658.000000,15347.000000,16639.000000,51408.000000
5622.000000,15427.000000,16605.000000,51435.000000
5755.000000,15351.000000,16646.000000,51282.000000
5649.000000,15355.000000,16633.000000,51403.000000
5642.000000,15372.000000,16577.000000,51422.000000
5585.000000,15376.000000,16620.000000,51414.000000
5609.000000,15364.000000,16544.000000,51418.000000
5580.000000,15332.000000,16643.000000,51412.000000
5590.000000,15346.000000,16571.000000,51417.000000
5640.000000,15185.000000,16584.000000,51399.000000
5564.000000,15351.000000,16550.000000,51381.000000
5571.000000,15315.000000,16538.000000,51556.000000
5551.000000,15313.000000,16452.000000,51420.000000
5555.000000,15316.000000,16487.000000,51396.000000
5565.000000,15336.000000,16507.000000,51363.000000
5571.000000,15245.000000,16506.000000,51274.000000
5540.000000,15295.000000,16498.000000,51415.000000
5453.000000,15289.000000,16484.000000,51334.000000
5543.000000,15244.000000,16498.000000,51349.000000
5521.000000,15331.000000,16480.000000,51417.000000
5396.000000,15272.000000,16490.000000,51287.000000
5485.000000,15343.000000,16515.000000,51332.000000
5646.000000,15350.000000,16504.000000,51340.000000
5536.000000,15371.000000,16458.000000,51313.000000
5489.000000,15274.000000,16430.000000,51318.000000
5467.000000,15263.000000,16419.000000,51292.000000
5488.000000,15265.000000,16467.000000,51291.000000
5470.000000,15271.000000,16403.000000,51319.000000
5485.000000,15223.000000,16428.000000,51310.000000
5530.000000,15237.000000,16374.000000,51284.000000
5458.000000,15194.000000,16432.000000,51317.000000
5344.000000,15325.000000,16396.000000,51282.000000
5435.000000,15235.000000,16350.000000,51301.000000
5375.000000,15240.000000,16340.000000,51308.000000
5404.000000,15176.000000,16359.000000,51232.000000
5509.000000,15169.000000,16367.000000,51291.000000
5439.000000,15190.000000,16272.000000,51256.000000
5378.000000,15151.000000,16226.000000,51249.000000
5398.000000,15199.000000,16303.000000,51254.000000
5386.000000,15148.000000,16314.000000,51222.000000
5343.000000,15197.000000,16275.000000,51230.000000
5362.000000,15168.000000,16297.000000,51296.000000
5374.000000,15138.000000,16241.000000,51209.000000
5348.000000,15104.000000,16247.000000,51220.000000
5406.000000,15185.000000,16250.000000,51261.000000
5316.000000,15075.000000,16250.000000,51219.000000
5325.000000,15232.000000,16116.000000,51248.000000
5337.000000,15179.000000,16235.000000,51201.000000
5201.000000,15130.000000,16193.000000,51171.000000
5361.000000,15127.000000,16214.000000,51180.000000
5349.000000,15138.000000,16294.000000,51154.000000
5357.000000,15117.000000,16221.000000,51223.000000
5329.000000,15117.000000,16163.000000,51230.000000
5227.000000,15125.000000,16217.000000,51205.000000
5302.000000,15131.000000,16262.000000,51203.000000
5302.000000,15136.000000,16207.000000,51227.000000
5307.000000,15074.000000,16228.000000,51195.000000
5414.000000,15120.000000,16184.000000,51151.000000
5273.000000,15046.000000,16196.000000,51205.000000
5302.000000,15115.000000,16238.000000,51219.000000
5264.000000,15132.000000,16167.000000,51191.000000
5235.000000,15117.000000,16262.000000,51151.000000
5282.000000,15103.000000,16162.000000,51172.000000
5275.000000,15049.000000,16137.000000,51123.000000
5275.000000,15128.000000,16186.000000,51161.000000
5342.000000,15045.000000,16148.000000,51153.000000
5194.000000,15093.000000,16148.000000,51150.000000
5213.000000,15117.000000,16149.000000,51221.000000
5251.000000,15100.000000,16170.000000,51157.000000
5184.000000,15056.000000,16094.000000,51190.000000
5185.000000,15057.000000,16082.000000,51087.000000
5188.000000,15051.000000,16130.000000,51154.000000
5416.000000,15005.000000,16066.000000,51115.000000
5265.000000,14992.000000,16012.000000,51140.000000
5232.000000,15142.000000,16073.000000,51097.000000
5225.000000,15018.000000,16037.000000,51123.000000
5196.000000,15091.000000,16114.000000,51136.000000
5202.000000,15015.000000,16070.000000,51122.000000
5158.000000,14997.000000,15990.000000,51103.000000
5225.000000,14921.000000,16055.000000,51123.000000
5268.000000,15044.000000,16048.000000,51190.000000
5214.000000,15053.000000,16088.000000,51216.000000
5211.000000,15035.000000,16063.000000,51111.000000
5196.000000,15017.000000,16052.000000,51158.000000
5223.000000,15079.000000,16116.000000,51141.000000
5229.000000,15030.000000,15858.000000,51138.000000
5202.000000,15013.000000,16046.000000,51168.000000
5221.000000,14980.000000,16099.000000,51038.000000
5304.000000,15050.000000,16070.000000,51160.000000
5219.000000,15098.000000,16064.000000,51230.000000
5269.000000,15085.000000,16106.000000,51142.000000
5255.000000,15052.000000,16082.000000,51144.000000
5375.000000,15129.000000,16103.000000,51138.000000
5279.000000,15021.000000,16154.000000,51192.000000
5282.000000,15141.000000,16128.000000,51205.000000
5290.000000,15060.000000,16192.000000,51118.000000
5342.000000,15027.000000,16171.000000,51167.000000
5358.000000,15082.000000,16169.000000,51213.000000
5286.000000,15099.000000,16235.000000,51195.000000
5435.000000,15160.000000,16295.000000,51239.000000
5523.000000,15183.000000,16228.000000,51292.000000
5480.000000,15222.000000,16355.000000,51319.000000
5535.000000,15276.000000,16369.000000,51437.000000
5466.000000,15296.000000,16441.000000,51307.000000
5561.000000,15309.000000,16449.000000,51351.000000
5620.000000,15362.000000,16458.000000,51362.000000
5639.000000,15340.000000,16584.000000,51391.000000
5689.000000,15362.000000,16616.000000,51443.000000
5684.000000,15420.000000,16636.000000,51451.000000
5705.000000,15375.000000,16707.000000,51455.000000
5774.000000,15471.000000,16729.000000,51479.000000
5733.000000,15599.000000,16647.000000,51467.000000
5733.000000,15463.000000,16749.000000,51456.000000
5784.000000,15491.000000,16754.000000,51527.000000
5748.000000,15442.000000,16720.000000,51469.000000
5748.000000,15484.000000,16650.000000,51439.000000
5790.000000,15470.000000,16724.000000,51456.000000
5696.000000,15385.000000,16707.000000,51462.000000
5657.000000,15400.000000,16703.000000,51376.000000
5737.000000,15525.000000,16695.000000,51469.000000
5743.000000,15437.000000,16833.000000,51482.000000
5721.000000,15427.000000,16675.000000,51463.000000
5669.000000,15453.000000,16705.000000,51511.000000
5710.000000,15477.000000,16723.000000,51478.000000
5722.000000,15410.000000,16546.000000,51436.000000
5984.000000,15423.000000,16588.000000,51433.000000
5677.000000,15350.000000,16606.000000,51496.000000
5658.000000,15354.000000,16636.000000,51413.000000
5693.000000,15379.000000,16675.000000,51427.000000
5695.000000,15360.000000,16610.000000,51411.000000
5655.000000,15385.000000,16653.000000,51462.000000
5635.000000,15508.000000,16629.000000,51478.000000
5621.000000,15327.000000,16640.000000,51491.000000
5641.000000,15452.000000,16469.000000,51443.000000
5640.000000,15372.000000,16597.000000,51425.000000
5614.000000,15339.000000,16639.000000,51479.000000
5567.000000,15355.000000,16615.000000,51373.000000
5616.000000,15381.000000,16577.000000,51419.000000
5628.000000,15302.000000,16597.000000,51386.000000
5600.000000,15347.000000,16622.000000,51416.000000
5685.000000,15317.000000,16601.000000,51367.000000
5568.000000,15313.000000,16555.000000,51437.000000
5604.000000,15318.000000,16497.000000,51494.000000
5594.000000,15315.000000,16565.000000,51367.000000
5671.000000,15355.000000,16648.000000,51417.000000
5581.000000,15345.000000,16524.000000,51420.000000
5583.000000,15312.000000,16540.000000,51449.000000
5598.000000,15332.000000,16521.000000,51383.000000
5543.000000,15379.000000,16588.000000,51372.000000
5580.000000,15311.000000,16544.000000,51346.000000
5548.000000,15339.000000,16560.000000,51374.000000
5566.000000,15354.000000,16514.000000,51360.000000
5566.000000,15370.000000,16489.000000,51386.000000
5518.000000,15265.000000,16552.000000,51349.000000
5543.000000,15299.000000,16481.000000,51341.000000
5512.000000,15247.000000,16474.000000,51262.000000
5496.000000,15272.000000,16457.000000,51333.000000
5489.000000,15299.000000,16446.000000,51302.000000
5535.000000,15297.000000,16511.000000,51362.000000
5462.000000,15258.000000,16470.000000,51343.000000
5488.000000,15287.000000,16513.000000,51332.000000
5556.000000,15287.000000,16373.000000,51380.000000
5506.000000,15237.000000,16436.000000,51296.000000
5505.000000,15263.000000,16401.000000,51280.000000
5469.000000,15295.000000,16433.000000,51272.000000
5431.000000,15225.000000,16367.000000,51287.000000
5438.000000,15245.000000,16402.000000,51297.000000
5459.000000,15181.000000,16390.000000,51304.000000
5456.000000,15335.000000,16367.000000,51353.000000
5405.000000,15208.000000,16370.000000,51276.000000
5500.000000,15200.000000,16298.000000,51276.000000
5448.000000,15178.000000,16349.000000,51254.000000
5380.000000,15192.000000,16354.000000,51282.000000
5384.000000,15258.000000,16302.000000,51276.000000
5426.000000,15197.000000,16284.000000,51243.000000
5218.000000,15118.000000,16299.000000,51231.000000
5363.000000,15135.000000,16234.000000,51257.000000
5358.000000,15027.000000,16167.000000,51360.000000
5277.000000,15135.000000,16292.000000,51219.000000
5389.000000,15105.000000,16225.000000,51264.000000
5375.000000,15139.000000,16244.000000,51217.000000
5383.000000,15175.000000,16255.000000,51250.000000
5381.000000,15136.000000,16259.000000,51221.000000
5315.000000,15121.000000,16208.000000,51174.000000
5329.000000,15116.000000,16183.000000,51197.000000
5318.000000,15105.000000,16236.000000,51166.000000
5364.000000,15138.000000,16263.000000,51235.000000
5318.000000,15060.000000,16223.000000,51202.000000
5342.000000,15106.000000,16276.000000,51205.000000
5339.000000,15107.000000,16214.000000,51264.000000
5303.000000,15112.000000,16234.000000,51233.000000
5315.000000,15101.000000,16143.000000,51197.000000
5209.000000,15075.000000,16169.000000,51268.000000
5303.000000,15065.000000,16193.000000,51254.000000
5307.000000,15055.000000,16191.000000,51153.000000
5270.000000,15077.000000,16198.000000,51164.000000
5232.000000,15031.000000,16238.000000,51185.000000
5321.000000,15085.000000,16197.000000,51210.000000
5233.000000,15013.000000,16125.000000,51161.000000
5269.000000,15091.000000,16163.000000,51112.000000
5247.000000,15014.000000,16079.000000,51151.000000
5282.000000,15002.000000,16077.000000,51145.000000
5233.000000,15057.000000,16119.000000,51166.000000
5230.000000,15161.000000,16077.000000,51150.000000
5216.000000,15037.000000,16060.000000,51150.000000
5168.000000,14987.000000,16053.000000,51195.000000
5214.000000,15052.000000,16099.000000,51118.000000
5167.000000,14954.000000,16058.000000,51078.000000
5202.000000,14992.000000,16040.000000,51109.000000
5182.000000,15016.000000,15983.000000,51148.000000
5174.000000,14970.000000,16024.000000,51036.000000
5133.000000,14972.000000,16039.000000,51137.000000
5217.000000,14961.000000,15972.000000,51124.000000
5147.000000,14997.000000,16067.000000,51105.000000
5222.000000,15104.000000,16033.000000,51144.000000
5192.000000,15022.000000,16016.000000,51105.000000
5224.000000,15014.000000,16067.000000,51111.000000
5234.000000,15022.000000,16055.000000,51136.000000
5234.000000,15016.000000,16060.000000,51055.000000
5254.000000,15023.000000,16107.000000,51154.000000
5220.000000,15016.000000,16038.000000,51120.000000
5258.000000,15010.000000,16059.000000,51143.000000
5223.000000,15037.000000,16063.000000,51069.000000
5316.000000,15007.000000,16087.000000,51082.000000
5241.000000,15040.000000,16110.000000,51158.000000
5325.000000,15091.000000,16113.000000,51174.000000
5319.000000,15045.000000,16211.000000,51167.000000
5330.000000,15044.000000,16174.000000,51184.000000
5354.000000,15084.000000,16226.000000,51156.000000
5379.000000,15106.000000,16208.000000,51277.000000
5395.000000,15099.000000,16247.000000,51215.000000
5427.000000,15199.000000,16302.000000,51222.000000
5456.000000,15133.000000,16284.000000,51279.000000
5483.000000,15271.000000,16362.000000,51328.000000
5450.000000,15276.000000,16519.000000,51304.000000
5612.000000,15267.000000,16473.000000,51350.000000
5715.000000,15441.000000,16594.000000,51345.000000
5743.000000,15409.000000,16647.000000,51475.000000
5709.000000,15443.000000,16602.000000,51441.000000
5734.000000,15418.000000,16678.000000,51441.000000
5763.000000,15376.000000,16734.000000,51440.000000
5776.000000,15449.000000,16680.000000,51457.000000
5811.000000,15493.000000,16736.000000,51477.000000
5773.000000,15401.000000,16699.000000,51467.000000
5766.000000,15455.000000,16680.000000,51416.000000
5800.000000,15367.000000,16710.000000,51465.000000
5767.000000,15426.000000,16647.000000,51446.000000
5793.000000,15376.000000,16596.000000,51470.000000
5790.000000,15413.000000,16679.000000,51445.000000
5835.000000,15421.000000,16625.000000,51435.000000
5776.000000,15388.000000,16670.000000,51461.000000
5700.000000,15401.000000,16589.000000,51487.000000
5765.000000,15380.000000,16641.000000,51483.000000
5781.000000,15396.000000,16612.000000,51464.000000
5742.000000,15384.000000,16669.000000,51427.000000
5703.000000,15401.000000,16673.000000,51430.000000
5717.000000,15344.000000,16659.000000,51431.000000
5758.000000,15385.000000,16529.000000,51465.000000
5720.000000,15391.000000,16654.000000,51424.000000
5683.000000,15337.000000,16538.000000,51418.000000
5668.000000,15328.000000,16571.000000,51402.000000
5666.000000,15353.000000,16527.000000,51377.000000
5703.000000,15285.000000,16574.000000,51457.000000
5651.000000,15285.000000,16505.000000,51374.000000
5680.000000,15335.000000,16524.000000,51402.000000
5632.000000,15325.000000,16477.000000,51384.000000
5597.000000,15279.000000,16507.000000,51377.000000
5640.000000,15300.000000,16431.000000,51356.000000
5526.000000,15268.000000,16435.000000,51362.000000
5624.000000,15263.000000,16483.000000,51361.000000
5563.000000,15215.000000,16457.000000,51332.000000
5568.000000,15223.000000,16487.000000,51278.000000
5555.000000,15211.000000,16371.000000,51348.000000
5618.000000,15255.000000,16343.000000,51178.000000
5510.000000,15212.000000,16360.000000,51246.000000
5557.000000,15209.000000,16311.000000,51285.000000
5542.000000,15105.000000,16296.000000,51215.000000
5518.000000,15145.000000,16298.000000,51284.000000
5455.000000,15182.000000,16343.000000,51269.000000
5512.000000,15120.000000,16275.000000,51196.000000
5485.000000,15169.000000,16260.000000,51286.000000
5453.000000,15133.000000,16239.000000,51280.000000
5456.000000,15153.000000,16231.000000,51297.000000
5463.000000,15136.000000,16252.000000,51250.000000
5458.000000,15175.000000,16208.000000,51217.000000
5478.000000,15184.000000,16242.000000,51232.000000
5495.000000,15122.000000,16246.000000,51233.000000
5423.000000,15144.000000,16216.000000,51260.000000
5452.000000,15142.000000,16188.000000,51263.000000
5444.000000,15127.000000,16095.000000,51192.000000
5466.000000,15089.000000,16199.000000,51274.000000
5356.000000,15091.000000,16195.000000,51150.000000
5441.000000,15171.000000,16181.000000,51210.000000
5478.000000,15123.000000,16204.000000,51165.000000
5368.000000,15065.000000,16027.000000,51170.000000
5398.000000,15063.000000,16165.000000,51175.000000
5393.000000,15082.000000,16074.000000,51178.000000
5373.000000,15072.000000,16069.000000,51179.000000
5290.000000,15055.000000,16070.000000,51176.000000
5369.000000,15070.000000,16096.000000,51182.000000
5307.000000,15049.000000,16047.000000,51174.000000
5345.000000,15078.000000,16056.000000,51148.000000
5315.000000,15049.000000,16076.000000,51138.000000
5357.000000,15094.000000,16047.000000,51167.000000
5346.000000,15043.000000,16073.000000,51188.000000
5361.000000,15082.000000,16090.000000,51251.000000
5306.000000,15105.000000,16055.000000,51168.000000
5373.000000,15061.000000,16113.000000,51188.000000
5384.000000,15057.000000,16124.000000,51071.000000
5425.000000,15135.000000,16150.000000,51200.000000
5431.000000,15063.000000,16123.000000,51199.000000
5518.000000,15140.000000,16248.000000,51251.000000
5577.000000,15235.000000,16310.000000,51257.000000
5718.000000,15360.000000,16559.000000,51434.000000
5825.000000,15412.000000,16672.000000,51477.000000
5798.000000,15463.000000,16671.000000,51490.000000
5873.000000,15418.000000,16699.000000,51475.000000
5858.000000,15448.000000,16664.000000,51471.000000
5908.000000,15476.000000,16688.000000,51504.000000
5874.000000,15420.000000,16713.000000,51457.000000
5899.000000,15478.000000,16774.000000,51589.000000
5903.000000,15416.000000,16700.000000,51457.000000
5855.000000,15503.000000,16728.000000,51482.000000
5864.000000,15480.000000,16699.000000,51471.000000
5836.000000,15393.000000,16744.000000,51480.000000
5823.000000,15398.000000,16628.000000,51439.000000
5808.000000,15394.000000,16607.000000,51461.000000
5829.000000,15455.000000,16620.000000,51426.000000
5813.000000,15406.000000,16683.000000,51448.000000
5838.000000,15483.000000,16671.000000,51433.000000
5783.000000,15418.000000,16668.000000,51447.000000
5761.000000,15446.000000,16623.000000,51443.000000
5810.000000,15394.000000,16649.000000,51454.000000
5778.000000,15388.000000,16620.000000,51390.000000
5750.000000,15414.000000,16614.000000,51435.000000
5926.000000,15456.000000,16687.000000,51471.000000
5828.000000,15413.000000,16593.000000,51461.000000
5765.000000,15415.000000,16574.000000,51467.000000
5794.000000,15385.000000,16619.000000,51435.000000
5793.000000,15360.000000,16586.000000,51415.000000
5728.000000,15347.000000,16574.000000,51471.000000
5802.000000,15381.000000,16622.000000,51384.000000
5773.000000,15367.000000,16649.000000,51401.000000
5790.000000,15393.000000,16604.000000,51443.000000
5755.000000,15394.000000,16617.000000,51481.000000
5768.000000,15381.000000,16605.000000,51407.000000
5762.000000,15355.000000,16543.000000,51351.000000
5740.000000,15338.000000,16560.000000,51387.000000
5751.000000,15369.000000,16529.000000,51541.000000
5719.000000,15313.000000,16557.000000,51417.000000
5728.000000,15327.000000,16532.000000,51479.000000
5730.000000,15323.000000,16482.000000,51376.000000
5615.000000,15268.000000,16536.000000,51375.000000
5708.000000,15412.000000,16564.000000,51388.000000
5666.000000,15289.000000,16472.000000,51371.000000
5730.000000,15229.000000,16548.000000,51452.000000
5660.000000,15343.000000,16498.000000,51349.000000
5713.000000,15293.000000,16451.000000,51360.000000
5648.000000,15308.000000,16469.000000,51374.000000
5668.000000,15268.000000,16566.000000,51430.000000
5638.000000,15263.000000,16497.000000,51413.000000
5584.000000,15223.000000,16474.000000,51348.000000
5615.000000,15259.000000,16440.000000,51360.000000
5601.000000,15228.000000,16435.000000,51351.000000
5614.000000,15184.000000,16451.000000,51355.000000
5645.000000,15233.000000,16431.000000,51367.000000
5677.000000,15209.000000,16461.000000,51310.000000
5584.000000,15227.000000,16376.000000,51321.000000
5591.000000,15150.000000,16359.000000,51441.000000
5592.000000,15254.000000,16386.000000,51325.000000
5624.000000,15240.000000,16386.000000,51336.000000
5604.000000,15221.000000,16368.000000,51319.000000
5551.000000,15247.000000,16396.000000,51372.000000
5601.000000,15232.000000,16334.000000,51288.000000
5578.000000,15162.000000,16362.000000,51279.000000
5598.000000,15203.000000,16310.000000,51311.000000
5509.000000,15218.000000,16317.000000,51312.000000
5554.000000,15175.000000,16366.000000,51306.000000
5554.000000,15175.000000,16311.000000,51315.000000
5596.000000,15095.000000,16295.000000,51314.000000
5476.000000,15200.000000,16294.000000,51304.000000
5504.000000,15199.000000,16367.000000,51341.000000
5470.000000,15162.000000,16227.000000,51283.000000
5482.000000,15138.000000,16232.000000,51296.000000
5485.000000,15196.000000,16306.000000,51276.000000
5530.000000,15160.000000,16266.000000,51274.000000
5552.000000,15143.000000,16234.000000,51289.000000
5498.000000,15169.000000,16280.000000,51274.000000
5533.000000,15260.000000,16281.000000,51259.000000
5472.000000,15157.000000,16234.000000,51278.000000
5459.000000,15139.000000,16200.000000,51257.000000
5446.000000,15137.000000,16213.000000,51231.000000
5397.000000,15147.000000,16255.000000,51247.000000
5490.000000,15116.000000,16255.000000,51255.000000
5554.000000,14951.000000,16269.000000,51153.000000
5465.000000,15151.000000,16203.000000,51203.000000
5510.000000,15161.000000,16174.000000,51248.000000
5460.000000,15151.000000,16219.000000,51254.000000
5458.000000,15155.000000,16238.000000,51302.000000
5432.000000,15089.000000,16194.000000,51216.000000
5484.000000,15125.000000,16229.000000,51221.000000
5462.000000,15088.000000,16109.000000,51239.000000
5471.000000,15170.000000,16160.000000,51257.000000
5445.000000,15102.000000,16172.000000,51250.000000
5465.000000,15114.000000,16182.000000,51216.000000
5434.000000,15121.000000,16174.000000,51142.000000
5484.000000,15136.000000,16174.000000,51255.000000
5417.000000,15072.000000,16123.000000,51215.000000
5350.000000,15087.000000,16140.000000,51183.000000
5396.000000,15058.000000,16118.000000,51193.000000
5357.000000,15070.000000,16089.000000,51178.000000
5375.000000,14983.000000,16062.000000,51195.000000
5361.000000,15096.000000,16071.000000,51191.000000
5412.000000,15078.000000,16102.000000,51203.000000
5397.000000,15078.000000,16101.000000,51231.000000
5397.000000,15034.000000,16078.000000,51184.000000
5382.000000,15055.000000,15993.000000,51152.000000
5369.000000,15032.000000,16107.000000,51147.000000
5273.000000,15045.000000,16075.000000,51138.000000
5392.000000,15035.000000,16096.000000,51180.000000
5422.000000,15051.000000,16062.000000,51112.000000
5326.000000,15074.000000,16092.000000,51219.000000
5371.000000,15031.000000,16056.000000,51174.000000
5317.000000,15058.000000,16040.000000,51175.000000
5356.000000,15045.000000,16067.000000,51187.000000
5352.000000,15054.000000,16084.000000,51171.000000
5412.000000,15063.000000,16091.000000,51129.000000
5386.000000,15053.000000,16067.000000,51141.000000
5370.000000,15085.000000,16076.000000,51137.000000
5368.000000,15135.000000,16059.000000,51061.000000
5360.000000,15075.000000,16145.000000,51195.000000
5276.000000,15109.000000,16258.000000,51218.000000
5449.000000,15069.000000,16141.000000,51219.000000
5475.000000,15084.000000,16165.000000,51199.000000
5440.000000,15065.000000,16136.000000,51211.000000
5464.000000,15095.000000,16202.000000,51250.000000
5473.000000,15101.000000,16158.000000,51245.000000
5467.000000,15160.000000,16244.000000,51211.000000
5562.000000,15208.000000,16293.000000,51249.000000
5532.000000,15224.000000,16223.000000,51305.000000
5511.000000,15145.000000,16279.000000,51264.000000
5579.000000,15237.000000,16333.000000,51299.000000
5618.000000,15207.000000,16474.000000,51331.000000
5634.000000,15331.000000,16415.000000,51352.000000
5666.000000,15382.000000,16490.000000,51391.000000
5801.000000,15401.000000,16609.000000,51451.000000
5820.000000,15430.000000,16650.000000,51447.000000
5850.000000,15430.000000,16659.000000,51492.000000
5866.000000,15479.000000,16727.000000,51485.000000
5897.000000,15443.000000,16706.000000,51501.000000
5974.000000,15498.000000,16769.000000,51551.000000
5799.000000,15534.000000,16774.000000,51471.000000
5892.000000,15466.000000,16704.000000,51490.000000
5864.000000,15423.000000,16756.000000,51376.000000
5954.000000,15513.000000,16760.000000,51500.000000
5899.000000,15403.000000,16704.000000,51451.000000
5883.000000,15383.000000,16747.000000,51487.000000
5880.000000,15439.000000,16656.000000,51513.000000
5850.000000,15443.000000,16632.000000,51497.000000
5926.000000,15426.000000,16645.000000,51508.000000
5834.000000,15450.000000,16669.000000,51496.000000
5864.000000,15377.000000,16664.000000,51494.000000
5846.000000,15425.000000,16648.000000,51534.000000
5824.000000,15355.000000,16631.000000,51392.000000
5815.000000,15398.000000,16642.000000,51407.000000
5809.000000,15378.000000,16657.000000,51449.000000
5785.000000,15434.000000,16655.000000,51443.000000
5825.000000,15390.000000,16636.000000,51455.000000
5702.000000,15298.000000,16684.000000,51449.000000
5783.000000,15388.000000,16603.000000,51462.000000
5807.000000,15352.000000,16613.000000,51398.000000
5813.000000,15343.000000,16616.000000,51487.000000
5810.000000,15458.000000,16645.000000,51438.000000
5780.000000,15481.000000,16501.000000,51510.000000
5775.000000,15362.000000,16567.000000,51426.000000
5763.000000,15335.000000,16602.000000,51394.000000
5768.000000,15397.000000,16642.000000,51402.000000
5752.000000,15374.000000,16589.000000,51543.000000
5722.000000,15341.000000,16522.000000,51408.000000
5745.000000,15345.000000,16506.000000,51345.000000
5746.000000,15390.000000,16595.000000,51430.000000
5748.000000,15339.000000,16623.000000,51398.000000
5752.000000,15328.000000,16545.000000,51396.000000
5718.000000,15317.000000,16586.000000,51410.000000
5691.000000,15320.000000,16573.000000,51395.000000
5684.000000,15373.000000,16490.000000,51358.000000
5793.000000,15257.000000,16543.000000,51427.000000
5688.000000,15291.000000,16532.000000,51402.000000
5682.000000,15241.000000,16462.000000,51450.000000
5681.000000,15293.000000,16502.000000,51379.000000
5628.000000,15306.000000,16376.000000,51397.000000
5673.000000,15249.000000,16469.000000,51358.000000
5599.000000,15281.000000,16525.000000,51346.000000
5617.000000,15288.000000,16492.000000,51360.000000
5682.000000,15312.000000,16493.000000,51385.000000
5777.000000,15305.000000,16467.000000,51415.000000
5683.000000,15240.000000,16463.000000,51390.000000
5581.000000,15238.000000,16483.000000,51352.000000
5680.000000,15280.000000,16406.000000,51352.000000
5688.000000,15247.000000,16364.000000,51326.000000
5609.000000,15271.000000,16429.000000,51341.000000
5570.000000,15248.000000,16483.000000,51389.000000
5609.000000,15260.000000,16380.000000,51332.000000
5562.000000,15185.000000,16439.000000,51370.000000
5571.000000,15203.000000,16337.000000,51335.000000
5583.000000,15245.000000,16368.000000,51333.000000
5553.000000,15225.000000,16334.000000,51311.000000
5628.000000,15199.000000,16369.000000,51284.000000
5578.000000,15189.000000,16341.000000,51267.000000
5561.000000,15192.000000,16344.000000,51285.000000
5621.000000,15192.000000,16292.000000,51334.000000
5508.000000,15185.000000,16272.000000,51300.000000
5527.000000,15184.000000,16278.000000,51290.000000
5511.000000,15115.000000,16240.000000,51279.000000
5537.000000,15205.000000,16325.000000,51296.000000
5553.000000,15171.000000,16271.000000,51275.000000
5509.000000,15186.000000,16249.000000,51317.000000
5494.000000,15224.000000,16229.000000,51263.000000
5497.000000,15164.000000,16302.000000,51218.000000
5538.000000,15137.000000,16242.000000,51318.000000
5516.000000,15102.000000,16258.000000,51245.000000
5475.000000,15107.000000,16153.000000,51229.000000
5431.000000,15155.000000,16226.000000,51251.000000
5401.000000,15213.000000,16162.000000,51252.000000
5487.000000,15183.000000,16165.000000,51239.000000
5417.000000,15139.000000,16199.000000,51298.000000
5476.000000,15099.000000,16195.000000,51228.000000
5475.000000,15135.000000,16172.000000,51239.000000
5466.000000,15095.000000,16138.000000,51243.000000
5435.000000,15093.000000,16162.000000,51258.000000
5433.000000,15124.000000,16165.000000,51255.000000
5480.000000,15046.000000,16173.000000,51196.000000
5442.000000,15025.000000,16164.000000,51168.000000
5476.000000,15087.000000,16141.000000,51270.000000
5457.000000,15082.000000,16082.000000,51361.000000
5477.000000,15084.000000,16136.000000,51231.000000
5427.000000,15127.000000,16179.000000,51233.000000
5464.000000,15119.000000,16145.000000,51230.000000
5484.000000,15137.000000,16126.000000,51305.000000
5458.000000,15098.000000,16132.000000,51199.000000
5425.000000,15073.000000,16088.000000,51171.000000
5379.000000,15042.000000,16075.000000,51158.000000
5378.000000,15035.000000,16054.000000,51139.000000
5347.000000,15087.000000,16114.000000,51188.000000
5398.000000,15017.000000,16058.000000,51168.000000
5416.000000,15007.000000,16069.000000,51159.000000
5397.000000,15019.000000,16007.000000,51159.000000
5318.000000,15071.000000,16039.000000,51176.000000
5399.000000,15019.000000,15970.000000,51140.000000
5417.000000,15091.000000,16036.000000,51173.000000
5349.000000,14995.000000,16018.000000,51113.000000
5385.000000,14979.000000,16024.000000,51104.000000
5395.000000,15003.000000,15997.000000,51147.000000
5412.000000,15042.000000,16028.000000,51163.000000
5421.000000,15034.000000,16017.000000,51144.000000
5395.000000,15053.000000,15983.000000,51205.000000
5379.000000,15042.000000,16039.000000,51113.000000
5383.000000,15017.000000,16008.000000,51129.000000
5345.000000,15028.000000,16102.000000,51157.000000
5346.000000,15052.000000,16022.000000,51147.000000
5482.000000,15050.000000,16063.000000,51217.000000
5391.000000,15027.000000,16052.000000,51137.000000
5493.000000,15024.000000,16099.000000,51125.000000
5352.000000,15005.000000,16035.000000,51152.000000
5392.000000,15030.000000,16019.000000,51281.000000
5420.000000,15063.000000,16086.000000,51200.000000
5486.000000,15085.000000,16053.000000,51166.000000
5423.000000,15054.000000,16145.000000,51164.000000
5483.000000,15057.000000,16100.000000,51227.000000
5484.000000,15040.000000,16201.000000,51232.000000
5449.000000,15090.000000,16083.000000,51238.000000
5461.000000,15052.000000,16214.000000,51224.000000
5515.000000,15111.000000,16193.000000,51270.000000
5619.000000,15125.000000,16244.000000,51341.000000
5550.000000,15152.000000,16222.000000,51300.000000
5557.000000,15152.000000,16241.000000,51358.000000
5645.000000,15144.000000,16310.000000,51294.000000
5627.000000,15205.000000,16289.000000,51260.000000
5670.000000,15245.000000,16389.000000,51339.000000
5687.000000,15247.000000,16428.000000,51332.000000
5744.000000,15287.000000,16474.000000,51439.000000
5824.000000,15316.000000,16530.000000,51412.000000
5857.000000,15352.000000,16572.000000,51451.000000
5862.000000,15413.000000,16597.000000,51433.000000
5828.000000,15285.000000,16572.000000,51416.000000
5931.000000,15450.000000,16673.000000,51488.000000
5760.000000,15447.000000,16652.000000,51519.000000
5922.000000,15401.000000,16660.000000,51524.000000
5865.000000,15500.000000,16688.000000,51472.000000
5958.000000,15463.000000,16707.000000,51479.000000
5842.000000,15428.000000,16650.000000,51495.000000
5926.000000,15402.000000,16658.000000,51527.000000
5915.000000,15430.000000,16680.000000,51530.000000
5898.000000,15442.000000,16741.000000,51493.000000
5897.000000,15417.000000,16622.000000,51475.000000
5880.000000,15296.000000,16586.000000,51443.000000
5891.000000,15410.000000,16609.000000,51481.000000
5884.000000,15321.000000,16666.000000,51485.000000
5881.000000,15368.000000,16584.000000,51463.000000
5837.000000,15335.000000,16483.000000,51421.000000
5859.000000,15346.000000,16571.000000,51434.000000
5800.000000,15343.000000,16611.000000,51412.000000
5760.000000,15363.000000,16588.000000,51475.000000
5867.000000,15345.000000,16593.000000,51446.000000
5807.000000,15359.000000,16545.000000,51532.000000
5879.000000,15369.000000,16512.000000,51426.000000
5851.000000,15370.000000,16521.000000,51461.000000
5805.000000,15382.000000,16541.000000,51398.000000
5825.000000,15336.000000,16549.000000,51421.000000
5771.000000,15353.000000,16567.000000,51442.000000
5785.000000,15339.000000,16483.000000,51359.000000
5776.000000,15348.000000,16534.000000,51421.000000
5866.000000,15359.000000,16502.000000,51455.000000
5763.000000,15282.000000,16529.000000,51443.000000
5770.000000,15319.000000,16484.000000,51409.000000
5794.000000,15337.000000,16485.000000,51418.000000
5805.000000,15343.000000,16481.000000,51445.000000
5862.000000,15300.000000,16446.000000,51332.000000
5749.000000,15281.000000,16470.000000,51409.000000
5679.000000,15301.000000,16453.000000,51371.000000
5775.000000,15291.000000,16449.000000,51390.000000
5763.000000,15311.000000,16455.000000,51419.000000
5726.000000,15365.000000,16439.000000,51383.000000
5717.000000,15259.000000,16407.000000,51381.000000
5729.000000,15261.000000,16414.000000,51458.000000
5759.000000,15289.000000,16426.000000,51383.000000
5715.000000,15331.000000,16361.000000,51351.000000
5696.000000,15249.000000,16393.000000,51344.000000
5717.000000,15247.000000,16340.000000,51290.000000
5725.000000,15240.000000,16341.000000,51384.000000
5729.000000,15273.000000,16322.000000,51352.000000
5692.000000,15281.000000,16329.000000,51316.000000
5740.000000,15274.000000,16441.000000,51222.000000
5744.000000,15265.000000,16346.000000,51381.000000
5641.000000,15231.000000,16325.000000,51357.000000
5675.000000,15255.000000,16287.000000,51349.000000
5654.000000,15199.000000,16349.000000,51306.000000
5678.000000,15211.000000,16284.000000,51294.000000
5620.000000,15208.000000,16227.000000,51274.000000
5744.000000,15245.000000,16239.000000,51251.000000
5609.000000,15196.000000,16228.000000,51275.000000
5724.000000,15166.000000,16273.000000,51374.000000
5628.000000,15100.000000,16205.000000,51231.000000
5599.000000,15131.000000,16221.000000,51227.000000
5604.000000,15147.000000,16239.000000,51270.000000
5635.000000,15120.000000,16224.000000,51274.000000
5568.000000,15135.000000,16232.000000,51241.000000
5583.000000,15133.000000,16216.000000,51254.000000
5567.000000,15112.000000,16197.000000,51242.000000
5604.000000,15151.000000,16173.000000,51189.000000
5523.000000,15135.000000,16194.000000,51253.000000
5623.000000,15145.000000,16145.000000,51235.000000
5594.000000,15127.000000,16190.000000,51238.000000
5512.000000,15109.000000,16098.000000,51166.000000
5571.000000,15227.000000,16040.000000,51220.000000
5533.000000,15099.000000,16121.000000,51259.000000
5532.000000,15107.000000,16216.000000,51141.000000
5509.000000,15104.000000,16135.000000,51256.000000
5566.000000,15103.000000,16095.000000,51242.000000
5531.000000,15114.000000,16111.000000,51222.000000
5522.000000,15121.000000,16164.000000,51203.000000
5544.000000,15163.000000,16154.000000,51271.000000
5512.000000,15086.000000,16139.000000,51218.000000
5565.000000,15111.000000,16188.000000,51254.000000
5537.000000,15067.000000,16094.000000,51251.000000
5457.000000,15076.000000,16120.000000,51387.000000
5495.000000,15043.000000,16143.000000,51212.000000
5451.000000,15015.000000,16063.000000,51251.000000
5507.000000,15078.000000,16095.000000,51228.000000
5499.000000,15039.000000,16126.000000,51225.000000
5500.000000,15047.000000,16076.000000,51198.000000
5470.000000,15064.000000,16068.000000,51242.000000
5514.000000,15111.000000,16126.000000,51171.000000
5461.000000,15038.000000,16039.000000,51199.000000
5486.000000,15000.000000,16090.000000,51154.000000
5504.000000,15058.000000,16057.000000,51194.000000
5402.000000,15010.000000,15949.000000,51102.000000
5397.000000,15052.000000,16042.000000,51192.000000
5396.000000,15002.000000,15966.000000,51174.000000
5438.000000,15008.000000,16019.000000,51091.000000
5348.000000,15035.000000,15982.000000,51119.000000
5413.000000,15050.000000,16008.000000,51183.000000
5430.000000,14903.000000,15966.000000,51177.000000
5411.000000,15298.000000,16044.000000,51175.000000
5423.000000,15022.000000,15950.000000,51212.000000
5371.000000,14992.000000,15972.000000,51107.000000
5510.000000,15022.000000,15952.000000,51159.000000
5434.000000,15056.000000,16002.000000,51153.000000
5409.000000,15040.000000,15974.000000,51148.000000
5354.000000,14990.000000,15975.000000,51170.000000
5414.000000,14996.000000,16004.000000,51138.000000
5419.000000,15032.000000,16052.000000,51170.000000
5404.000000,15022.000000,16012.000000,51133.000000
5417.000000,15013.000000,15952.000000,51217.000000
5429.000000,15023.000000,16014.000000,51173.000000
5479.000000,15044.000000,16047.000000,51093.000000
5529.000000,15049.000000,16046.000000,51218.000000
5402.000000,15033.000000,16039.000000,51188.000000
5545.000000,15002.000000,16062.000000,51224.000000
5539.000000,14994.000000,16090.000000,51204.000000
5374.000000,15041.000000,16077.000000,51265.000000
5460.000000,15015.000000,16064.000000,51165.000000
5462.000000,15070.000000,16138.000000,51154.000000
5465.000000,15025.000000,16174.000000,51190.000000
5491.000000,15051.000000,16196.000000,51218.000000
5461.000000,15072.000000,16124.000000,51197.000000
5543.000000,15151.000000,16166.000000,51246.000000
5608.000000,15115.000000,16094.000000,51236.000000
5592.000000,15144.000000,16118.000000,51255.000000
5591.000000,15092.000000,16185.000000,51279.000000
5593.000000,15151.000000,16236.000000,51300.000000
5756.000000,15189.000000,16380.000000,51458.000000
5700.000000,15255.000000,16427.000000,51419.000000
5741.000000,15186.000000,16440.000000,51421.000000
5818.000000,15374.000000,16532.000000,51423.000000
5804.000000,15313.000000,16521.000000,51437.000000
5883.000000,15371.000000,16616.000000,51510.000000
5925.000000,15416.000000,16604.000000,51489.000000
5934.000000,15393.000000,16599.000000,51479.000000
5903.000000,15418.000000,16566.000000,51502.000000
5937.000000,15418.000000,16620.000000,51511.000000
5973.000000,15438.000000,16679.000000,51521.000000
5999.000000,15425.000000,16675.000000,51526.000000
5941.000000,15400.000000,16657.000000,51481.000000
5930.000000,15408.000000,16680.000000,51569.000000
5975.000000,15479.000000,16632.000000,51506.000000
5943.000000,15446.000000,16627.000000,51544.000000
5895.000000,15391.000000,16655.000000,51478.000000
5963.000000,15393.000000,16603.000000,51504.000000
5902.000000,15391.000000,16587.000000,51467.000000
5914.000000,15369.000000,16592.000000,51432.000000
5939.000000,15406.000000,16621.000000,51498.000000
5919.000000,15415.000000,16612.000000,51463.000000
5908.000000,15392.000000,16625.000000,51471.000000
5913.000000,15359.000000,16644.000000,51477.000000
5863.000000,15379.000000,16560.000000,51422.000000
5853.000000,15395.000000,16566.000000,51428.000000
5955.000000,15365.000000,16531.000000,51421.000000
5893.000000,15301.000000,16538.000000,51480.000000
5857.000000,15356.000000,16560.000000,51476.000000
5921.000000,15333.000000,16539.000000,51379.000000
5866.000000,15330.000000,16553.000000,51431.000000
5845.000000,15332.000000,16540.000000,51490.000000
5901.000000,15350.000000,16638.000000,51417.000000
5822.000000,15336.000000,16563.000000,51433.000000
5796.000000,15295.000000,16497.000000,51470.000000
5822.000000,15263.000000,16558.000000,51433.000000
5769.000000,15296.000000,16472.000000,51414.000000
5807.000000,15301.000000,16561.000000,51424.000000
5849.000000,15254.000000,16518.000000,51426.000000
5786.000000,15287.000000,16583.000000,51384.000000
5809.000000,15288.000000,16496.000000,51517.000000
5810.000000,15239.000000,16484.000000,51492.000000
5760.000000,15283.000000,16421.000000,51389.000000
5773.000000,15257.000000,16432.000000,51461.000000
5748.000000,15337.000000,16455.000000,51414.000000
5785.000000,15257.000000,16435.000000,51455.000000
5772.000000,15287.000000,16387.000000,51433.000000
5805.000000,15279.000000,16482.000000,51419.000000
5759.000000,15302.000000,16318.000000,51286.000000
5749.000000,15282.000000,16408.000000,51413.000000
5794.000000,15294.000000,16487.000000,51337.000000
5750.000000,15283.000000,16379.000000,51366.000000
5764.000000,15229.000000,16355.000000,51342.000000
5717.000000,15220.000000,16330.000000,51341.000000
5661.000000,15095.000000,16460.000000,51345.000000
5710.000000,15232.000000,16349.000000,51355.000000
5735.000000,15257.000000,16303.000000,51358.000000
5738.000000,15219.000000,16372.000000,51362.000000
5716.000000,15196.000000,16320.000000,51401.000000
5723.000000,15179.000000,16399.000000,51338.000000
5706.000000,15235.000000,16284.000000,51341.000000
5645.000000,15171.000000,16303.000000,51301.000000
5767.000000,15196.000000,16345.000000,51301.000000
5604.000000,15185.000000,16316.000000,51351.000000
5672.000000,15196.000000,16320.000000,51328.000000
5711.000000,15295.000000,16301.000000,51332.000000
5666.000000,15191.000000,16286.000000,51292.000000
5627.000000,15175.000000,16279.000000,51248.000000
5664.000000,15231.000000,16268.000000,51318.000000
5692.000000,15124.000000,16240.000000,51283.000000
5641.000000,15180.000000,16279.000000,51322.000000
5679.000000,15197.000000,16212.000000,51313.000000
5690.000000,15161.000000,16027.000000,51395.000000
5623.000000,15136.000000,16260.000000,51281.000000
5606.000000,15211.000000,16238.000000,51298.000000
5636.000000,15151.000000,16252.000000,51275.000000
5616.000000,15151.000000,15993.000000,51301.000000
5595.000000,15135.000000,16213.000000,51222.000000
5738.000000,15264.000000,16200.000000,51294.000000
5565.000000,15107.000000,16239.000000,51293.000000
5612.000000,15140.000000,16165.000000,51271.000000
5631.000000,15113.000000,16189.000000,51262.000000
5576.000000,15091.000000,16131.000000,51217.000000
5507.000000,15066.000000,16168.000000,51227.000000
5552.000000,15069.000000,16124.000000,51257.000000
5543.000000,15139.000000,16171.000000,51283.000000
5526.000000,15119.000000,16137.000000,51237.000000
5572.000000,15151.000000,16265.000000,51243.000000
5549.000000,15075.000000,16169.000000,51262.000000
5549.000000,15097.000000,16132.000000,51166.000000
5563.000000,15078.000000,16142.000000,51217.000000
5514.000000,15001.000000,16105.000000,51301.000000
5562.000000,15307.000000,16133.000000,51180.000000
5514.000000,15067.000000,16152.000000,51251.000000
5543.000000,15096.000000,16132.000000,51199.000000
5513.000000,15074.000000,16139.000000,51245.000000
5521.000000,15346.000000,16088.000000,51285.000000
5490.000000,15090.000000,16066.000000,51192.000000
5399.000000,14970.000000,16058.000000,51195.000000
5465.000000,15038.000000,16027.000000,51180.000000
5490.000000,15002.000000,16066.000000,51194.000000
5463.000000,15019.000000,16044.000000,51179.000000
5513.000000,14989.000000,16086.000000,51182.000000
5462.000000,15027.000000,16095.000000,51109.000000
5456.000000,15007.000000,16028.000000,51114.000000
5462.000000,15009.000000,16032.000000,51173.000000
5452.000000,14992.000000,16021.000000,51187.000000
5492.000000,15054.000000,16043.000000,51149.000000
5450.000000,14987.000000,16012.000000,51155.000000
5473.000000,14963.000000,16120.000000,51162.000000
5449.000000,15023.000000,16005.000000,51136.000000
5435.000000,14991.000000,16039.000000,51103.000000
5447.000000,15039.000000,16022.000000,51138.000000
5383.000000,15022.000000,16034.000000,51153.000000
5435.000000,15044.000000,16036.000000,51170.000000
5507.000000,15010.000000,15930.000000,51223.000000
5467.000000,15001.000000,16008.000000,51154.000000
5432.000000,15015.000000,16034.000000,51234.000000
5446.000000,15038.000000,16008.000000,51208.000000
5502.000000,15257.000000,16085.000000,51155.000000
5440.000000,15049.000000,16077.000000,51210.000000
5425.000000,15075.000000,16123.000000,51261.000000
5546.000000,15027.000000,16059.000000,51271.000000
5496.000000,14971.000000,16078.000000,51208.000000
5436.000000,15050.000000,16064.000000,51118.000000
5555.000000,15051.000000,16070.000000,51218.000000
5557.000000,14959.000000,16062.000000,51232.000000
5549.000000,15087.000000,16148.000000,51252.000000
5492.000000,15128.000000,16179.000000,51316.000000
5552.000000,15106.000000,16169.000000,51284.000000
5564.000000,15140.000000,16244.000000,51261.000000
5580.000000,15172.000000,16225.000000,51294.000000
5592.000000,15130.000000,16278.000000,51237.000000
5684.000000,15254.000000,16279.000000,51308.000000
5645.000000,15240.000000,16340.000000,51368.000000
5753.000000,15245.000000,16419.000000,51379.000000
5704.000000,15265.000000,16418.000000,51350.000000
5764.000000,15238.000000,16472.000000,51403.000000
5932.000000,15368.000000,16616.000000,51545.000000
5870.000000,15380.000000,16627.000000,51538.000000
5960.000000,15422.000000,16681.000000,51484.000000
5921.000000,15400.000000,16699.000000,51527.000000
5958.000000,15409.000000,16665.000000,51492.000000
5955.000000,15425.000000,16679.000000,51495.000000
6009.000000,15422.000000,16787.000000,51522.000000
5961.000000,15446.000000,16665.000000,51575.000000
5947.000000,15451.000000,16652.000000,51487.000000
5898.000000,15388.000000,16698.000000,51520.000000
5979.000000,15305.000000,16698.000000,51529.000000
5988.000000,15382.000000,16637.000000,51533.000000
5852.000000,15372.000000,16629.000000,51454.000000
5934.000000,15382.000000,16612.000000,51484.000000
5891.000000,15325.000000,16705.000000,51503.000000
5902.000000,15404.000000,16629.000000,51496.000000
5861.000000,15354.000000,16740.000000,51401.000000
5895.000000,15398.000000,16619.000000,51498.000000
5856.000000,15339.000000,16548.000000,51489.000000
5832.000000,15284.000000,16567.000000,51479.000000
5883.000000,15352.000000,16592.000000,51487.000000
5849.000000,15368.000000,16634.000000,51485.000000
5871.000000,15373.000000,16605.000000,51488.000000
5867.000000,15444.000000,16573.000000,51465.000000
5862.000000,15303.000000,16627.000000,51573.000000
5905.000000,15332.000000,16544.000000,51442.000000
5876.000000,15323.000000,16563.000000,51455.000000
5808.000000,15307.000000,16594.000000,51440.000000
5782.000000,15311.000000,16548.000000,51463.000000
5883.000000,15282.000000,16539.000000,51449.000000
5811.000000,15331.000000,16574.000000,51418.000000
5802.000000,15264.000000,16594.000000,51424.000000
5781.000000,15315.000000,16564.000000,51368.000000
5808.000000,15313.000000,16548.000000,51435.000000
5819.000000,15327.000000,16445.000000,51449.000000
5803.000000,15319.000000,16523.000000,51389.000000
5729.000000,15327.000000,16494.000000,51441.000000
5811.000000,15279.000000,16500.000000,51476.000000
5736.000000,15296.000000,16532.000000,51532.000000
5734.000000,15244.000000,16483.000000,51384.000000
5770.000000,15269.000000,16430.000000,51402.000000
5728.000000,15255.000000,16503.000000,51385.000000
5754.000000,15231.000000,16462.000000,51454.000000
5604.000000,15272.000000,16451.000000,51405.000000
5686.000000,15279.000000,16522.000000,51434.000000
5709.000000,15287.000000,16508.000000,51376.000000
5724.000000,15215.000000,16398.000000,51397.000000
5714.000000,15214.000000,16418.000000,51374.000000
5708.000000,15242.000000,16421.000000,51387.000000
5706.000000,15241.000000,16279.000000,51501.000000
5722.000000,15203.000000,16360.000000,51343.000000
5683.000000,15212.000000,16326.000000,51479.000000
5728.000000,15235.000000,16391.000000,51385.000000
5650.000000,15139.000000,16328.000000,51385.000000
5647.000000,15179.000000,16373.000000,51371.000000
5659.000000,15152.000000,16359.000000,51370.000000
5584.000000,15158.000000,16337.000000,51340.000000
5675.000000,15219.000000,16367.000000,51393.000000
5661.000000,15177.000000,16385.000000,51319.000000
5662.000000,15176.000000,16275.000000,51318.000000
5637.000000,15239.000000,16336.000000,51303.000000
5646.000000,15199.000000,16244.000000,51318.000000
5682.000000,15167.000000,16263.000000,51295.000000
5644.000000,15169.000000,16325.000000,51344.000000
5554.000000,15045.000000,16226.000000,51280.000000
5619.000000,15140.000000,16228.000000,51283.000000
5538.000000,15117.000000,16272.000000,51237.000000
5575.000000,15129.000000,16243.000000,51258.000000
5578.000000,15093.000000,16225.000000,51337.000000
5565.000000,15149.000000,16305.000000,51349.000000
5564.000000,15098.000000,16178.000000,51264.000000
5610.000000,15076.000000,16174.000000,51259.000000
5580.000000,15116.000000,16187.000000,51261.000000
