660nm,730nm,850nm,940nm
15404.000000,15272.000000,5357.000000,43582.000000
15395.000000,15224.000000,5334.000000,43591.000000
15371.000000,15220.000000,5321.000000,43577.000000
15403.000000,15235.000000,5339.000000,43555.000000
15389.000000,15221.000000,5343.000000,43573.000000
15352.000000,15204.000000,5305.000000,43524.000000
15368.000000,15217.000000,5298.000000,43547.000000
15354.000000,15191.000000,5320.000000,43544.000000
15341.000000,15205.000000,5294.000000,43525.000000
15363.000000,15185.000000,5287.000000,43532.000000
15361.000000,15211.000000,5268.000000,43530.000000
15343.000000,15169.000000,5232.000000,43519.000000
15327.000000,15141.000000,5245.000000,43499.000000
15304.000000,15159.000000,5249.000000,43513.000000
15296.000000,15155.000000,5248.000000,43515.000000
15324.000000,15149.000000,5239.000000,43481.000000
15254.000000,15157.000000,5231.000000,43534.000000
15281.000000,15169.000000,5244.000000,43496.000000
15239.000000,15115.000000,5247.000000,43509.000000
15260.000000,15137.000000,5216.000000,43489.000000
15316.000000,15145.000000,5184.000000,43487.000000
15270.000000,15141.000000,5193.000000,43492.000000
15235.000000,15137.000000,5182.000000,43491.000000
15245.000000,15111.000000,5189.000000,43485.000000
15273.000000,15131.000000,5159.000000,43449.000000
15227.000000,15140.000000,5162.000000,43484.000000
15251.000000,15355.000000,5177.000000,43488.000000
15231.000000,15339.000000,5154.000000,43467.000000
15263.000000,15107.000000,5147.000000,43488.000000
15219.000000,15068.000000,5144.000000,43457.000000
15197.000000,15079.000000,5157.000000,43463.000000
15227.000000,15084.000000,5141.000000,43451.000000
15211.000000,15331.000000,5119.000000,43399.000000
15199.000000,15067.000000,5178.000000,43472.000000
15255.000000,15312.000000,5087.000000,43428.000000
15185.000000,15047.000000,5131.000000,43428.000000
15179.000000,15044.000000,5072.000000,43408.000000
15167.000000,15313.000000,5076.000000,43448.000000
15144.000000,15061.000000,5099.000000,43391.000000
15124.000000,15052.000000,5088.000000,43411.000000
15153.000000,15304.000000,5093.000000,43413.000000
15131.000000,15288.000000,5074.000000,43420.000000
15152.000000,15053.000000,5053.000000,43447.000000
15135.000000,15009.000000,5054.000000,43359.000000
15107.000000,15291.000000,5026.000000,43407.000000
15087.000000,14980.000000,5076.000000,43421.000000
15111.000000,14983.000000,5021.000000,43389.000000
15037.000000,14999.000000,4980.000000,43384.000000
15051.000000,14971.000000,5015.000000,43377.000000
15061.000000,14971.000000,5051.000000,43401.000000
15058.000000,15007.000000,5065.000000,43368.000000
15024.000000,15245.000000,4979.000000,43389.000000
15015.000000,14986.000000,5036.000000,43395.000000
15033.000000,14956.000000,5000.000000,43385.000000
15015.000000,14934.000000,4970.000000,43379.000000
15038.000000,14959.000000,4976.000000,43369.000000
14993.000000,15195.000000,4962.000000,43325.000000
15005.000000,14946.000000,4955.000000,43347.000000
14954.000000,14899.000000,4960.000000,43351.000000
14980.000000,14923.000000,4971.000000,43356.000000
14993.000000,14927.000000,4959.000000,43347.000000
14965.000000,15141.000000,4924.000000,43309.000000
14943.000000,15155.000000,4899.000000,43319.000000
14959.000000,14908.000000,4893.000000,43312.000000
14914.000000,15148.000000,4928.000000,43325.000000
14901.000000,15164.000000,4892.000000,43331.000000
14913.000000,14868.000000,4896.000000,43312.000000
14890.000000,15123.000000,4875.000000,43331.000000
14898.000000,14853.000000,4879.000000,43317.000000
14864.000000,14841.000000,4842.000000,43301.000000
14876.000000,14848.000000,4814.000000,43301.000000
14897.000000,14819.000000,4827.000000,43259.000000
14850.000000,14815.000000,4839.000000,43281.000000
14821.000000,14817.000000,4762.000000,43241.000000
14835.000000,14797.000000,4808.000000,43225.000000
14807.000000,14809.000000,4780.000000,43221.000000
14783.000000,14777.000000,4805.000000,43255.000000
14783.000000,14773.000000,4765.000000,43209.000000
14741.000000,14779.000000,4756.000000,43258.000000
14791.000000,14777.000000,4752.000000,43246.000000
14750.000000,14773.000000,4736.000000,43206.000000
14772.000000,14763.000000,4742.000000,43229.000000
14719.000000,14767.000000,4715.000000,43223.000000
14740.000000,14749.000000,4731.000000,43212.000000
14743.000000,14743.000000,4715.000000,43186.000000
14719.000000,14736.000000,4683.000000,43182.000000
14677.000000,14695.000000,4691.000000,43185.000000
14677.000000,14688.000000,4652.000000,43182.000000
14643.000000,14653.000000,4673.000000,43167.000000
14667.000000,14695.000000,4632.000000,43142.000000
14633.000000,14668.000000,4658.000000,43178.000000
14667.000000,14657.000000,4600.000000,43180.000000
14611.000000,14647.000000,4615.000000,43125.000000
14633.000000,14633.000000,4609.000000,43130.000000
14619.000000,14636.000000,4565.000000,43148.000000
14601.000000,14631.000000,4575.000000,43144.000000
14561.000000,14623.000000,4573.000000,43112.000000
14607.000000,14599.000000,4578.000000,43125.000000
14551.000000,14607.000000,4531.000000,43120.000000
14490.000000,14604.000000,4570.000000,43116.000000
14549.000000,14591.000000,4530.000000,43103.000000
14473.000000,14611.000000,4531.000000,43124.000000
14500.000000,14567.000000,4523.000000,43112.000000
14499.000000,14617.000000,4494.000000,43053.000000
14507.000000,14573.000000,4508.000000,43110.000000
14505.000000,14570.000000,4503.000000,43076.000000
14474.000000,14543.000000,4482.000000,43048.000000
14457.000000,14549.000000,4491.000000,43093.000000
14460.000000,14527.000000,4492.000000,43074.000000
14436.000000,14504.000000,4433.000000,43060.000000
14472.000000,14509.000000,4440.000000,43045.000000
14410.000000,14523.000000,4439.000000,43032.000000
14391.000000,14479.000000,4403.000000,43018.000000
14417.000000,14481.000000,4411.000000,43062.000000
14424.000000,14502.000000,4423.000000,43072.000000
14393.000000,14523.000000,4415.000000,43029.000000
14394.000000,14506.000000,4424.000000,43055.000000
14364.000000,14497.000000,4427.000000,43055.000000
14379.000000,14480.000000,4419.000000,43007.000000
14365.000000,14492.000000,4417.000000,43033.000000
14397.000000,14511.000000,4383.000000,43025.000000
14391.000000,14499.000000,4410.000000,43014.000000
14387.000000,14489.000000,4373.000000,43047.000000
14390.000000,14471.000000,4404.000000,43009.000000
14346.000000,14487.000000,4392.000000,43001.000000
14408.000000,14483.000000,4349.000000,42996.000000
14394.000000,14484.000000,4380.000000,43022.000000
14362.000000,14468.000000,4388.000000,43010.000000
14356.000000,14469.000000,4395.000000,42991.000000
14351.000000,14455.000000,4407.000000,43010.000000
14361.000000,14454.000000,4361.000000,43025.000000
14361.000000,14487.000000,4399.000000,43045.000000
14349.000000,14477.000000,4401.000000,43011.000000
14352.000000,14482.000000,4376.000000,43004.000000
14332.000000,14432.000000,4371.000000,42991.000000
14335.000000,14463.000000,4355.000000,43008.000000
14329.000000,14412.000000,4342.000000,42987.000000
14332.000000,14463.000000,4341.000000,43009.000000
14271.000000,14423.000000,4301.000000,42981.000000
14268.000000,14399.000000,4308.000000,42966.000000
14291.000000,14406.000000,4296.000000,42967.000000
14253.000000,14409.000000,4271.000000,42935.000000
14242.000000,14405.000000,4291.000000,42961.000000
14210.000000,14360.000000,4268.000000,42933.000000
14208.000000,14352.000000,4235.000000,42933.000000
14195.000000,14347.000000,4251.000000,42928.000000
14204.000000,14363.000000,4287.000000,42931.000000
14197.000000,14353.000000,4254.000000,42956.000000
14169.000000,14335.000000,4264.000000,42917.000000
14221.000000,14329.000000,4252.000000,42928.000000
14205.000000,14328.000000,4248.000000,42928.000000
14166.000000,14357.000000,4270.000000,42943.000000
14175.000000,14355.000000,4240.000000,42948.000000
14210.000000,14377.000000,4229.000000,42959.000000
14207.000000,14369.000000,4259.000000,42941.000000
14224.000000,14321.000000,4277.000000,42959.000000
14263.000000,14365.000000,4278.000000,42937.000000
14228.000000,14391.000000,4261.000000,42915.000000
14245.000000,14397.000000,4300.000000,42913.000000
14255.000000,14368.000000,4291.000000,42979.000000
14255.000000,14419.000000,4313.000000,42980.000000
14255.000000,14414.000000,4322.000000,42999.000000
14282.000000,14437.000000,4314.000000,42993.000000
14344.000000,14473.000000,4351.000000,43011.000000
14366.000000,14439.000000,4391.000000,43023.000000
14349.000000,14462.000000,4367.000000,43031.000000
14356.000000,14440.000000,4431.000000,43028.000000
14384.000000,14532.000000,4449.000000,43055.000000
14425.000000,14521.000000,4451.000000,43068.000000
14416.000000,14527.000000,4480.000000,43076.000000
14500.000000,14540.000000,4493.000000,43061.000000
14504.000000,14545.000000,4499.000000,43075.000000
14555.000000,14597.000000,4571.000000,43113.000000
14600.000000,14596.000000,4596.000000,43141.000000
14620.000000,14607.000000,4639.000000,43167.000000
14658.000000,14688.000000,4677.000000,43188.000000
14743.000000,14703.000000,4753.000000,43218.000000
14763.000000,14760.000000,4751.000000,43254.000000
14823.000000,14820.000000,4841.000000,43299.000000
14913.000000,14824.000000,4851.000000,43320.000000
15046.000000,14955.000000,4984.000000,43417.000000
15127.000000,15014.000000,5061.000000,43417.000000
15119.000000,15287.000000,5065.000000,43445.000000
15227.000000,15071.000000,5151.000000,43439.000000
15252.000000,15343.000000,5147.000000,43436.000000
15272.000000,15143.000000,5190.000000,43492.000000
15332.000000,15135.000000,5176.000000,43522.000000
15304.000000,15135.000000,5202.000000,43512.000000
15285.000000,15132.000000,5228.000000,43553.000000
15324.000000,15107.000000,5230.000000,43542.000000
15333.000000,15161.000000,5232.000000,43509.000000
15332.000000,15187.000000,5272.000000,43554.000000
15343.000000,15199.000000,5252.000000,43493.000000
15328.000000,15160.000000,5217.000000,43525.000000
15332.000000,15168.000000,5206.000000,43489.000000
15311.000000,15151.000000,5162.000000,43496.000000
15292.000000,15135.000000,5189.000000,43479.000000
15323.000000,15124.000000,5208.000000,43492.000000
15243.000000,15116.000000,5169.000000,43489.000000
15277.000000,15113.000000,5153.000000,43465.000000
15249.000000,15087.000000,5103.000000,43495.000000
15270.000000,15105.000000,5165.000000,43475.000000
15283.000000,15107.000000,5115.000000,43500.000000
15218.000000,15332.000000,5132.000000,43491.000000
15227.000000,15051.000000,5122.000000,43479.000000
15247.000000,15343.000000,5096.000000,43456.000000
15220.000000,15355.000000,5096.000000,43457.000000
15231.000000,15071.000000,5103.000000,43443.000000
15187.000000,15315.000000,5124.000000,43427.000000
15211.000000,15259.000000,5095.000000,43457.000000
15191.000000,15050.000000,5087.000000,43419.000000
15191.000000,15039.000000,5054.000000,43459.000000
15156.000000,15277.000000,5057.000000,43408.000000
15164.000000,15319.000000,5072.000000,43415.000000
15131.000000,15257.000000,5039.000000,43469.000000
15159.000000,15277.000000,5023.000000,43435.000000
15148.000000,15003.000000,5022.000000,43403.000000
15110.000000,15020.000000,5047.000000,43386.000000
15116.000000,15239.000000,5044.000000,43427.000000
15092.000000,15223.000000,5020.000000,43397.000000
15098.000000,15232.000000,5000.000000,43407.000000
15049.000000,14942.000000,4998.000000,43408.000000
15328.000000,15223.000000,4978.000000,43395.000000
15082.000000,14959.000000,5005.000000,43381.000000
15049.000000,14957.000000,4984.000000,43376.000000
15037.000000,15177.000000,5020.000000,43356.000000
15065.000000,14940.000000,5002.000000,43404.000000
15044.000000,15185.000000,4966.000000,43407.000000
15018.000000,14897.000000,4971.000000,43385.000000
15043.000000,15167.000000,4981.000000,43357.000000
14997.000000,15163.000000,4958.000000,43341.000000
15014.000000,14919.000000,4931.000000,43344.000000
14993.000000,15165.000000,4933.000000,43347.000000
15053.000000,15208.000000,4920.000000,43348.000000
14987.000000,14903.000000,4938.000000,43343.000000
14987.000000,15129.000000,4919.000000,43319.000000
14986.000000,14890.000000,4882.000000,43304.000000
14961.000000,15160.000000,4927.000000,43304.000000
14963.000000,14863.000000,4887.000000,43336.000000
14938.000000,14851.000000,4879.000000,43283.000000
14925.000000,14837.000000,4881.000000,43312.000000
14900.000000,14828.000000,4853.000000,43296.000000
14915.000000,14817.000000,4795.000000,43263.000000
14939.000000,14833.000000,4860.000000,43296.000000
14904.000000,14815.000000,4836.000000,43280.000000
14892.000000,14799.000000,4830.000000,43259.000000
14891.000000,14827.000000,4801.000000,43279.000000
14850.000000,14829.000000,4824.000000,43273.000000
14877.000000,14788.000000,4834.000000,43276.000000
14863.000000,14795.000000,4805.000000,43253.000000
14868.000000,14800.000000,4751.000000,43300.000000
14827.000000,14799.000000,4762.000000,43261.000000
14831.000000,14764.000000,4781.000000,43311.000000
14827.000000,14791.000000,4782.000000,43247.000000
14819.000000,14807.000000,4754.000000,43262.000000
14813.000000,14769.000000,4740.000000,43272.000000
14797.000000,14795.000000,4737.000000,43271.000000
14779.000000,14781.000000,4719.000000,43224.000000
14787.000000,14723.000000,4720.000000,43217.000000
14780.000000,14716.000000,4715.000000,43216.000000
14764.000000,14755.000000,4677.000000,43216.000000
14736.000000,14721.000000,4682.000000,43209.000000
14752.000000,14707.000000,4705.000000,43201.000000
14695.000000,14703.000000,4659.000000,43191.000000
14719.000000,14675.000000,4676.000000,43215.000000
14700.000000,14685.000000,4669.000000,43191.000000
14673.000000,14705.000000,4650.000000,43195.000000
14697.000000,14657.000000,4639.000000,43203.000000
14625.000000,14671.000000,4629.000000,43192.000000
14675.000000,14651.000000,4625.000000,43190.000000
14676.000000,14659.000000,4610.000000,43155.000000
14635.000000,14663.000000,4594.000000,43143.000000
14631.000000,14611.000000,4607.000000,43155.000000
14599.000000,14631.000000,4575.000000,43149.000000
14613.000000,14607.000000,4573.000000,43112.000000
14592.000000,14604.000000,4538.000000,43149.000000
14553.000000,14617.000000,4549.000000,43129.000000
14546.000000,14631.000000,4567.000000,43119.000000
14566.000000,14579.000000,4543.000000,43136.000000
14559.000000,14588.000000,4536.000000,43125.000000
14545.000000,14615.000000,4563.000000,43074.000000
14523.000000,14605.000000,4513.000000,43112.000000
14511.000000,14544.000000,4556.000000,43109.000000
14518.000000,14543.000000,4472.000000,43102.000000
14474.000000,14564.000000,4461.000000,43096.000000
14449.000000,14539.000000,4452.000000,43066.000000
14477.000000,14486.000000,4461.000000,43076.000000
14461.000000,14503.000000,4459.000000,43048.000000
14472.000000,14535.000000,4444.000000,43065.000000
14450.000000,14484.000000,4411.000000,43062.000000
14412.000000,14497.000000,4400.000000,43066.000000
14440.000000,14484.000000,4393.000000,43053.000000
14400.000000,14458.000000,4405.000000,43067.000000
14373.000000,14468.000000,4415.000000,43046.000000
14386.000000,14479.000000,4387.000000,43031.000000
14343.000000,14432.000000,4327.000000,43048.000000
14352.000000,14463.000000,4354.000000,43016.000000
14324.000000,14442.000000,4357.000000,43008.000000
14335.000000,14413.000000,4346.000000,43011.000000
14309.000000,14441.000000,4338.000000,43008.000000
14301.000000,14418.000000,4326.000000,43023.000000
14277.000000,14385.000000,4301.000000,42931.000000
14319.000000,14399.000000,4310.000000,42971.000000
14276.000000,14388.000000,4275.000000,42987.000000
14287.000000,14408.000000,4322.000000,42993.000000
14284.000000,14387.000000,4262.000000,42987.000000
14236.000000,14375.000000,4269.000000,42988.000000
14278.000000,14367.000000,4284.000000,42957.000000
14280.000000,14404.000000,4308.000000,42981.000000
14297.000000,14386.000000,4294.000000,42960.000000
14299.000000,14391.000000,4310.000000,42967.000000
14295.000000,14355.000000,4272.000000,42941.000000
14256.000000,14403.000000,4300.000000,42936.000000
14281.000000,14371.000000,4257.000000,42955.000000
14296.000000,14359.000000,4271.000000,42949.000000
14281.000000,14368.000000,4265.000000,42939.000000
14256.000000,14331.000000,4313.000000,42956.000000
14252.000000,14371.000000,4298.000000,42951.000000
14284.000000,14361.000000,4259.000000,42949.000000
14235.000000,14359.000000,4253.000000,42976.000000
14239.000000,14364.000000,4257.000000,42951.000000
14227.000000,14351.000000,4255.000000,42928.000000
14236.000000,14355.000000,4247.000000,42903.000000
14239.000000,14365.000000,4223.000000,42897.000000
14236.000000,14299.000000,4189.000000,42923.000000
14159.000000,14287.000000,4193.000000,42933.000000
14154.000000,14303.000000,4192.000000,42948.000000
14161.000000,14315.000000,4201.000000,42920.000000
14167.000000,14300.000000,4164.000000,42909.000000
14136.000000,14300.000000,4173.000000,42879.000000
14087.000000,14268.000000,4140.000000,42863.000000
14092.000000,14239.000000,4139.000000,42861.000000
14063.000000,14248.000000,4151.000000,42848.000000
14088.000000,14243.000000,4151.000000,42884.000000
14121.000000,14297.000000,4122.000000,42863.000000
14096.000000,14271.000000,4112.000000,42879.000000
14078.000000,14299.000000,4188.000000,42877.000000
14138.000000,14311.000000,4170.000000,42905.000000
14138.000000,14295.000000,4171.000000,42886.000000
14183.000000,14317.000000,4195.000000,42923.000000
14145.000000,14340.000000,4203.000000,42911.000000
14141.000000,14320.000000,4224.000000,42917.000000
14201.000000,14333.000000,4238.000000,42915.000000
14179.000000,14337.000000,4235.000000,42884.000000
14247.000000,14363.000000,4232.000000,42953.000000
14232.000000,14348.000000,4266.000000,42983.000000
14266.000000,14371.000000,4265.000000,42961.000000
14272.000000,14351.000000,4296.000000,42989.000000
14281.000000,14433.000000,4339.000000,43011.000000
14311.000000,14337.000000,4330.000000,42999.000000
14370.000000,14481.000000,4431.000000,43049.000000
14405.000000,14495.000000,4410.000000,43087.000000
14454.000000,14511.000000,4439.000000,43071.000000
14497.000000,14567.000000,4525.000000,43065.000000
14543.000000,14575.000000,4507.000000,43095.000000
14600.000000,14631.000000,4581.000000,43127.000000
14613.000000,14623.000000,4614.000000,43117.000000
14636.000000,14651.000000,4651.000000,43159.000000
14720.000000,14724.000000,4673.000000,43191.000000
14766.000000,14691.000000,4748.000000,43233.000000
14788.000000,14792.000000,4820.000000,43291.000000
14871.000000,14804.000000,4835.000000,43268.000000
14928.000000,14821.000000,4921.000000,43317.000000
14993.000000,15159.000000,4951.000000,43355.000000
15082.000000,14913.000000,5010.000000,43381.000000
15094.000000,15236.000000,5050.000000,43424.000000
15144.000000,15013.000000,5077.000000,43437.000000
15165.000000,15275.000000,5100.000000,43472.000000
15222.000000,15048.000000,5101.000000,43461.000000
15253.000000,15049.000000,5127.000000,43507.000000
15236.000000,15119.000000,5161.000000,43495.000000
15236.000000,15355.000000,5143.000000,43447.000000
15272.000000,15086.000000,5143.000000,43476.000000
15293.000000,15107.000000,5198.000000,43495.000000
15242.000000,15075.000000,5150.000000,43517.000000
15274.000000,15341.000000,5146.000000,43455.000000
15209.000000,15083.000000,5143.000000,43476.000000
15216.000000,15077.000000,5124.000000,43483.000000
15209.000000,15076.000000,5154.000000,43444.000000
15199.000000,15081.000000,5146.000000,43467.000000
15229.000000,15340.000000,5103.000000,43456.000000
15197.000000,15073.000000,5095.000000,43466.000000
15182.000000,15053.000000,5087.000000,43431.000000
15163.000000,15064.000000,5087.000000,43465.000000
15168.000000,15047.000000,5060.000000,43423.000000
15154.000000,15027.000000,5025.000000,43457.000000
15140.000000,15033.000000,5028.000000,43427.000000
15140.000000,15251.000000,5052.000000,43411.000000
15131.000000,15027.000000,5057.000000,43428.000000
15129.000000,15004.000000,5036.000000,43428.000000
15081.000000,15007.000000,5023.000000,43431.000000
15112.000000,15255.000000,5024.000000,43399.000000
15103.000000,14997.000000,5009.000000,43403.000000
15132.000000,15249.000000,5036.000000,43415.000000
15355.000000,15231.000000,5031.000000,43383.000000
15093.000000,14948.000000,5017.000000,43371.000000
15073.000000,14945.000000,4976.000000,43395.000000
15066.000000,15177.000000,4967.000000,43377.000000
15071.000000,15179.000000,4975.000000,43376.000000
15052.000000,15191.000000,4981.000000,43381.000000
15072.000000,14948.000000,4985.000000,43351.000000
15029.000000,15192.000000,4991.000000,43381.000000
15040.000000,15156.000000,4986.000000,43341.000000
15273.000000,14941.000000,4964.000000,43339.000000
15021.000000,14925.000000,4943.000000,43363.000000
14993.000000,15175.000000,4952.000000,43335.000000
14999.000000,14891.000000,4935.000000,43327.000000
15038.000000,14919.000000,4943.000000,43391.000000
15036.000000,14879.000000,4916.000000,43301.000000
14973.000000,15169.000000,4931.000000,43375.000000
14990.000000,14863.000000,4907.000000,43304.000000
15000.000000,14867.000000,4899.000000,43319.000000
14917.000000,15107.000000,4912.000000,43336.000000
14937.000000,14870.000000,4891.000000,43307.000000
14960.000000,15171.000000,4872.000000,43324.000000
14929.000000,14828.000000,4891.000000,43343.000000
14957.000000,15120.000000,4915.000000,43291.000000
14952.000000,14868.000000,4864.000000,43332.000000
14899.000000,15104.000000,4852.000000,43315.000000
14901.000000,14831.000000,4860.000000,43303.000000
14897.000000,14769.000000,4807.000000,43273.000000
14852.000000,14819.000000,4817.000000,43253.000000
14859.000000,14809.000000,4848.000000,43285.000000
14866.000000,14767.000000,4802.000000,43309.000000
14858.000000,14805.000000,4832.000000,43254.000000
14837.000000,14788.000000,4794.000000,43279.000000
14824.000000,14796.000000,4812.000000,43287.000000
14823.000000,14836.000000,4790.000000,43268.000000
14836.000000,14793.000000,4802.000000,43258.000000
14800.000000,14755.000000,4774.000000,43277.000000
14810.000000,14788.000000,4789.000000,43295.000000
14790.000000,14763.000000,4752.000000,43245.000000
14797.000000,14760.000000,4771.000000,43223.000000
14789.000000,14743.000000,4773.000000,43241.000000
14803.000000,14763.000000,4734.000000,43248.000000
14736.000000,14756.000000,4757.000000,43205.000000
14741.000000,14727.000000,4715.000000,43238.000000
14744.000000,14736.000000,4708.000000,43199.000000
14723.000000,14705.000000,4699.000000,43200.000000
14704.000000,14705.000000,4710.000000,43223.000000
14695.000000,14672.000000,4703.000000,43201.000000
14697.000000,14695.000000,4670.000000,43205.000000
14727.000000,14701.000000,4696.000000,43249.000000
14723.000000,14697.000000,4715.000000,43209.000000
14687.000000,14717.000000,4680.000000,43173.000000
14727.000000,14697.000000,4634.000000,43188.000000
14680.000000,14701.000000,4635.000000,43207.000000
14671.000000,14681.000000,4610.000000,43178.000000
14641.000000,14655.000000,4871.000000,43169.000000
14651.000000,14631.000000,4635.000000,43199.000000
14611.000000,14641.000000,4611.000000,43169.000000
14615.000000,14651.000000,4621.000000,43146.000000
14610.000000,14628.000000,4622.000000,43169.000000
14633.000000,14659.000000,4603.000000,43169.000000
14611.000000,14623.000000,4613.000000,43130.000000
14601.000000,14629.000000,4577.000000,43153.000000
14599.000000,14605.000000,4541.000000,43125.000000
14569.000000,14604.000000,4555.000000,43104.000000
14549.000000,14591.000000,4578.000000,43108.000000
14523.000000,14566.000000,4529.000000,43093.000000
14519.000000,14565.000000,4539.000000,43099.000000
14471.000000,14541.000000,4497.000000,43144.000000
14476.000000,14557.000000,4525.000000,43124.000000
14477.000000,14548.000000,4523.000000,43099.000000
14475.000000,14552.000000,4507.000000,43079.000000
14458.000000,14563.000000,4469.000000,43088.000000
14437.000000,14534.000000,4491.000000,43072.000000
14445.000000,14530.000000,4432.000000,43056.000000
14453.000000,14479.000000,4451.000000,43057.000000
14413.000000,14493.000000,4438.000000,43055.000000
14393.000000,14491.000000,4481.000000,43069.000000
14387.000000,14547.000000,4444.000000,43064.000000
14379.000000,14483.000000,4440.000000,43084.000000
14417.000000,14465.000000,4445.000000,43055.000000
14398.000000,14458.000000,4450.000000,43057.000000
14359.000000,14440.000000,4395.000000,42997.000000
14372.000000,14454.000000,4387.000000,43014.000000
14390.000000,14442.000000,4368.000000,43039.000000
14340.000000,14477.000000,4376.000000,43044.000000
14310.000000,14440.000000,4372.000000,43007.000000
14340.000000,14438.000000,4397.000000,43030.000000
14344.000000,14443.000000,4395.000000,43005.000000
14357.000000,14464.000000,4356.000000,43016.000000
14320.000000,14455.000000,4379.000000,43008.000000
14293.000000,14424.000000,4357.000000,42994.000000
14281.000000,14431.000000,4317.000000,43009.000000
14327.000000,14419.000000,4359.000000,42985.000000
14303.000000,14415.000000,4334.000000,43008.000000
14283.000000,14431.000000,4331.000000,42989.000000
14287.000000,14394.000000,4338.000000,43021.000000
14304.000000,14417.000000,4356.000000,42995.000000
14312.000000,14397.000000,4338.000000,43008.000000
14322.000000,14423.000000,4365.000000,43011.000000
14321.000000,14388.000000,4329.000000,43016.000000
14309.000000,14443.000000,4355.000000,43004.000000
14319.000000,14437.000000,4366.000000,43011.000000
14357.000000,14433.000000,4371.000000,42999.000000
14308.000000,14395.000000,4371.000000,43003.000000
14325.000000,14430.000000,4342.000000,43048.000000
14317.000000,14431.000000,4388.000000,43014.000000
14337.000000,14489.000000,4363.000000,43035.000000
14303.000000,14408.000000,4351.000000,43036.000000
14317.000000,14442.000000,4356.000000,43004.000000
14281.000000,14398.000000,4371.000000,43001.000000
14336.000000,14416.000000,4345.000000,43005.000000
14327.000000,14422.000000,4383.000000,42992.000000
14305.000000,14445.000000,4349.000000,42981.000000
14276.000000,14400.000000,4305.000000,42952.000000
14252.000000,14412.000000,4347.000000,42976.000000
14225.000000,14388.000000,4335.000000,43008.000000
14240.000000,14365.000000,4296.000000,42972.000000
14217.000000,14364.000000,4281.000000,43037.000000
14229.000000,14380.000000,4268.000000,42973.000000
14188.000000,14350.000000,4253.000000,42935.000000
14191.000000,14371.000000,4262.000000,42953.000000
14199.000000,14364.000000,4251.000000,42940.000000
14180.000000,14332.000000,4296.000000,42947.000000
14179.000000,14339.000000,4268.000000,42993.000000
14231.000000,14341.000000,4279.000000,42956.000000
14198.000000,14352.000000,4290.000000,42929.000000
14196.000000,14359.000000,4274.000000,42973.000000
14190.000000,14377.000000,4268.000000,42971.000000
14215.000000,14346.000000,4286.000000,42973.000000
14212.000000,14381.000000,4296.000000,42967.000000
14269.000000,14409.000000,4322.000000,42983.000000
14243.000000,14403.000000,4333.000000,42997.000000
14261.000000,14433.000000,4342.000000,42992.000000
14315.000000,14451.000000,4383.000000,43012.000000
14298.000000,14395.000000,4386.000000,43044.000000
14325.000000,14449.000000,4359.000000,43009.000000
14310.000000,14432.000000,4423.000000,42999.000000
14328.000000,14461.000000,4399.000000,43036.000000
14359.000000,14467.000000,4435.000000,43069.000000
14358.000000,14439.000000,4456.000000,43049.000000
14340.000000,14483.000000,4495.000000,43060.000000
14411.000000,14543.000000,4507.000000,43079.000000
14414.000000,14522.000000,4519.000000,43096.000000
14452.000000,14595.000000,4554.000000,43109.000000
14435.000000,14554.000000,4555.000000,43098.000000
14507.000000,14600.000000,4582.000000,43117.000000
14503.000000,14607.000000,4588.000000,43140.000000
14578.000000,14635.000000,4661.000000,43137.000000
14587.000000,14679.000000,4710.000000,43196.000000
14659.000000,14727.000000,4721.000000,43238.000000
14699.000000,14760.000000,4768.000000,43245.000000
14759.000000,14781.000000,4797.000000,43259.000000
14791.000000,14781.000000,4853.000000,43315.000000
14848.000000,14841.000000,4919.000000,43329.000000
14944.000000,15133.000000,4986.000000,43389.000000
14986.000000,15179.000000,5024.000000,43408.000000
15050.000000,14993.000000,5069.000000,43468.000000
15119.000000,15047.000000,5191.000000,43435.000000
15171.000000,15074.000000,5184.000000,43443.000000
15231.000000,15119.000000,5214.000000,43519.000000
15273.000000,15108.000000,5221.000000,43519.000000
15289.000000,15144.000000,5280.000000,43554.000000
15342.000000,15173.000000,5299.000000,43573.000000
15375.000000,15191.000000,5330.000000,43845.000000
15383.000000,15207.000000,5428.000000,43588.000000
15415.000000,15249.000000,5411.000000,43615.000000
15428.000000,15251.000000,5427.000000,43616.000000
15438.000000,15243.000000,5383.000000,43621.000000
15450.000000,15235.000000,5392.000000,43614.000000
15441.000000,15276.000000,5387.000000,43606.000000
15437.000000,15257.000000,5408.000000,43605.000000
15429.000000,15245.000000,5395.000000,43629.000000
15419.000000,15223.000000,5387.000000,43595.000000
15421.000000,15244.000000,5355.000000,43603.000000
15421.000000,15213.000000,5350.000000,43820.000000
15427.000000,15219.000000,5365.000000,43592.000000
15395.000000,15197.000000,5336.000000,43591.000000
15361.000000,15188.000000,5343.000000,43615.000000
15388.000000,15205.000000,5333.000000,43588.000000
15341.000000,15133.000000,5285.000000,43577.000000
15327.000000,15187.000000,5340.000000,43570.000000
15304.000000,15187.000000,5293.000000,43526.000000
15317.000000,15168.000000,5242.000000,43557.000000
15331.000000,15115.000000,5236.000000,43567.000000
15299.000000,15172.000000,5243.000000,43533.000000
15301.000000,15155.000000,5295.000000,43529.000000
15295.000000,15148.000000,5254.000000,43561.000000
15293.000000,15128.000000,5267.000000,43536.000000
15308.000000,15353.000000,5243.000000,43569.000000
15319.000000,15131.000000,5256.000000,43504.000000
15308.000000,15083.000000,5251.000000,43525.000000
15264.000000,15105.000000,5215.000000,43529.000000
15223.000000,15115.000000,5218.000000,43507.000000
15261.000000,15128.000000,5218.000000,43538.000000
15227.000000,15119.000000,5200.000000,43499.000000
15228.000000,15093.000000,5201.000000,43523.000000
15223.000000,15339.000000,5157.000000,43484.000000
15223.000000,15353.000000,5165.000000,43492.000000
15205.000000,15025.000000,5167.000000,43499.000000
15205.000000,15315.000000,5135.000000,43467.000000
15196.000000,15292.000000,5124.000000,43452.000000
15172.000000,15300.000000,5109.000000,43469.000000
15183.000000,15289.000000,5147.000000,43487.000000
15164.000000,15347.000000,5138.000000,43484.000000
15175.000000,15319.000000,5126.000000,43444.000000
15187.000000,15295.000000,5119.000000,43457.000000
15165.000000,15289.000000,5080.000000,43459.000000
15139.000000,15244.000000,5056.000000,43419.000000
15169.000000,15263.000000,5043.000000,43439.000000
15140.000000,15021.000000,5064.000000,43448.000000
15132.000000,14984.000000,5060.000000,43459.000000
15151.000000,15263.000000,5095.000000,43429.000000
15168.000000,15002.000000,5066.000000,43440.000000
15132.000000,15219.000000,5064.000000,43413.000000
15098.000000,14991.000000,5015.000000,43420.000000
15080.000000,14969.000000,5013.000000,43419.000000
15099.000000,14979.000000,5020.000000,43415.000000
15056.000000,15209.000000,5029.000000,43404.000000
15088.000000,15197.000000,5011.000000,43417.000000
15092.000000,14995.000000,5008.000000,43425.000000
15042.000000,15199.000000,4997.000000,43384.000000
15029.000000,15208.000000,4997.000000,43379.000000
15047.000000,14897.000000,4963.000000,43383.000000
15040.000000,14911.000000,4973.000000,43404.000000
15027.000000,14923.000000,4969.000000,43355.000000
15014.000000,15165.000000,4944.000000,43360.000000
15021.000000,14925.000000,4936.000000,43377.000000
14990.000000,15152.000000,4965.000000,43384.000000
15002.000000,15197.000000,4967.000000,43359.000000
15021.000000,14921.000000,4965.000000,43344.000000
15002.000000,14849.000000,4930.000000,43341.000000
14963.000000,14864.000000,4880.000000,43344.000000
14970.000000,14888.000000,4894.000000,43341.000000
14876.000000,14859.000000,4928.000000,43340.000000
14962.000000,14841.000000,4881.000000,43331.000000
14952.000000,14845.000000,4875.000000,43311.000000
14920.000000,14833.000000,4880.000000,43341.000000
14890.000000,14820.000000,4846.000000,43315.000000
14896.000000,14828.000000,4828.000000,43311.000000
14871.000000,14789.000000,4850.000000,43305.000000
15112.000000,14813.000000,4845.000000,43334.000000
14891.000000,14808.000000,4828.000000,43293.000000
14868.000000,14779.000000,4862.000000,43295.000000
14857.000000,14795.000000,4818.000000,43272.000000
14833.000000,14792.000000,4790.000000,43244.000000
14861.000000,14799.000000,4828.000000,43292.000000
14828.000000,14775.000000,4742.000000,43264.000000
14841.000000,14772.000000,4800.000000,43295.000000
14825.000000,14791.000000,4798.000000,43237.000000
14820.000000,14739.000000,4736.000000,43257.000000
14839.000000,14751.000000,4747.000000,43271.000000
14793.000000,14711.000000,4733.000000,43256.000000
14788.000000,14725.000000,4751.000000,43245.000000
14763.000000,14715.000000,4733.000000,43250.000000
14756.000000,14739.000000,4708.000000,43236.000000
14763.000000,14741.000000,4737.000000,43206.000000
14750.000000,14744.000000,4708.000000,43244.000000
14739.000000,14717.000000,4698.000000,43192.000000
14737.000000,14707.000000,4702.000000,43198.000000
14723.000000,14653.000000,4618.000000,43203.000000
14711.000000,14675.000000,4659.000000,43181.000000
14668.000000,14671.000000,4641.000000,43222.000000
14687.000000,14687.000000,4632.000000,43182.000000
14693.000000,14671.000000,4675.000000,43206.000000
14675.000000,14664.000000,4643.000000,43190.000000
14672.000000,14640.000000,4600.000000,43179.000000
14661.000000,14637.000000,4616.000000,43163.000000
14648.000000,14631.000000,4597.000000,43164.000000
14607.000000,14635.000000,4626.000000,43128.000000
14591.000000,14615.000000,4572.000000,43129.000000
14628.000000,14592.000000,4557.000000,43138.000000
14632.000000,14607.000000,4559.000000,43137.000000
14611.000000,14589.000000,4567.000000,43138.000000
14555.000000,14583.000000,4575.000000,43135.000000
14549.000000,14595.000000,4540.000000,43146.000000
14597.000000,14586.000000,4539.000000,43114.000000
14547.000000,14595.000000,4537.000000,43135.000000
14537.000000,14578.000000,4511.000000,43115.000000
14571.000000,14529.000000,4517.000000,43091.000000
14540.000000,14555.000000,4510.000000,43126.000000
14533.000000,14557.000000,4499.000000,43077.000000
14523.000000,14578.000000,4464.000000,43101.000000
14520.000000,14574.000000,4469.000000,43117.000000
14537.000000,14548.000000,4461.000000,43103.000000
14501.000000,14532.000000,4480.000000,43119.000000
14538.000000,14521.000000,4455.000000,43094.000000
14491.000000,14542.000000,4469.000000,43060.000000
14495.000000,14558.000000,4459.000000,43069.000000
14467.000000,14513.000000,4435.000000,43087.000000
14494.000000,14528.000000,4499.000000,43085.000000
14483.000000,14515.000000,4463.000000,43056.000000
14530.000000,14495.000000,4439.000000,43081.000000
14505.000000,14503.000000,4447.000000,43081.000000
14470.000000,14525.000000,4411.000000,43101.000000
14501.000000,14514.000000,4435.000000,43078.000000
14497.000000,14493.000000,4442.000000,43070.000000
14470.000000,14483.000000,4394.000000,43078.000000
14445.000000,14475.000000,4411.000000,43075.000000
14471.000000,14457.000000,4463.000000,43083.000000
14493.000000,14491.000000,4418.000000,43076.000000
14450.000000,14472.000000,4407.000000,43072.000000
14420.000000,14475.000000,4448.000000,43031.000000
14412.000000,14435.000000,4391.000000,43063.000000
14398.000000,14471.000000,4406.000000,43021.000000
14407.000000,14425.000000,4395.000000,43011.000000
14362.000000,14426.000000,4352.000000,43047.000000
14366.000000,14413.000000,4291.000000,42999.000000
14346.000000,14435.000000,4308.000000,43010.000000
14352.000000,14389.000000,4294.000000,42980.000000
14311.000000,14358.000000,4299.000000,43007.000000
14324.000000,14376.000000,4296.000000,42993.000000
14271.000000,14332.000000,4317.000000,42985.000000
14305.000000,14348.000000,4268.000000,42971.000000
14271.000000,14355.000000,4278.000000,42992.000000
14278.000000,14340.000000,4267.000000,42973.000000
14347.000000,14373.000000,4272.000000,42940.000000
14272.000000,14356.000000,4270.000000,42959.000000
14276.000000,14375.000000,4277.000000,42959.000000
14277.000000,14363.000000,4246.000000,42988.000000
14289.000000,14362.000000,4293.000000,43034.000000
14303.000000,14364.000000,4280.000000,43013.000000
14311.000000,14400.000000,4319.000000,43000.000000
14317.000000,14400.000000,4295.000000,42973.000000
14329.000000,14401.000000,4300.000000,42984.000000
14319.000000,14367.000000,4270.000000,42992.000000
14356.000000,14391.000000,4319.000000,42995.000000
14358.000000,14407.000000,4328.000000,42985.000000
14403.000000,14424.000000,4347.000000,43045.000000
14400.000000,14387.000000,4353.000000,43007.000000
14426.000000,14442.000000,4344.000000,43016.000000
14433.000000,14459.000000,4371.000000,43019.000000
14436.000000,14447.000000,4407.000000,43071.000000
14436.000000,14487.000000,4355.000000,43074.000000
14510.000000,14512.000000,4411.000000,43083.000000
14560.000000,14560.000000,4473.000000,43131.000000
14552.000000,14554.000000,4464.000000,43118.000000
14555.000000,14570.000000,4493.000000,43115.000000
14622.000000,14570.000000,4537.000000,43143.000000
14644.000000,14627.000000,4572.000000,43139.000000
14677.000000,14635.000000,4595.000000,43192.000000
14720.000000,14635.000000,4635.000000,43168.000000
14783.000000,14711.000000,4683.000000,43178.000000
14787.000000,14679.000000,4746.000000,43271.000000
14889.000000,14771.000000,4763.000000,43244.000000
14950.000000,14811.000000,4843.000000,43320.000000
14964.000000,14824.000000,4857.000000,43331.000000
15051.000000,14879.000000,4915.000000,43359.000000
15085.000000,15155.000000,4917.000000,43405.000000
15177.000000,15205.000000,4980.000000,43395.000000
15192.000000,14971.000000,5002.000000,43447.000000
15255.000000,15292.000000,5052.000000,43456.000000
15257.000000,15021.000000,5096.000000,43481.000000
15321.000000,15311.000000,5119.000000,43479.000000
15366.000000,15086.000000,5146.000000,43524.000000
15370.000000,15109.000000,5167.000000,43491.000000
15401.000000,15128.000000,5175.000000,43500.000000
15390.000000,15133.000000,5157.000000,43520.000000
15413.000000,15129.000000,5197.000000,43532.000000
15401.000000,15123.000000,5190.000000,43520.000000
15364.000000,15347.000000,5142.000000,43500.000000
15399.000000,15096.000000,5164.000000,43552.000000
15399.000000,15123.000000,5167.000000,43516.000000
15384.000000,15124.000000,5147.000000,43501.000000
15419.000000,15105.000000,5155.000000,43535.000000
15365.000000,15115.000000,5122.000000,43511.000000
15329.000000,15351.000000,5148.000000,43520.000000
15393.000000,15129.000000,5169.000000,43476.000000
15327.000000,15144.000000,5122.000000,43485.000000
15319.000000,15068.000000,5136.000000,43493.000000
15396.000000,15355.000000,5139.000000,43481.000000
15335.000000,15068.000000,5113.000000,43443.000000
15319.000000,15079.000000,5066.000000,43491.000000
15284.000000,15339.000000,5139.000000,43480.000000
15324.000000,15078.000000,5101.000000,43517.000000
15343.000000,15045.000000,5099.000000,43517.000000
15324.000000,15331.000000,5093.000000,43520.000000
15269.000000,15069.000000,5079.000000,43475.000000
15287.000000,15027.000000,5059.000000,43476.000000
15257.000000,15285.000000,5040.000000,43483.000000
15251.000000,15039.000000,5010.000000,43451.000000
15241.000000,15027.000000,5071.000000,43416.000000
15217.000000,15249.000000,5024.000000,43445.000000
15249.000000,15284.000000,5018.000000,43408.000000
15207.000000,14943.000000,4999.000000,43445.000000
15205.000000,15016.000000,5017.000000,43435.000000
15213.000000,14977.000000,5010.000000,43447.000000
15195.000000,14969.000000,5008.000000,43397.000000
15167.000000,15219.000000,4984.000000,43423.000000
15176.000000,14944.000000,4948.000000,43394.000000
15201.000000,15235.000000,4952.000000,43410.000000
15208.000000,15220.000000,4983.000000,43421.000000
15191.000000,14971.000000,4971.000000,43420.000000
15204.000000,15223.000000,4969.000000,43424.000000
15181.000000,14960.000000,5021.000000,43416.000000
15130.000000,15227.000000,4930.000000,43417.000000
15146.000000,14950.000000,4970.000000,43408.000000
15115.000000,14931.000000,4943.000000,43389.000000
15143.000000,15185.000000,4955.000000,43405.000000
15141.000000,15167.000000,4921.000000,43361.000000
15111.000000,14897.000000,4947.000000,43411.000000
15133.000000,15205.000000,4924.000000,43396.000000
15181.000000,14948.000000,4925.000000,43402.000000
15082.000000,14927.000000,4931.000000,43399.000000
15156.000000,14913.000000,4944.000000,43351.000000
15106.000000,14921.000000,4925.000000,43371.000000
15097.000000,14872.000000,4903.000000,43321.000000
15078.000000,14900.000000,4863.000000,43371.000000
15089.000000,14889.000000,4898.000000,43352.000000
15047.000000,14915.000000,4831.000000,43333.000000
15054.000000,14889.000000,4891.000000,43349.000000
15026.000000,14855.000000,4889.000000,43373.000000
15078.000000,14859.000000,4877.000000,43355.000000
15029.000000,14871.000000,4832.000000,43329.000000
15021.000000,15124.000000,4883.000000,43307.000000
15054.000000,14852.000000,4805.000000,43356.000000
14988.000000,14843.000000,4843.000000,43341.000000
15004.000000,15124.000000,4806.000000,43291.000000
15009.000000,14799.000000,4800.000000,43315.000000
14973.000000,14808.000000,4795.000000,43351.000000
14970.000000,14856.000000,4819.000000,43319.000000
14989.000000,14836.000000,4786.000000,43301.000000
14981.000000,14788.000000,4789.000000,43316.000000
14970.000000,14836.000000,4799.000000,43287.000000
14939.000000,14787.000000,4776.000000,43296.000000
14873.000000,14787.000000,4743.000000,43300.000000
14934.000000,14764.000000,4750.000000,43319.000000
14916.000000,14800.000000,4769.000000,43291.000000
14921.000000,14772.000000,4744.000000,43299.000000
14896.000000,14801.000000,4737.000000,43308.000000
14900.000000,14772.000000,4725.000000,43251.000000
14915.000000,14755.000000,4726.000000,43246.000000
14874.000000,14773.000000,4718.000000,43287.000000
15151.000000,14753.000000,4685.000000,43264.000000
14840.000000,14755.000000,4696.000000,43195.000000
14831.000000,14723.000000,4657.000000,43233.000000
14823.000000,14703.000000,4646.000000,43210.000000
14824.000000,14716.000000,4650.000000,43259.000000
14817.000000,14715.000000,4643.000000,43214.000000
14805.000000,14679.000000,4619.000000,43224.000000
14758.000000,14715.000000,4627.000000,43248.000000
14804.000000,14705.000000,4640.000000,43202.000000
14789.000000,14703.000000,4631.000000,43210.000000
14787.000000,14717.000000,4643.000000,43202.000000
14736.000000,14689.000000,4576.000000,43179.000000
14711.000000,14671.000000,4592.000000,43176.000000
14715.000000,14656.000000,4579.000000,43191.000000
14737.000000,14636.000000,4610.000000,43165.000000
14691.000000,14647.000000,4586.000000,43152.000000
14677.000000,14611.000000,4576.000000,43157.000000
14692.000000,14635.000000,4571.000000,43152.000000
14637.000000,14591.000000,4567.000000,43172.000000
14659.000000,14635.000000,4541.000000,43187.000000
14660.000000,14591.000000,4514.000000,43124.000000
14645.000000,14608.000000,4513.000000,43167.000000
14633.000000,14579.000000,4497.000000,43108.000000
14601.000000,14507.000000,4469.000000,43139.000000
14633.000000,14575.000000,4467.000000,43146.000000
14585.000000,14519.000000,4449.000000,43101.000000
14599.000000,14522.000000,4439.000000,43091.000000
14582.000000,14544.000000,4432.000000,43077.000000
14556.000000,14557.000000,4451.000000,43097.000000
14535.000000,14505.000000,4445.000000,43060.000000
14514.000000,14504.000000,4429.000000,43108.000000
14535.000000,14511.000000,4387.000000,43084.000000
14543.000000,14481.000000,4364.000000,43065.000000
14509.000000,14453.000000,4388.000000,43063.000000
14477.000000,14476.000000,4359.000000,43019.000000
14499.000000,14471.000000,4359.000000,43041.000000
14463.000000,14506.000000,4359.000000,43038.000000
14492.000000,14433.000000,4363.000000,43032.000000
14457.000000,14428.000000,4364.000000,43049.000000
14469.000000,14447.000000,4329.000000,43033.000000
14430.000000,14443.000000,4358.000000,43045.000000
14468.000000,14440.000000,4327.000000,43059.000000
14450.000000,14460.000000,4340.000000,43017.000000
14461.000000,14469.000000,4329.000000,43052.000000
14469.000000,14475.000000,4334.000000,43039.000000
14491.000000,14437.000000,4304.000000,43020.000000
14439.000000,14442.000000,4337.000000,43022.000000
14489.000000,14463.000000,4324.000000,43023.000000
14455.000000,14420.000000,4331.000000,43049.000000
14434.000000,14410.000000,4347.000000,43037.000000
14427.000000,14400.000000,4323.000000,43034.000000
14465.000000,14449.000000,4363.000000,43019.000000
14430.000000,14451.000000,4366.000000,43051.000000
14469.000000,14465.000000,4339.000000,43029.000000
14458.000000,14408.000000,4329.000000,43036.000000
14422.000000,14427.000000,4261.000000,43014.000000
14434.000000,14419.000000,4296.000000,43026.000000
14419.000000,14382.000000,4287.000000,43003.000000
14407.000000,14407.000000,4303.000000,43018.000000
14393.000000,14425.000000,4297.000000,42997.000000
14395.000000,14421.000000,4257.000000,43004.000000
14397.000000,14364.000000,4265.000000,43019.000000
14421.000000,14413.000000,4293.000000,42973.000000
14375.000000,14383.000000,4233.000000,42983.000000
14357.000000,14383.000000,4235.000000,42965.000000
14341.000000,14363.000000,4220.000000,42963.000000
14340.000000,14336.000000,4233.000000,43018.000000
14350.000000,14333.000000,4226.000000,42960.000000
14353.000000,14367.000000,4206.000000,42949.000000
14325.000000,14375.000000,4231.000000,42977.000000
14316.000000,14297.000000,4236.000000,42981.000000
14306.000000,14339.000000,4206.000000,42952.000000
14348.000000,14368.000000,4203.000000,42964.000000
14339.000000,14332.000000,4211.000000,42951.000000
14319.000000,14341.000000,4216.000000,42923.000000
14360.000000,14351.000000,4216.000000,42961.000000
14319.000000,14343.000000,4230.000000,42951.000000
14324.000000,14392.000000,4251.000000,42991.000000
14320.000000,14373.000000,4225.000000,42987.000000
14425.000000,14380.000000,4236.000000,43032.000000
14351.000000,14372.000000,4262.000000,43018.000000
14368.000000,14380.000000,4284.000000,42991.000000
14397.000000,14427.000000,4283.000000,42969.000000
14407.000000,14352.000000,4256.000000,42995.000000
14441.000000,14411.000000,4300.000000,43014.000000
14423.000000,14390.000000,4308.000000,43036.000000
14445.000000,14437.000000,4325.000000,43021.000000
14460.000000,14440.000000,4352.000000,43035.000000
14491.000000,14481.000000,4343.000000,43056.000000
14470.000000,14471.000000,4415.000000,43047.000000
14519.000000,14528.000000,4369.000000,43085.000000
14565.000000,14488.000000,4447.000000,43101.000000
14574.000000,14525.000000,4440.000000,43078.000000
14588.000000,14545.000000,4494.000000,43112.000000
14631.000000,14575.000000,4490.000000,43140.000000
14675.000000,14603.000000,4528.000000,43162.000000
14752.000000,14603.000000,4523.000000,43154.000000
14728.000000,14637.000000,4569.000000,43176.000000
14768.000000,14603.000000,4605.000000,43172.000000
14806.000000,14689.000000,4628.000000,43215.000000
14863.000000,14759.000000,4723.000000,43268.000000
14923.000000,14799.000000,4755.000000,43272.000000
14960.000000,14805.000000,4768.000000,43305.000000
15044.000000,14860.000000,4891.000000,43359.000000
15125.000000,15141.000000,4920.000000,43368.000000
15158.000000,14948.000000,4971.000000,43403.000000
15203.000000,15259.000000,4970.000000,43411.000000
15265.000000,15022.000000,5036.000000,43463.000000
15343.000000,15072.000000,5087.000000,43519.000000
15377.000000,15101.000000,5159.000000,43528.000000
15428.000000,15136.000000,5224.000000,43551.000000
15488.000000,15172.000000,5216.000000,43554.000000
15510.000000,15147.000000,5241.000000,43598.000000
15523.000000,15228.000000,5290.000000,43831.000000
15531.000000,15211.000000,5287.000000,43606.000000
15542.000000,15220.000000,5320.000000,43583.000000
15563.000000,15231.000000,5253.000000,43583.000000
15569.000000,15227.000000,5275.000000,43589.000000
15552.000000,15232.000000,5278.000000,43583.000000
15555.000000,15228.000000,5287.000000,43594.000000
15575.000000,15228.000000,5262.000000,43621.000000
15552.000000,15235.000000,5319.000000,43631.000000
15587.000000,15244.000000,5248.000000,43581.000000
15577.000000,15227.000000,5295.000000,43617.000000
15561.000000,15219.000000,5248.000000,43618.000000
15528.000000,15216.000000,5286.000000,43577.000000
15543.000000,15204.000000,5289.000000,43567.000000
15528.000000,15205.000000,5319.000000,43588.000000
15511.000000,15187.000000,5265.000000,43574.000000
15482.000000,15187.000000,5207.000000,43569.000000
15514.000000,15157.000000,5246.000000,43837.000000
15506.000000,15179.000000,5253.000000,43569.000000
15483.000000,15191.000000,5218.000000,43583.000000
15515.000000,15133.000000,5237.000000,43551.000000
15461.000000,15171.000000,5231.000000,43554.000000
15441.000000,15159.000000,5188.000000,43543.000000
15427.000000,15139.000000,5191.000000,43500.000000
15446.000000,15139.000000,5263.000000,43532.000000
15417.000000,15123.000000,5182.000000,43533.000000
15434.000000,15156.000000,5155.000000,43550.000000
15431.000000,15111.000000,5172.000000,43811.000000
15396.000000,15135.000000,5214.000000,43528.000000
15423.000000,15143.000000,5192.000000,43532.000000
15401.000000,15123.000000,5157.000000,43527.000000
15379.000000,15111.000000,5204.000000,43532.000000
15394.000000,15127.000000,5167.000000,43528.000000
15380.000000,15109.000000,5133.000000,43499.000000
15360.000000,15076.000000,5141.000000,43501.000000
15362.000000,15088.000000,5047.000000,43491.000000
15359.000000,15351.000000,5139.000000,43488.000000
15359.000000,15115.000000,5129.000000,43487.000000
15327.000000,15048.000000,5113.000000,43480.000000
15304.000000,15095.000000,5105.000000,43495.000000
15331.000000,15316.000000,5092.000000,43501.000000
15307.000000,15287.000000,5078.000000,43495.000000
15333.000000,15304.000000,5067.000000,43455.000000
15313.000000,15044.000000,5097.000000,43496.000000
15315.000000,15043.000000,5063.000000,43477.000000
15259.000000,15025.000000,5061.000000,43467.000000
15266.000000,15313.000000,5108.000000,43451.000000
15259.000000,15009.000000,5086.000000,43477.000000
15268.000000,15006.000000,5051.000000,43467.000000
15263.000000,15017.000000,5025.000000,43467.000000
15278.000000,14987.000000,5079.000000,43461.000000
15233.000000,15240.000000,5059.000000,43428.000000
15232.000000,15251.000000,4989.000000,43404.000000
15234.000000,15019.000000,5008.000000,43432.000000
15172.000000,14996.000000,5007.000000,43439.000000
15197.000000,14984.000000,5003.000000,43397.000000
15185.000000,14975.000000,4950.000000,43408.000000
15195.000000,15244.000000,4993.000000,43428.000000
15161.000000,15199.000000,4996.000000,43420.000000
15177.000000,15224.000000,4988.000000,43419.000000
15189.000000,14951.000000,4991.000000,43411.000000
15191.000000,15175.000000,4967.000000,43387.000000
15109.000000,15219.000000,4952.000000,43363.000000
15128.000000,15171.000000,4938.000000,43373.000000
15120.000000,14932.000000,4938.000000,43364.000000
15108.000000,14885.000000,4957.000000,43381.000000
15119.000000,14943.000000,4922.000000,43404.000000
15108.000000,14893.000000,4946.000000,43393.000000
15084.000000,14889.000000,4927.000000,43345.000000
15085.000000,14869.000000,4893.000000,43403.000000
15056.000000,14905.000000,4896.000000,43383.000000
15050.000000,14864.000000,4890.000000,43365.000000
15029.000000,14871.000000,4891.000000,43363.000000
15034.000000,14835.000000,4862.000000,43351.000000
15020.000000,14873.000000,4855.000000,43332.000000
15060.000000,15115.000000,4833.000000,43333.000000
15003.000000,14887.000000,4839.000000,43347.000000
15010.000000,14855.000000,4836.000000,43348.000000
14970.000000,14820.000000,4836.000000,43348.000000
14981.000000,14841.000000,4825.000000,43315.000000
14999.000000,14789.000000,4796.000000,43307.000000
14951.000000,14839.000000,4830.000000,43289.000000
14930.000000,14815.000000,4810.000000,43236.000000
14931.000000,14788.000000,4779.000000,43264.000000
14900.000000,14792.000000,4771.000000,43287.000000
14924.000000,14735.000000,4753.000000,43276.000000
14927.000000,14720.000000,4743.000000,43248.000000
14890.000000,14759.000000,4736.000000,43258.000000
14887.000000,14744.000000,4751.000000,43226.000000
14859.000000,14820.000000,4725.000000,43248.000000
14847.000000,14755.000000,4720.000000,43234.000000
14855.000000,14719.000000,4694.000000,43238.000000
14843.000000,14727.000000,4690.000000,43259.000000
14855.000000,14725.000000,4713.000000,43233.000000
14826.000000,14721.000000,4705.000000,43246.000000
14795.000000,14685.000000,4671.000000,43194.000000
14787.000000,14703.000000,4643.000000,43210.000000
14801.000000,14660.000000,4633.000000,43219.000000
14771.000000,14649.000000,4641.000000,43190.000000
14765.000000,14655.000000,4611.000000,43172.000000
14739.000000,14659.000000,4584.000000,43183.000000
14708.000000,14655.000000,4610.000000,43177.000000
14716.000000,14651.000000,4607.000000,43188.000000
14703.000000,14644.000000,4565.000000,43184.000000
14731.000000,14645.000000,4590.000000,43175.000000
14695.000000,14629.000000,4581.000000,43180.000000
14679.000000,14619.000000,4584.000000,43155.000000
14658.000000,14585.000000,4569.000000,43150.000000
14664.000000,14593.000000,4546.000000,43160.000000
14688.000000,14585.000000,4536.000000,43121.000000
14673.000000,14587.000000,4532.000000,43123.000000
14651.000000,14562.000000,4573.000000,43119.000000
14620.000000,14576.000000,4522.000000,43154.000000
14639.000000,14601.000000,4540.000000,43122.000000
14618.000000,14581.000000,4508.000000,43145.000000
14615.000000,14575.000000,4502.000000,43148.000000
14597.000000,14581.000000,4511.000000,43116.000000
14613.000000,14553.000000,4475.000000,43086.000000
14590.000000,14559.000000,4514.000000,43124.000000
14639.000000,14556.000000,4479.000000,43132.000000
14586.000000,14571.000000,4496.000000,43147.000000
14596.000000,14539.000000,4479.000000,43107.000000
14592.000000,14560.000000,4497.000000,43124.000000
14580.000000,14556.000000,4468.000000,43119.000000
14603.000000,14560.000000,4475.000000,43092.000000
14580.000000,14511.000000,4467.000000,43095.000000
14605.000000,14567.000000,4501.000000,43108.000000
14606.000000,14547.000000,4503.000000,43144.000000
14581.000000,14564.000000,4487.000000,43125.000000
14583.000000,14551.000000,4506.000000,43133.000000
14566.000000,14540.000000,4479.000000,43134.000000
14612.000000,14560.000000,4503.000000,43101.000000
14607.000000,14575.000000,4461.000000,43119.000000
14619.000000,14517.000000,4499.000000,43058.000000
14615.000000,14583.000000,4477.000000,43121.000000
14590.000000,14553.000000,4482.000000,43109.000000
14561.000000,14529.000000,4477.000000,43131.000000
14573.000000,14559.000000,4488.000000,43094.000000
14578.000000,14521.000000,4413.000000,43111.000000
14576.000000,14499.000000,4417.000000,43072.000000
14560.000000,14523.000000,4466.000000,43120.000000
14552.000000,14531.000000,4470.000000,43081.000000
14575.000000,14545.000000,4457.000000,43077.000000
14560.000000,14483.000000,4420.000000,43072.000000
14508.000000,14530.000000,4393.000000,43032.000000
14519.000000,14496.000000,4415.000000,43063.000000
14498.000000,14487.000000,4409.000000,43059.000000
14504.000000,14463.000000,4406.000000,43067.000000
14498.000000,14465.000000,4381.000000,43061.000000
14472.000000,14463.000000,4405.000000,43085.000000
14450.000000,14507.000000,4403.000000,43060.000000
14479.000000,14436.000000,4361.000000,43090.000000
14471.000000,14447.000000,4355.000000,43064.000000
14429.000000,14420.000000,4396.000000,43081.000000
14434.000000,14457.000000,4405.000000,43053.000000
14541.000000,14495.000000,4405.000000,43055.000000
14474.000000,14476.000000,4450.000000,43118.000000
14486.000000,14520.000000,4435.000000,43107.000000
14458.000000,14477.000000,4408.000000,43080.000000
14502.000000,14475.000000,4433.000000,43059.000000
14520.000000,14513.000000,4439.000000,43097.000000
14546.000000,14490.000000,4411.000000,43063.000000
14547.000000,14497.000000,4428.000000,43087.000000
14555.000000,14500.000000,4481.000000,43115.000000
14536.000000,14536.000000,4549.000000,43107.000000
14572.000000,14547.000000,4499.000000,43126.000000
14573.000000,14563.000000,4531.000000,43124.000000
14604.000000,14559.000000,4488.000000,43161.000000
14613.000000,14535.000000,4527.000000,43119.000000
14640.000000,14624.000000,4544.000000,43195.000000
14692.000000,14631.000000,4602.000000,43187.000000
14708.000000,14623.000000,4623.000000,43202.000000
14741.000000,14659.000000,4662.000000,43170.000000
14794.000000,14713.000000,4669.000000,43225.000000
14774.000000,14717.000000,4683.000000,43215.000000
14845.000000,14659.000000,4697.000000,43256.000000
14885.000000,14723.000000,4769.000000,43273.000000
14891.000000,14749.000000,4806.000000,43273.000000
14962.000000,14812.000000,4827.000000,43349.000000
14994.000000,14823.000000,4884.000000,43353.000000
15065.000000,14882.000000,4935.000000,43397.000000
15077.000000,15160.000000,4973.000000,43387.000000
15183.000000,15227.000000,5017.000000,43443.000000
15221.000000,15283.000000,5074.000000,43471.000000
15291.000000,15296.000000,5149.000000,43493.000000
15324.000000,15341.000000,5185.000000,43551.000000
15355.000000,15149.000000,5243.000000,43573.000000
15442.000000,15181.000000,5311.000000,43565.000000
15491.000000,15209.000000,5312.000000,43618.000000
15520.000000,15239.000000,5355.000000,43614.000000
15587.000000,15228.000000,5384.000000,43633.000000
15601.000000,15265.000000,5411.000000,43648.000000
15636.000000,15313.000000,5507.000000,43669.000000
15636.000000,15285.000000,5454.000000,43700.000000
15688.000000,15343.000000,5471.000000,43723.000000
15705.000000,15344.000000,5517.000000,43717.000000
15743.000000,15327.000000,5471.000000,43716.000000
15701.000000,15343.000000,5466.000000,43709.000000
15719.000000,15327.000000,5485.000000,43697.000000
15705.000000,15342.000000,5461.000000,43681.000000
15688.000000,15359.000000,5491.000000,43682.000000
15625.000000,15352.000000,5458.000000,43703.000000
15666.000000,15317.000000,5444.000000,43707.000000
15668.000000,15373.000000,5453.000000,43692.000000
15684.000000,15289.000000,5469.000000,43712.000000
15672.000000,15364.000000,5463.000000,43644.000000
15632.000000,15308.000000,5426.000000,43941.000000
15629.000000,15311.000000,5419.000000,43683.000000
15612.000000,15297.000000,5423.000000,43671.000000
15602.000000,15274.000000,5439.000000,43660.000000
15627.000000,15303.000000,5403.000000,43686.000000
15582.000000,15263.000000,5414.000000,43699.000000
15592.000000,15263.000000,5431.000000,43929.000000
15608.000000,15305.000000,5406.000000,43649.000000
15591.000000,15303.000000,5415.000000,43663.000000
15590.000000,15249.000000,5427.000000,43620.000000
15586.000000,15197.000000,5371.000000,43603.000000
15546.000000,15256.000000,5416.000000,43610.000000
15569.000000,15304.000000,5384.000000,43653.000000
15530.000000,15269.000000,5400.000000,43669.000000
15533.000000,15259.000000,5415.000000,43654.000000
15565.000000,15231.000000,5384.000000,43655.000000
15552.000000,15253.000000,5383.000000,43659.000000
15554.000000,15233.000000,5366.000000,43660.000000
15534.000000,15233.000000,5365.000000,43634.000000
15534.000000,15237.000000,5363.000000,43608.000000
15538.000000,15209.000000,5343.000000,43666.000000
15490.000000,15213.000000,5339.000000,43622.000000
15541.000000,15215.000000,5375.000000,43602.000000
15532.000000,15205.000000,5361.000000,43613.000000
15487.000000,15239.000000,5333.000000,43639.000000
15523.000000,15179.000000,5375.000000,43586.000000
15550.000000,15199.000000,5358.000000,43591.000000
15543.000000,15223.000000,5307.000000,43615.000000
15515.000000,15209.000000,5319.000000,43654.000000
15509.000000,15219.000000,5363.000000,43623.000000
15503.000000,15201.000000,5346.000000,43607.000000
15443.000000,15187.000000,5281.000000,43598.000000
15433.000000,15191.000000,5298.000000,43595.000000
15438.000000,15165.000000,5276.000000,43598.000000
15437.000000,15159.000000,5273.000000,43821.000000
15435.000000,15171.000000,5292.000000,43606.000000
15418.000000,15143.000000,5303.000000,43591.000000
15402.000000,15193.000000,5263.000000,43572.000000
15427.000000,15155.000000,5268.000000,43572.000000
15382.000000,15175.000000,5246.000000,43558.000000
15414.000000,15177.000000,5272.000000,43580.000000
15368.000000,15116.000000,5244.000000,43592.000000
15393.000000,15148.000000,5240.000000,43540.000000
15384.000000,15145.000000,5230.000000,43537.000000
15384.000000,15136.000000,5219.000000,43540.000000
15377.000000,15119.000000,5225.000000,43556.000000
15375.000000,15108.000000,5212.000000,43534.000000
15315.000000,15098.000000,5204.000000,43533.000000
15340.000000,15344.000000,5210.000000,43521.000000
15316.000000,15135.000000,5201.000000,43549.000000
15315.000000,15086.000000,5168.000000,43495.000000
15302.000000,15108.000000,5178.000000,43501.000000
15273.000000,15054.000000,5152.000000,43547.000000
15284.000000,15060.000000,5137.000000,43468.000000
15279.000000,15323.000000,5121.000000,43515.000000
15271.000000,15023.000000,5148.000000,43469.000000
15283.000000,15299.000000,5141.000000,43503.000000
15284.000000,15315.000000,5120.000000,43473.000000
15245.000000,15280.000000,5093.000000,43463.000000
15238.000000,15031.000000,5089.000000,43473.000000
15239.000000,15289.000000,5099.000000,43473.000000
15203.000000,15027.000000,5066.000000,43479.000000
15209.000000,14978.000000,5063.000000,43435.000000
15223.000000,15011.000000,5075.000000,43483.000000
15232.000000,15247.000000,5097.000000,43463.000000
15211.000000,14979.000000,5039.000000,43425.000000
15170.000000,15259.000000,4988.000000,43435.000000
15189.000000,15245.000000,4992.000000,43439.000000
15167.000000,15209.000000,4991.000000,43433.000000
15169.000000,15188.000000,5007.000000,43443.000000
15152.000000,14957.000000,5033.000000,43448.000000
15183.000000,14949.000000,5002.000000,43425.000000
15123.000000,14931.000000,4999.000000,43435.000000
15127.000000,14927.000000,4972.000000,43375.000000
15123.000000,14921.000000,4956.000000,43375.000000
15115.000000,14923.000000,4967.000000,43400.000000
15087.000000,14902.000000,4962.000000,43407.000000
15104.000000,15155.000000,4978.000000,43385.000000
15088.000000,14893.000000,4918.000000,43377.000000
15064.000000,15115.000000,4940.000000,43369.000000
15345.000000,15140.000000,4924.000000,43357.000000
15040.000000,14864.000000,4875.000000,43369.000000
15040.000000,14858.000000,4879.000000,43341.000000
15039.000000,15123.000000,4859.000000,43348.000000
15022.000000,14845.000000,4854.000000,43311.000000
14995.000000,14793.000000,4856.000000,43367.000000
15015.000000,14833.000000,4830.000000,43321.000000
14979.000000,14808.000000,4850.000000,43347.000000
14970.000000,14819.000000,4834.000000,43333.000000
14971.000000,14779.000000,4812.000000,43297.000000
14974.000000,14784.000000,4832.000000,43295.000000
14967.000000,14815.000000,4807.000000,43303.000000
14934.000000,14765.000000,4777.000000,43301.000000
14908.000000,14755.000000,4801.000000,43283.000000
14947.000000,14764.000000,4800.000000,43321.000000
14958.000000,14763.000000,4819.000000,43275.000000
14885.000000,14819.000000,4765.000000,43297.000000
14894.000000,14751.000000,4767.000000,43275.000000
14898.000000,14771.000000,4743.000000,43246.000000
14907.000000,14747.000000,4749.000000,43281.000000
14893.000000,14731.000000,4773.000000,43260.000000
14886.000000,14719.000000,4718.000000,43281.000000
14924.000000,14751.000000,4761.000000,43265.000000
14872.000000,14769.000000,4740.000000,43267.000000
14866.000000,14736.000000,4757.000000,43284.000000
14888.000000,14745.000000,4742.000000,43299.000000
14866.000000,14711.000000,4721.000000,43239.000000
14872.000000,14711.000000,4726.000000,43246.000000
14870.000000,14712.000000,4685.000000,43260.000000
14911.000000,14711.000000,4699.000000,43276.000000
14870.000000,14739.000000,4712.000000,43248.000000
15155.000000,14711.000000,4704.000000,43315.000000
14873.000000,14736.000000,4723.000000,43252.000000
14893.000000,14752.000000,4715.000000,43221.000000
14908.000000,14751.000000,4692.000000,43287.000000
14898.000000,14755.000000,4711.000000,43239.000000
14884.000000,14729.000000,4736.000000,43242.000000
14847.000000,14701.000000,4704.000000,43224.000000
14939.000000,14704.000000,4712.000000,43243.000000
14858.000000,14731.000000,4691.000000,43221.000000
14823.000000,14708.000000,4671.000000,43225.000000
14886.000000,14701.000000,4686.000000,43241.000000
14816.000000,14711.000000,4638.000000,43248.000000
14817.000000,14681.000000,4688.000000,43231.000000
14821.000000,14668.000000,4682.000000,43242.000000
14811.000000,14688.000000,4626.000000,43214.000000
14805.000000,14684.000000,4653.000000,43199.000000
14788.000000,14664.000000,4636.000000,43213.000000
14783.000000,14647.000000,4613.000000,43204.000000
14771.000000,14651.000000,4604.000000,43172.000000
14753.000000,14661.000000,4607.000000,43191.000000
14761.000000,14619.000000,4532.000000,43177.000000
14731.000000,14616.000000,4555.000000,43152.000000
14732.000000,14632.000000,4554.000000,43111.000000
14708.000000,14609.000000,4566.000000,43170.000000
14695.000000,14616.000000,4588.000000,43168.000000
14719.000000,14596.000000,4571.000000,43154.000000
14733.000000,14623.000000,4560.000000,43190.000000
14701.000000,14619.000000,4560.000000,43150.000000
14736.000000,14647.000000,4583.000000,43192.000000
14740.000000,14627.000000,4582.000000,43194.000000
14728.000000,14660.000000,4580.000000,43212.000000
14790.000000,14644.000000,4616.000000,43204.000000
14775.000000,14587.000000,4583.000000,43193.000000
14792.000000,14635.000000,4579.000000,43187.000000
14793.000000,14644.000000,4607.000000,43205.000000
14775.000000,14648.000000,4591.000000,43204.000000
14801.000000,14669.000000,4655.000000,43201.000000
14781.000000,14689.000000,4655.000000,43204.000000
14818.000000,14704.000000,4643.000000,43236.000000
14841.000000,14685.000000,4687.000000,43265.000000
14876.000000,14711.000000,4678.000000,43230.000000
14863.000000,14716.000000,4742.000000,43244.000000
14913.000000,14780.000000,4721.000000,43264.000000
14927.000000,14736.000000,4713.000000,43220.000000
14932.000000,14776.000000,4790.000000,43271.000000
14985.000000,14796.000000,4800.000000,43287.000000
15011.000000,14823.000000,4857.000000,43321.000000
15046.000000,14815.000000,4871.000000,43343.000000
15116.000000,14886.000000,4920.000000,43372.000000
15154.000000,14903.000000,4960.000000,43393.000000
15215.000000,14967.000000,5023.000000,43459.000000
15283.000000,15272.000000,5017.000000,43459.000000
15335.000000,15033.000000,5091.000000,43487.000000
15353.000000,15307.000000,5130.000000,43483.000000
15390.000000,15112.000000,5133.000000,43559.000000
15484.000000,15129.000000,5205.000000,43583.000000
15505.000000,15211.000000,5326.000000,43580.000000
15619.000000,15255.000000,5354.000000,43650.000000
15653.000000,15293.000000,5400.000000,43665.000000
15679.000000,15311.000000,5478.000000,43698.000000
15805.000000,15376.000000,5510.000000,43769.000000
15826.000000,15389.000000,5527.000000,43751.000000
15899.000000,15403.000000,5563.000000,43753.000000
15934.000000,15452.000000,5616.000000,43795.000000
15996.000000,15477.000000,5652.000000,43823.000000
16303.000000,15509.000000,5667.000000,43839.000000
16000.000000,15515.000000,5700.000000,43836.000000
16033.000000,15517.000000,5678.000000,43808.000000
16035.000000,15551.000000,5688.000000,43857.000000
16053.000000,15536.000000,5734.000000,43839.000000
16090.000000,15548.000000,5717.000000,43861.000000
16015.000000,15552.000000,5707.000000,43877.000000
16008.000000,15537.000000,5702.000000,43861.000000
16046.000000,15563.000000,5732.000000,43891.000000
16020.000000,15573.000000,5730.000000,43871.000000
16004.000000,15508.000000,5714.000000,43852.000000
16008.000000,15537.000000,5681.000000,43833.000000
15957.000000,15547.000000,5696.000000,43859.000000
15986.000000,15539.000000,5694.000000,43828.000000
16004.000000,15522.000000,5679.000000,43839.000000
15973.000000,15491.000000,5662.000000,43796.000000
15999.000000,15506.000000,5674.000000,43863.000000
15965.000000,15497.000000,5963.000000,43825.000000
15971.000000,15511.000000,5707.000000,43813.000000
15939.000000,15504.000000,5731.000000,43829.000000
15941.000000,15493.000000,5662.000000,43824.000000
15956.000000,15427.000000,5632.000000,43792.000000
15932.000000,15465.000000,5646.000000,43811.000000
15922.000000,15468.000000,5665.000000,43819.000000
15905.000000,15466.000000,5650.000000,43803.000000
15924.000000,15483.000000,5619.000000,43779.000000
15883.000000,15461.000000,5613.000000,43819.000000
15906.000000,15467.000000,5633.000000,43777.000000
15906.000000,15444.000000,5624.000000,43813.000000
15890.000000,15444.000000,5603.000000,43791.000000
15843.000000,15444.000000,5625.000000,43777.000000
15857.000000,15445.000000,5571.000000,43788.000000
15833.000000,15403.000000,5576.000000,43756.000000
15869.000000,15413.000000,5589.000000,43783.000000
15864.000000,15433.000000,5582.000000,43764.000000
15841.000000,15435.000000,5525.000000,43776.000000
15816.000000,15428.000000,5597.000000,43763.000000
15795.000000,15414.000000,5548.000000,43789.000000
15837.000000,15407.000000,5559.000000,43781.000000
15810.000000,15415.000000,5542.000000,43715.000000
15811.000000,15386.000000,5536.000000,43728.000000
15784.000000,15375.000000,5525.000000,43748.000000
15795.000000,15356.000000,5494.000000,43764.000000
15761.000000,15351.000000,5499.000000,43740.000000
15801.000000,15417.000000,5522.000000,43751.000000
15801.000000,15411.000000,5519.000000,43751.000000
15789.000000,15378.000000,5525.000000,43742.000000
15757.000000,15380.000000,5497.000000,43705.000000
15731.000000,15355.000000,5463.000000,43719.000000
15743.000000,15323.000000,5452.000000,43687.000000
15727.000000,15305.000000,5491.000000,43700.000000
15728.000000,15319.000000,5458.000000,43668.000000
15704.000000,15315.000000,5475.000000,43713.000000
15705.000000,15336.000000,5432.000000,43726.000000
15682.000000,15292.000000,5448.000000,43701.000000
15707.000000,15309.000000,5417.000000,43677.000000
15680.000000,15324.000000,5418.000000,43667.000000
15667.000000,15280.000000,5382.000000,43667.000000
15656.000000,15240.000000,5419.000000,43650.000000
15646.000000,15241.000000,5348.000000,43663.000000
15598.000000,15273.000000,5368.000000,43640.000000
15584.000000,15275.000000,5371.000000,43637.000000
15631.000000,15271.000000,5346.000000,43655.000000
15602.000000,15267.000000,5373.000000,43632.000000
15667.000000,15252.000000,5344.000000,43639.000000
15556.000000,15235.000000,5348.000000,43610.000000
15556.000000,15188.000000,5279.000000,43628.000000
15560.000000,15195.000000,5311.000000,43614.000000
15577.000000,15247.000000,5314.000000,43611.000000
15536.000000,15215.000000,5301.000000,43613.000000
15561.000000,15175.000000,5291.000000,43616.000000
15524.000000,15191.000000,5273.000000,43591.000000
15524.000000,15151.000000,5290.000000,43597.000000
15504.000000,15159.000000,5236.000000,43590.000000
15493.000000,15143.000000,5255.000000,43581.000000
15505.000000,15143.000000,5164.000000,43537.000000
15451.000000,15143.000000,5184.000000,43540.000000
15450.000000,15132.000000,5226.000000,43574.000000
15456.000000,15135.000000,5197.000000,43550.000000
15448.000000,15128.000000,5157.000000,43531.000000
15441.000000,15141.000000,5123.000000,43512.000000
15408.000000,15359.000000,5145.000000,43563.000000
15433.000000,15073.000000,5132.000000,43505.000000
15379.000000,15313.000000,5153.000000,43504.000000
15395.000000,15345.000000,5116.000000,43516.000000
15425.000000,15054.000000,5115.000000,43464.000000
15307.000000,15069.000000,5106.000000,43487.000000
15347.000000,15074.000000,5088.000000,43512.000000
15370.000000,15043.000000,5082.000000,43449.000000
15348.000000,15301.000000,5035.000000,43465.000000
15325.000000,15263.000000,5010.000000,43457.000000
15279.000000,15017.000000,5008.000000,43416.000000
15248.000000,15005.000000,5021.000000,43464.000000
15278.000000,15249.000000,5011.000000,43421.000000
15250.000000,15241.000000,5011.000000,43412.000000
15272.000000,14945.000000,4971.000000,43411.000000
15215.000000,14947.000000,4947.000000,43403.000000
15241.000000,14955.000000,4950.000000,43409.000000
15191.000000,14948.000000,4915.000000,43411.000000
15199.000000,15247.000000,4961.000000,43387.000000
15215.000000,14947.000000,4908.000000,43427.000000
15183.000000,14891.000000,4927.000000,43399.000000
15181.000000,15148.000000,4895.000000,43379.000000
15141.000000,14861.000000,4879.000000,43368.000000
15160.000000,15159.000000,4873.000000,43363.000000
15132.000000,14878.000000,4829.000000,43359.000000
15181.000000,14857.000000,4833.000000,43309.000000
15109.000000,14845.000000,4827.000000,43351.000000
15135.000000,14823.000000,4803.000000,43336.000000
15108.000000,15104.000000,4819.000000,43335.000000
15100.000000,14813.000000,4836.000000,43323.000000
15073.000000,14847.000000,4828.000000,43351.000000
15083.000000,14811.000000,4811.000000,43355.000000
15098.000000,14847.000000,4794.000000,43335.000000
15082.000000,14825.000000,4809.000000,43311.000000
15057.000000,14837.000000,4790.000000,43315.000000
15035.000000,14780.000000,4767.000000,43308.000000
14971.000000,14795.000000,4734.000000,43313.000000
15016.000000,14776.000000,4772.000000,43273.000000
14975.000000,14791.000000,4758.000000,43288.000000
14992.000000,14747.000000,4774.000000,43271.000000
14970.000000,14727.000000,4753.000000,43292.000000
15008.000000,14779.000000,4740.000000,43295.000000
14991.000000,14797.000000,4747.000000,43282.000000
14954.000000,14768.000000,4757.000000,43293.000000
14978.000000,14779.000000,4720.000000,43284.000000
14994.000000,14727.000000,4722.000000,43238.000000
14993.000000,14759.000000,4733.000000,43279.000000
14967.000000,14775.000000,4747.000000,43275.000000
14979.000000,14763.000000,4699.000000,43297.000000
14997.000000,14771.000000,4739.000000,43263.000000
14998.000000,14727.000000,4743.000000,43316.000000
14999.000000,14751.000000,4712.000000,43253.000000
14998.000000,14751.000000,4713.000000,43279.000000
14981.000000,14732.000000,4692.000000,43254.000000
15002.000000,14763.000000,4702.000000,43264.000000
15007.000000,14731.000000,4724.000000,43257.000000
14955.000000,14739.000000,4707.000000,43264.000000
14985.000000,14735.000000,4697.000000,43265.000000
14917.000000,14761.000000,4693.000000,43254.000000
14905.000000,14755.000000,4667.000000,43260.000000
14942.000000,14725.000000,4663.000000,43248.000000
14883.000000,14655.000000,4642.000000,43205.000000
14889.000000,14671.000000,4584.000000,43227.000000
14912.000000,14660.000000,4626.000000,43225.000000
14865.000000,14676.000000,4623.000000,43238.000000
14825.000000,14627.000000,4585.000000,43171.000000
14856.000000,14661.000000,4611.000000,43195.000000
14851.000000,14656.000000,4605.000000,43219.000000
14807.000000,14647.000000,4591.000000,43229.000000
14837.000000,14647.000000,4583.000000,43171.000000
14836.000000,14660.000000,4585.000000,43181.000000
14822.000000,14671.000000,4589.000000,43171.000000
14795.000000,14611.000000,4564.000000,43136.000000
14814.000000,14615.000000,4543.000000,43162.000000
14781.000000,14600.000000,4549.000000,43181.000000
14819.000000,14639.000000,4576.000000,43171.000000
14756.000000,14623.000000,4610.000000,43199.000000
14843.000000,14639.000000,4593.000000,43163.000000
14809.000000,14665.000000,4568.000000,43194.000000
14792.000000,14639.000000,4564.000000,43197.000000
14806.000000,14623.000000,4575.000000,43179.000000
14807.000000,14656.000000,4571.000000,43180.000000
14819.000000,14639.000000,4586.000000,43199.000000
14848.000000,14675.000000,4614.000000,43236.000000
14827.000000,14651.000000,4611.000000,43210.000000
14868.000000,14652.000000,4620.000000,43233.000000
14899.000000,14715.000000,4656.000000,43199.000000
14922.000000,14688.000000,4654.000000,43224.000000
14904.000000,14692.000000,4668.000000,43248.000000
14915.000000,14735.000000,4687.000000,43218.000000
14950.000000,14708.000000,4688.000000,43251.000000
14938.000000,14735.000000,4733.000000,43260.000000
14975.000000,14751.000000,4710.000000,43275.000000
15010.000000,14765.000000,4732.000000,43254.000000
15020.000000,14837.000000,4761.000000,43304.000000
15089.000000,14803.000000,4819.000000,43364.000000
15135.000000,15119.000000,4851.000000,43357.000000
15139.000000,14884.000000,4889.000000,43353.000000
15168.000000,15171.000000,4923.000000,43416.000000
15251.000000,15172.000000,4939.000000,43419.000000
15267.000000,15203.000000,4957.000000,43420.000000
15320.000000,14956.000000,5020.000000,43436.000000
15409.000000,15011.000000,5075.000000,43484.000000
15416.000000,15271.000000,5090.000000,43471.000000
15468.000000,15349.000000,5162.000000,43520.000000
15541.000000,15139.000000,5194.000000,43552.000000
15568.000000,15184.000000,5242.000000,43616.000000
15631.000000,15233.000000,5332.000000,43652.000000
15686.000000,15279.000000,5374.000000,43634.000000
15789.000000,15351.000000,5468.000000,43690.000000
15827.000000,15347.000000,5476.000000,43714.000000
15871.000000,15379.000000,5499.000000,43742.000000
15930.000000,15408.000000,5538.000000,43771.000000
15952.000000,15448.000000,5592.000000,43777.000000
15940.000000,15460.000000,5553.000000,43791.000000
15979.000000,15447.000000,5596.000000,43807.000000
16012.000000,15468.000000,5613.000000,43792.000000
16004.000000,15444.000000,5638.000000,43781.000000
16021.000000,15471.000000,5599.000000,43786.000000
16037.000000,15490.000000,5614.000000,44028.000000
16009.000000,15488.000000,5615.000000,43819.000000
15999.000000,15499.000000,5637.000000,43808.000000
16013.000000,15488.000000,5590.000000,43832.000000
15997.000000,15465.000000,5618.000000,43804.000000
15974.000000,15456.000000,5605.000000,43772.000000
16000.000000,15479.000000,5595.000000,43766.000000
15971.000000,15465.000000,5557.000000,43787.000000
15936.000000,15476.000000,5567.000000,43756.000000
15950.000000,15463.000000,5531.000000,44013.000000
15927.000000,15455.000000,5549.000000,43755.000000
15914.000000,15399.000000,5547.000000,43752.000000
15943.000000,15433.000000,5571.000000,43759.000000
15895.000000,15417.000000,5585.000000,43759.000000
15910.000000,15414.000000,5547.000000,43739.000000
15925.000000,15423.000000,5517.000000,43757.000000
15940.000000,15408.000000,5499.000000,43751.000000
15876.000000,15388.000000,5507.000000,43740.000000
15885.000000,15407.000000,5476.000000,43726.000000
15876.000000,15369.000000,5485.000000,43722.000000
15863.000000,15386.000000,5496.000000,43729.000000
15861.000000,15359.000000,5500.000000,43763.000000
15827.000000,15372.000000,5500.000000,43758.000000
15887.000000,15395.000000,5507.000000,43736.000000
15860.000000,15388.000000,5488.000000,43819.000000
15854.000000,15410.000000,5468.000000,43728.000000
15828.000000,15370.000000,5475.000000,43772.000000
15835.000000,15359.000000,5488.000000,43700.000000
15847.000000,15339.000000,5427.000000,43989.000000
15809.000000,15403.000000,5422.000000,43690.000000
15825.000000,15352.000000,5441.000000,43670.000000
15812.000000,15343.000000,5431.000000,43692.000000
15789.000000,15283.000000,5447.000000,43704.000000
15817.000000,15315.000000,5405.000000,43682.000000
15807.000000,15308.000000,5421.000000,43670.000000
15745.000000,15353.000000,5443.000000,43669.000000
15753.000000,15336.000000,5416.000000,43691.000000
15756.000000,15315.000000,5410.000000,43702.000000
15776.000000,15295.000000,5416.000000,43684.000000
15752.000000,15327.000000,5410.000000,43651.000000
15729.000000,15297.000000,5365.000000,43681.000000
15666.000000,15305.000000,5339.000000,43651.000000
15717.000000,15295.000000,5334.000000,43635.000000
15695.000000,15284.000000,5326.000000,43687.000000
15700.000000,15251.000000,5311.000000,43644.000000
15679.000000,15252.000000,5314.000000,43641.000000
15692.000000,15276.000000,5340.000000,43619.000000
15679.000000,15267.000000,5378.000000,43656.000000
15696.000000,15211.000000,5303.000000,43665.000000
15644.000000,15215.000000,5320.000000,43626.000000
15663.000000,15263.000000,5322.000000,43631.000000
15632.000000,15203.000000,5305.000000,43601.000000
15603.000000,15131.000000,5274.000000,43595.000000
15612.000000,15211.000000,5279.000000,43596.000000
15584.000000,15237.000000,5281.000000,43592.000000
15608.000000,15191.000000,5276.000000,43581.000000
15583.000000,15159.000000,5233.000000,43586.000000
15603.000000,15173.000000,5254.000000,43843.000000
15602.000000,15204.000000,5257.000000,43607.000000
15547.000000,15169.000000,5259.000000,43585.000000
15583.000000,15185.000000,5216.000000,43580.000000
15555.000000,15131.000000,5204.000000,43572.000000
15541.000000,15164.000000,5213.000000,43568.000000
15513.000000,15117.000000,5174.000000,43552.000000
15509.000000,15117.000000,5189.000000,43551.000000
15509.000000,15153.000000,5169.000000,43542.000000
15499.000000,15147.000000,5175.000000,43552.000000
15486.000000,15111.000000,5196.000000,43542.000000
15470.000000,15353.000000,5171.000000,43536.000000
15463.000000,15099.000000,5135.000000,43526.000000
15437.000000,15105.000000,5119.000000,43530.000000
15458.000000,15086.000000,5084.000000,43522.000000
15435.000000,15054.000000,5097.000000,43512.000000
15425.000000,15316.000000,5089.000000,43492.000000
15419.000000,15042.000000,5065.000000,43488.000000
15435.000000,15319.000000,5103.000000,43505.000000
15382.000000,15043.000000,5066.000000,43475.000000
15398.000000,15287.000000,5061.000000,43484.000000
15417.000000,15053.000000,5063.000000,43500.000000
15364.000000,15307.000000,5049.000000,43479.000000
15372.000000,15032.000000,5011.000000,43467.000000
15398.000000,15030.000000,4985.000000,43475.000000
15365.000000,15281.000000,5009.000000,43463.000000
15320.000000,15259.000000,5013.000000,43448.000000
15296.000000,14997.000000,4991.000000,43427.000000
15316.000000,15232.000000,4993.000000,43456.000000
15263.000000,14967.000000,4991.000000,43435.000000
15261.000000,15207.000000,4971.000000,43427.000000
15264.000000,14911.000000,4952.000000,43431.000000
15264.000000,15240.000000,4952.000000,43408.000000
15243.000000,14891.000000,4907.000000,43411.000000
15255.000000,14925.000000,4929.000000,43395.000000
15237.000000,15131.000000,4882.000000,43403.000000
15215.000000,15160.000000,4882.000000,43363.000000
15188.000000,14860.000000,4872.000000,43379.000000
15184.000000,15148.000000,4868.000000,43356.000000
15155.000000,14821.000000,4799.000000,43360.000000
15172.000000,14835.000000,4853.000000,43351.000000
15108.000000,14855.000000,4865.000000,43373.000000
15119.000000,14857.000000,4797.000000,43365.000000
15152.000000,14844.000000,4784.000000,43299.000000
15140.000000,15127.000000,4806.000000,43332.000000
15090.000000,14804.000000,4771.000000,43321.000000
15085.000000,14815.000000,4789.000000,43293.000000
15062.000000,14791.000000,4766.000000,43323.000000
15315.000000,14775.000000,4718.000000,43293.000000
15029.000000,14772.000000,4701.000000,43291.000000
15039.000000,14753.000000,4747.000000,43283.000000
15065.000000,14755.000000,4721.000000,43287.000000
14995.000000,14755.000000,4722.000000,43300.000000
15016.000000,14807.000000,4699.000000,43283.000000
15022.000000,14735.000000,4712.000000,43264.000000
15023.000000,14720.000000,4635.000000,43301.000000
14980.000000,14723.000000,4675.000000,43264.000000
14940.000000,14697.000000,4637.000000,43218.000000
14941.000000,14732.000000,4648.000000,43257.000000
14949.000000,14705.000000,4657.000000,43247.000000
14952.000000,14689.000000,4636.000000,43227.000000
14869.000000,14680.000000,4666.000000,43238.000000
14946.000000,14668.000000,4628.000000,43238.000000
14924.000000,14700.000000,4607.000000,43225.000000
14918.000000,14715.000000,4615.000000,43196.000000
14932.000000,14701.000000,4603.000000,43227.000000
14900.000000,14675.000000,4630.000000,43225.000000
14896.000000,14691.000000,4599.000000,43189.000000
14921.000000,14676.000000,4626.000000,43273.000000
14909.000000,14668.000000,4622.000000,43206.000000
14900.000000,14615.000000,4590.000000,43219.000000
14899.000000,14701.000000,4604.000000,43221.000000
14871.000000,14681.000000,4615.000000,43185.000000
14878.000000,14672.000000,4605.000000,43228.000000
14868.000000,14635.000000,4578.000000,43211.000000
14881.000000,14635.000000,4574.000000,43217.000000
14883.000000,14639.000000,4586.000000,43199.000000
14882.000000,14643.000000,4579.000000,43177.000000
14897.000000,14655.000000,4572.000000,43194.000000
14868.000000,14643.000000,4573.000000,43208.000000
14838.000000,14647.000000,4568.000000,43194.000000
14828.000000,14647.000000,4538.000000,43194.000000
14875.000000,14615.000000,4552.000000,43187.000000
14825.000000,14600.000000,4530.000000,43146.000000
14834.000000,14582.000000,4496.000000,43148.000000
14804.000000,14588.000000,4513.000000,43150.000000
14835.000000,14584.000000,4498.000000,43151.000000
14800.000000,14575.000000,4470.000000,43120.000000
14772.000000,14595.000000,4467.000000,43140.000000
14765.000000,14555.000000,4476.000000,43125.000000
14751.000000,14543.000000,4494.000000,43151.000000
14763.000000,14563.000000,4481.000000,43125.000000
14748.000000,14537.000000,4483.000000,43161.000000
14770.000000,14557.000000,4448.000000,43125.000000
14773.000000,14603.000000,4448.000000,43128.000000
14787.000000,14556.000000,4472.000000,43157.000000
14731.000000,14535.000000,4457.000000,43136.000000
14767.000000,14539.000000,4445.000000,43103.000000
14744.000000,14557.000000,4464.000000,43110.000000
14773.000000,14568.000000,4485.000000,43111.000000
14788.000000,14559.000000,4464.000000,43111.000000
14746.000000,14543.000000,4479.000000,43177.000000
14827.000000,14575.000000,4522.000000,43138.000000
14836.000000,14616.000000,4512.000000,43184.000000
14839.000000,14615.000000,4519.000000,43151.000000
14832.000000,14627.000000,4523.000000,43148.000000
14867.000000,14628.000000,4527.000000,43184.000000
14851.000000,14627.000000,4546.000000,43164.000000
14878.000000,14643.000000,4572.000000,43182.000000
14890.000000,14619.000000,4574.000000,43233.000000
14885.000000,14639.000000,4573.000000,43205.000000
14884.000000,14672.000000,4632.000000,43225.000000
14945.000000,14683.000000,4628.000000,43267.000000
15008.000000,14693.000000,4648.000000,43243.000000
15002.000000,14740.000000,4688.000000,43227.000000
15021.000000,14775.000000,4700.000000,43262.000000
15059.000000,14749.000000,4699.000000,43295.000000
15092.000000,14781.000000,4758.000000,43287.000000
15140.000000,14792.000000,4770.000000,43352.000000
15193.000000,14837.000000,4835.000000,43381.000000
15180.000000,14880.000000,4888.000000,43388.000000
15277.000000,14911.000000,4894.000000,43433.000000
15327.000000,14924.000000,4957.000000,43421.000000
15335.000000,15005.000000,4995.000000,43449.000000
15438.000000,15016.000000,5021.000000,43479.000000
15440.000000,15047.000000,5071.000000,43495.000000
15513.000000,15319.000000,5124.000000,43559.000000
15568.000000,15115.000000,5167.000000,43585.000000
15663.000000,15199.000000,5217.000000,43587.000000
15657.000000,15196.000000,5259.000000,43626.000000
15737.000000,15288.000000,5300.000000,43895.000000
15735.000000,15301.000000,5355.000000,43658.000000
15809.000000,15319.000000,5363.000000,43681.000000
15863.000000,15360.000000,5434.000000,43689.000000
15897.000000,15347.000000,5440.000000,43674.000000
15885.000000,15359.000000,5448.000000,43683.000000
15899.000000,15364.000000,5431.000000,43721.000000
15899.000000,15355.000000,5399.000000,43734.000000
15900.000000,15335.000000,5453.000000,43710.000000
15922.000000,15372.000000,5496.000000,43709.000000
15941.000000,15359.000000,5453.000000,43717.000000
15900.000000,15375.000000,5449.000000,43724.000000
15892.000000,15351.000000,5466.000000,43691.000000
15903.000000,15369.000000,5415.000000,43710.000000
16168.000000,15375.000000,5463.000000,43698.000000
15865.000000,15319.000000,5437.000000,43725.000000
15851.000000,15348.000000,5411.000000,43690.000000
15835.000000,15331.000000,5411.000000,43673.000000
15837.000000,15324.000000,5397.000000,43750.000000
15855.000000,15295.000000,5405.000000,43695.000000
15823.000000,15303.000000,5425.000000,43722.000000
15799.000000,15295.000000,5379.000000,43701.000000
15819.000000,15400.000000,5380.000000,43670.000000
15808.000000,15320.000000,5397.000000,43691.000000
15791.000000,15344.000000,5368.000000,43671.000000
15789.000000,15288.000000,5336.000000,43917.000000
15792.000000,15259.000000,5305.000000,43688.000000
15787.000000,15275.000000,5338.000000,43649.000000
15757.000000,15292.000000,5361.000000,43679.000000
15791.000000,15296.000000,5323.000000,43682.000000
15787.000000,15267.000000,5386.000000,43690.000000
15802.000000,15271.000000,5328.000000,43671.000000
15759.000000,15285.000000,5374.000000,43677.000000
15777.000000,15288.000000,5364.000000,43682.000000
15755.000000,15289.000000,5339.000000,43659.000000
15745.000000,15279.000000,5379.000000,43662.000000
15727.000000,15299.000000,5321.000000,43644.000000
15739.000000,15251.000000,5342.000000,43649.000000
15755.000000,15243.000000,5312.000000,43662.000000
15759.000000,15287.000000,5329.000000,43659.000000
15720.000000,15275.000000,5348.000000,43699.000000
15743.000000,15247.000000,5326.000000,43640.000000
15745.000000,15283.000000,5328.000000,43648.000000
15711.000000,15260.000000,5311.000000,43624.000000
15744.000000,15265.000000,5317.000000,43641.000000
15680.000000,15232.000000,5320.000000,43634.000000
15704.000000,15215.000000,5293.000000,43607.000000
15621.000000,15227.000000,5312.000000,43586.000000
15645.000000,15224.000000,5235.000000,43619.000000
15666.000000,15205.000000,5275.000000,43619.000000
15668.000000,15163.000000,5295.000000,43625.000000
15625.000000,15207.000000,5285.000000,43599.000000
15592.000000,15179.000000,5212.000000,43644.000000
15594.000000,15197.000000,5276.000000,43605.000000
15616.000000,15212.000000,5255.000000,43607.000000
15585.000000,15185.000000,5247.000000,43595.000000
15619.000000,15171.000000,5240.000000,43596.000000
15574.000000,15175.000000,5211.000000,43561.000000
15573.000000,15180.000000,5197.000000,43552.000000
15570.000000,15187.000000,5253.000000,43589.000000
15532.000000,15177.000000,5195.000000,43569.000000
15560.000000,15163.000000,5166.000000,43561.000000
15519.000000,15141.000000,5212.000000,43591.000000
15508.000000,15124.000000,5161.000000,43554.000000
15518.000000,15089.000000,5177.000000,43550.000000
15544.000000,15155.000000,5224.000000,43551.000000
15542.000000,15123.000000,5192.000000,43552.000000
15546.000000,15119.000000,5180.000000,43521.000000
15549.000000,15147.000000,5163.000000,43517.000000
15521.000000,15339.000000,5177.000000,43553.000000
15524.000000,15101.000000,5163.000000,43536.000000
15513.000000,15132.000000,5136.000000,43549.000000
15433.000000,15108.000000,5135.000000,43565.000000
15523.000000,15136.000000,5170.000000,43556.000000
15462.000000,15352.000000,5136.000000,43511.000000
15453.000000,15347.000000,5127.000000,43508.000000
15453.000000,15090.000000,5136.000000,43783.000000
15458.000000,15332.000000,5131.000000,43523.000000
15385.000000,15288.000000,5126.000000,43512.000000
15460.000000,15320.000000,5101.000000,43507.000000
15419.000000,15341.000000,5107.000000,43501.000000
15404.000000,15054.000000,5126.000000,43557.000000
15437.000000,15324.000000,5131.000000,43785.000000
15422.000000,15311.000000,5116.000000,43501.000000
15425.000000,15078.000000,5101.000000,43529.000000
15403.000000,15299.000000,5089.000000,43493.000000
15380.000000,15051.000000,5090.000000,43467.000000
15361.000000,15062.000000,5058.000000,43479.000000
15371.000000,14995.000000,5099.000000,43500.000000
15371.000000,14992.000000,5079.000000,43489.000000
15342.000000,15025.000000,5072.000000,43462.000000
15307.000000,15291.000000,5047.000000,43471.000000
15351.000000,15010.000000,5047.000000,43479.000000
15321.000000,14977.000000,5050.000000,43433.000000
15307.000000,15219.000000,5007.000000,43425.000000
15289.000000,15245.000000,5035.000000,43420.000000
15305.000000,15189.000000,4995.000000,43453.000000
15278.000000,15233.000000,4995.000000,43463.000000
15271.000000,14940.000000,4991.000000,43447.000000
15231.000000,14968.000000,4984.000000,43407.000000
15255.000000,14961.000000,5008.000000,43427.000000
15294.000000,15185.000000,4971.000000,43425.000000
15254.000000,15188.000000,4968.000000,43423.000000
15183.000000,15197.000000,4962.000000,43429.000000
15223.000000,14928.000000,4989.000000,43415.000000
15194.000000,15171.000000,4952.000000,43419.000000
15178.000000,15176.000000,4921.000000,43371.000000
15131.000000,14907.000000,4898.000000,43389.000000
15131.000000,14855.000000,4850.000000,43365.000000
15125.000000,15144.000000,4879.000000,43352.000000
15125.000000,14900.000000,4871.000000,43351.000000
15119.000000,14857.000000,4896.000000,43368.000000
15157.000000,14831.000000,4865.000000,43355.000000
15129.000000,15117.000000,4854.000000,43323.000000
15099.000000,14839.000000,4832.000000,43343.000000
15096.000000,14844.000000,4864.000000,43335.000000
15047.000000,14799.000000,4807.000000,43325.000000
15084.000000,14827.000000,4814.000000,43356.000000
15024.000000,14815.000000,4790.000000,43321.000000
15054.000000,14779.000000,4819.000000,43338.000000
15034.000000,14787.000000,4842.000000,43333.000000
15064.000000,14780.000000,4833.000000,43307.000000
15063.000000,14799.000000,4768.000000,43320.000000
15035.000000,14811.000000,4759.000000,43313.000000
15014.000000,14804.000000,4783.000000,43317.000000
15032.000000,14752.000000,4762.000000,43304.000000
14990.000000,14763.000000,4753.000000,43285.000000
15001.000000,14739.000000,4771.000000,43263.000000
14994.000000,14764.000000,4763.000000,43272.000000
14959.000000,14759.000000,4754.000000,43299.000000
15009.000000,14775.000000,4739.000000,43250.000000
15009.000000,14792.000000,4754.000000,43287.000000
14993.000000,14787.000000,4730.000000,43244.000000
14981.000000,14747.000000,4713.000000,43264.000000
14982.000000,14727.000000,4727.000000,43316.000000
14969.000000,14765.000000,4737.000000,43242.000000
14954.000000,14749.000000,4721.000000,43279.000000
14979.000000,14761.000000,4760.000000,43305.000000
14942.000000,14731.000000,4743.000000,43282.000000
14994.000000,14755.000000,4773.000000,43275.000000
14980.000000,14755.000000,4746.000000,43307.000000
15012.000000,14765.000000,4768.000000,43284.000000
14959.000000,14739.000000,4710.000000,43267.000000
14986.000000,14772.000000,4754.000000,43276.000000
14993.000000,14739.000000,4951.000000,43255.000000
14908.000000,14755.000000,4725.000000,43267.000000
14965.000000,14719.000000,4732.000000,43244.000000
14986.000000,14753.000000,4730.000000,43313.000000
14952.000000,14747.000000,4732.000000,43268.000000
14920.000000,14676.000000,4698.000000,43285.000000
14928.000000,14729.000000,4660.000000,43254.000000
14904.000000,14695.000000,4680.000000,43259.000000
14896.000000,14697.000000,4656.000000,43217.000000
14858.000000,14679.000000,4644.000000,43230.000000
14829.000000,14672.000000,4646.000000,43206.000000
14847.000000,14671.000000,4609.000000,43231.000000
14861.000000,14679.000000,4617.000000,43194.000000
14803.000000,14679.000000,4611.000000,43184.000000
14845.000000,14667.000000,4623.000000,43182.000000
14822.000000,14635.000000,4610.000000,43179.000000
14816.000000,14643.000000,4636.000000,43188.000000
14816.000000,14627.000000,4587.000000,43205.000000
14820.000000,14604.000000,4575.000000,43181.000000
14847.000000,14687.000000,4624.000000,43206.000000
14839.000000,14619.000000,4595.000000,43221.000000
14859.000000,14659.000000,4628.000000,43221.000000
14845.000000,14643.000000,4620.000000,43216.000000
14840.000000,14704.000000,4665.000000,43229.000000
14884.000000,14677.000000,4637.000000,43238.000000
14916.000000,14707.000000,4670.000000,43247.000000
14888.000000,14691.000000,4694.000000,43229.000000
14928.000000,14675.000000,4657.000000,43279.000000
14938.000000,14699.000000,4693.000000,43252.000000
14930.000000,14732.000000,4699.000000,43258.000000
14980.000000,14695.000000,4718.000000,43285.000000
15171.000000,14705.000000,4716.000000,43205.000000
14963.000000,14713.000000,4747.000000,43287.000000
14993.000000,14776.000000,4769.000000,43287.000000
15022.000000,14773.000000,4803.000000,43295.000000
15043.000000,14780.000000,4831.000000,43336.000000
15066.000000,14828.000000,4856.000000,43338.000000
15099.000000,14855.000000,4883.000000,43377.000000
15149.000000,14856.000000,4872.000000,43375.000000
15187.000000,14916.000000,4951.000000,43380.000000
15219.000000,15187.000000,4976.000000,43431.000000
15272.000000,14943.000000,4996.000000,43455.000000
15263.000000,14969.000000,5010.000000,43447.000000
15324.000000,15046.000000,5079.000000,43496.000000
15384.000000,15316.000000,5126.000000,43497.000000
15454.000000,15107.000000,5199.000000,43549.000000
15519.000000,15127.000000,5248.000000,43567.000000
15588.000000,15200.000000,5319.000000,43609.000000
15620.000000,15220.000000,5348.000000,43855.000000
15711.000000,15271.000000,5388.000000,43629.000000
15757.000000,15319.000000,5455.000000,43691.000000
15810.000000,15360.000000,5517.000000,43728.000000
15851.000000,15391.000000,5563.000000,43755.000000
15897.000000,15417.000000,5557.000000,43797.000000
15921.000000,15453.000000,5624.000000,43788.000000
15967.000000,15482.000000,5655.000000,43817.000000
15983.000000,15481.000000,5656.000000,43851.000000
16032.000000,15503.000000,5703.000000,43824.000000
16049.000000,15492.000000,5706.000000,43859.000000
15999.000000,15500.000000,5709.000000,43879.000000
16034.000000,15503.000000,5687.000000,43851.000000
16017.000000,15507.000000,5697.000000,43843.000000
16054.000000,15484.000000,5668.000000,43860.000000
16004.000000,15487.000000,5662.000000,43819.000000
16014.000000,15472.000000,5675.000000,43844.000000
16032.000000,15475.000000,5665.000000,43827.000000
16005.000000,15485.000000,5651.000000,43840.000000
16007.000000,15487.000000,5627.000000,43844.000000
15985.000000,15549.000000,5639.000000,43807.000000
15995.000000,15481.000000,5631.000000,43815.000000
15957.000000,15445.000000,5629.000000,43823.000000
15967.000000,15436.000000,5661.000000,43812.000000
15953.000000,15429.000000,5632.000000,43833.000000
15944.000000,15421.000000,5608.000000,43835.000000
15945.000000,15471.000000,5615.000000,43818.000000
15924.000000,15428.000000,5597.000000,43819.000000
15921.000000,15431.000000,5566.000000,43800.000000
15910.000000,15442.000000,5579.000000,43783.000000
15905.000000,15419.000000,5522.000000,43776.000000
16164.000000,15413.000000,5595.000000,43807.000000
15898.000000,15411.000000,5568.000000,43750.000000
15896.000000,15435.000000,5589.000000,44031.000000
15888.000000,15381.000000,5546.000000,43739.000000
15864.000000,15361.000000,5552.000000,43755.000000
15838.000000,15368.000000,5575.000000,43762.000000
15882.000000,15407.000000,5543.000000,43796.000000
15897.000000,15404.000000,5556.000000,43779.000000
15850.000000,15376.000000,5527.000000,43803.000000
15859.000000,15413.000000,5531.000000,43760.000000
15829.000000,15387.000000,5459.000000,43791.000000
15859.000000,15381.000000,5517.000000,43730.000000
15840.000000,15349.000000,5496.000000,43742.000000
15820.000000,15331.000000,5471.000000,43728.000000
15791.000000,15327.000000,5507.000000,43716.000000
15792.000000,15351.000000,5463.000000,43742.000000
15795.000000,15303.000000,5439.000000,43699.000000
15784.000000,15293.000000,5462.000000,43976.000000
15783.000000,15340.000000,5452.000000,43733.000000
15761.000000,15328.000000,5490.000000,43706.000000
15763.000000,15324.000000,5420.000000,43715.000000
15775.000000,15316.000000,5422.000000,43700.000000
15761.000000,15309.000000,5394.000000,43703.000000
15727.000000,15263.000000,5378.000000,43668.000000
15741.000000,15331.000000,5357.000000,43677.000000
15744.000000,15303.000000,5370.000000,43675.000000
15727.000000,15313.000000,5372.000000,43683.000000
15749.000000,15275.000000,5387.000000,43682.000000
15718.000000,15256.000000,5365.000000,43643.000000
15695.000000,15271.000000,5342.000000,43682.000000
15677.000000,15223.000000,5369.000000,43672.000000
15638.000000,15227.000000,5334.000000,43639.000000
15675.000000,15223.000000,5339.000000,43628.000000
15672.000000,15229.000000,5348.000000,43683.000000
15636.000000,15231.000000,5306.000000,43648.000000
15692.000000,15263.000000,5315.000000,43617.000000
15658.000000,15228.000000,5298.000000,43671.000000
15647.000000,15221.000000,5276.000000,43635.000000
15656.000000,15179.000000,5318.000000,43614.000000
15647.000000,15248.000000,5285.000000,43614.000000
15619.000000,15191.000000,5280.000000,43861.000000
15569.000000,15167.000000,5246.000000,43581.000000
15617.000000,15180.000000,5234.000000,43598.000000
15563.000000,15181.000000,5244.000000,43585.000000
15572.000000,15155.000000,5247.000000,43581.000000
15585.000000,15151.000000,5206.000000,43617.000000
15568.000000,15143.000000,5208.000000,43593.000000
15559.000000,15149.000000,5223.000000,43582.000000
15555.000000,15104.000000,5197.000000,43589.000000
15544.000000,15176.000000,5227.000000,43590.000000
15530.000000,15175.000000,5195.000000,43563.000000
15522.000000,15115.000000,5133.000000,43556.000000
15525.000000,15108.000000,5164.000000,43558.000000
15493.000000,15099.000000,5129.000000,43487.000000
15506.000000,15321.000000,5139.000000,43503.000000
15496.000000,15084.000000,5140.000000,43537.000000
15507.000000,15103.000000,5125.000000,43500.000000
15450.000000,15347.000000,5148.000000,43526.000000
15444.000000,15308.000000,5119.000000,43532.000000
15469.000000,15331.000000,5093.000000,43485.000000
15450.000000,15057.000000,5103.000000,43503.000000
15437.000000,15084.000000,5079.000000,43531.000000
15463.000000,15063.000000,5073.000000,43501.000000
15412.000000,15316.000000,5095.000000,43495.000000
15419.000000,15331.000000,5095.000000,43499.000000
15423.000000,15012.000000,5064.000000,43487.000000
15401.000000,15018.000000,5060.000000,43487.000000
15389.000000,15035.000000,5043.000000,43499.000000
15386.000000,15291.000000,5035.000000,43484.000000
15362.000000,14982.000000,5012.000000,43479.000000
15354.000000,15233.000000,5017.000000,43435.000000
15364.000000,14984.000000,4975.000000,43432.000000
15323.000000,15213.000000,4986.000000,43463.000000
15316.000000,15223.000000,4966.000000,43433.000000
15315.000000,14931.000000,4975.000000,43415.000000
15257.000000,15184.000000,4961.000000,43439.000000
15280.000000,15205.000000,4996.000000,43463.000000
15288.000000,14977.000000,4956.000000,43417.000000
15295.000000,14927.000000,4959.000000,43415.000000
15247.000000,15195.000000,4967.000000,43423.000000
15272.000000,15160.000000,4877.000000,43384.000000
15255.000000,15179.000000,4917.000000,43415.000000
15209.000000,15121.000000,4879.000000,43391.000000
15229.000000,15167.000000,4856.000000,43389.000000
15249.000000,14872.000000,4883.000000,43383.000000
15205.000000,14872.000000,4879.000000,43388.000000
15163.000000,15105.000000,4884.000000,43367.000000
15186.000000,15119.000000,4872.000000,43363.000000
15183.000000,14867.000000,4816.000000,43364.000000
15151.000000,14840.000000,4822.000000,43387.000000
15177.000000,14839.000000,4800.000000,43371.000000
15181.000000,14812.000000,4793.000000,43307.000000
15119.000000,14816.000000,4799.000000,43347.000000
15149.000000,14825.000000,4799.000000,43331.000000
15135.000000,14808.000000,4788.000000,43359.000000
15090.000000,14821.000000,4806.000000,43351.000000
15124.000000,14796.000000,4772.000000,43329.000000
15144.000000,14840.000000,4791.000000,43309.000000
15101.000000,14803.000000,4759.000000,43337.000000
15095.000000,14792.000000,5005.000000,43321.000000
15047.000000,14753.000000,4726.000000,43287.000000
15084.000000,14755.000000,4754.000000,43299.000000
15089.000000,14775.000000,4748.000000,43288.000000
15058.000000,14805.000000,4681.000000,43275.000000
15059.000000,14723.000000,4721.000000,43319.000000
15067.000000,14757.000000,4761.000000,43303.000000
15057.000000,14811.000000,4701.000000,43327.000000
15058.000000,14701.000000,4745.000000,43287.000000
15085.000000,14751.000000,4708.000000,43285.000000
15045.000000,14785.000000,4701.000000,43275.000000
15065.000000,14752.000000,4713.000000,43288.000000
15063.000000,14765.000000,4725.000000,43279.000000
15028.000000,14759.000000,4655.000000,43283.000000
15337.000000,14741.000000,4684.000000,43254.000000
15038.000000,14779.000000,4727.000000,43279.000000
15048.000000,14760.000000,4693.000000,43303.000000
15021.000000,14769.000000,4750.000000,43310.000000
15076.000000,14756.000000,4702.000000,43242.000000
15024.000000,14769.000000,4752.000000,43275.000000
15046.000000,14800.000000,4669.000000,43242.000000
15089.000000,14787.000000,4730.000000,43296.000000
15024.000000,14763.000000,4683.000000,43246.000000
15046.000000,14751.000000,4691.000000,43292.000000
15018.000000,14735.000000,4666.000000,43296.000000
15021.000000,14704.000000,4645.000000,43240.000000
14989.000000,14719.000000,4655.000000,43259.000000
14986.000000,14727.000000,4626.000000,43247.000000
14978.000000,14699.000000,4600.000000,43241.000000
14973.000000,14723.000000,4598.000000,43249.000000
14962.000000,14712.000000,4601.000000,43235.000000
14947.000000,14655.000000,4605.000000,43225.000000
14944.000000,14673.000000,4636.000000,43234.000000
14932.000000,14675.000000,4579.000000,43218.000000
14983.000000,14697.000000,4573.000000,43221.000000
14944.000000,14639.000000,4603.000000,43219.000000
14993.000000,14727.000000,4584.000000,43268.000000
14925.000000,14668.000000,4580.000000,43195.000000
14977.000000,14668.000000,4595.000000,43232.000000
14940.000000,14687.000000,4609.000000,43258.000000
14957.000000,14676.000000,4630.000000,43244.000000
14963.000000,14703.000000,4625.000000,43248.000000
14965.000000,14720.000000,4623.000000,43243.000000
15000.000000,14739.000000,4629.000000,43273.000000
14992.000000,14709.000000,4666.000000,43243.000000
15035.000000,14715.000000,4678.000000,43259.000000
15037.000000,14731.000000,4660.000000,43227.000000
15067.000000,14715.000000,4656.000000,43267.000000
15027.000000,14742.000000,4971.000000,43285.000000
15067.000000,14745.000000,4753.000000,43297.000000
15073.000000,14743.000000,4703.000000,43291.000000
15125.000000,14783.000000,4766.000000,43345.000000
15088.000000,14815.000000,4774.000000,43323.000000
15154.000000,14839.000000,4793.000000,43337.000000
15174.000000,14827.000000,4781.000000,43327.000000
15196.000000,15143.000000,4848.000000,43368.000000
15235.000000,14881.000000,4840.000000,43373.000000
15235.000000,14887.000000,4865.000000,43361.000000
15280.000000,14905.000000,4892.000000,43391.000000
15323.000000,14953.000000,4907.000000,43428.000000
15379.000000,14959.000000,4927.000000,43411.000000
15371.000000,15216.000000,5004.000000,43472.000000
15435.000000,15323.000000,5063.000000,43538.000000
15516.000000,15311.000000,5110.000000,43515.000000
15518.000000,15359.000000,5156.000000,43538.000000
15588.000000,15155.000000,5181.000000,43564.000000
15674.000000,15165.000000,5229.000000,43583.000000
15739.000000,15237.000000,5261.000000,43642.000000
15745.000000,15231.000000,5341.000000,43663.000000
15791.000000,15297.000000,5374.000000,43685.000000
15893.000000,15335.000000,5434.000000,43733.000000
15930.000000,15331.000000,5443.000000,43770.000000
15948.000000,15419.000000,5508.000000,43805.000000
16007.000000,15435.000000,5538.000000,43796.000000
16070.000000,15460.000000,5563.000000,43819.000000
16048.000000,15465.000000,5623.000000,43819.000000
16122.000000,15468.000000,5610.000000,43839.000000
16119.000000,15473.000000,5615.000000,43832.000000
16106.000000,15527.000000,5600.000000,43859.000000
16137.000000,15512.000000,5665.000000,43819.000000
16175.000000,15528.000000,5655.000000,43879.000000
16154.000000,15484.000000,5641.000000,43831.000000
16137.000000,15519.000000,5607.000000,43868.000000
16153.000000,15520.000000,5657.000000,43864.000000
16132.000000,15477.000000,5607.000000,43860.000000
16136.000000,15522.000000,5610.000000,43860.000000
16140.000000,15513.000000,5643.000000,43844.000000
16122.000000,15518.000000,5614.000000,43827.000000
16080.000000,15518.000000,5588.000000,43799.000000
16079.000000,15479.000000,5571.000000,43811.000000
16078.000000,15461.000000,5536.000000,43835.000000
16065.000000,15435.000000,5534.000000,43757.000000
16059.000000,15424.000000,5582.000000,43757.000000
16010.000000,15453.000000,5530.000000,43803.000000
16015.000000,15459.000000,5533.000000,43749.000000
16005.000000,15413.000000,5533.000000,43759.000000
15996.000000,15400.000000,5521.000000,43783.000000
15944.000000,15403.000000,5470.000000,43765.000000
15981.000000,15356.000000,5453.000000,43743.000000
15949.000000,15411.000000,5471.000000,43740.000000
15936.000000,15371.000000,5464.000000,43804.000000
16014.000000,15371.000000,5443.000000,43720.000000
15914.000000,15349.000000,5437.000000,43719.000000
15900.000000,15339.000000,5429.000000,43705.000000
15901.000000,15348.000000,5392.000000,43715.000000
15883.000000,15347.000000,5364.000000,43718.000000
15882.000000,15340.000000,5392.000000,43734.000000
15899.000000,15335.000000,5432.000000,43736.000000
15887.000000,15325.000000,5421.000000,43701.000000
15874.000000,15349.000000,5391.000000,43705.000000
15886.000000,15329.000000,5381.000000,43727.000000
15879.000000,15271.000000,5381.000000,43704.000000
15880.000000,15252.000000,5344.000000,43645.000000
15839.000000,15293.000000,5351.000000,43686.000000
15888.000000,15275.000000,5348.000000,43659.000000
15828.000000,15264.000000,5326.000000,43662.000000
15801.000000,15231.000000,5288.000000,43668.000000
15816.000000,15265.000000,5288.000000,43674.000000
15834.000000,15299.000000,5320.000000,43703.000000
15801.000000,15265.000000,5327.000000,43666.000000
15790.000000,15235.000000,5285.000000,43656.000000
15804.000000,15275.000000,5289.000000,43669.000000
15823.000000,15248.000000,5285.000000,43680.000000
15786.000000,15245.000000,5254.000000,43629.000000
15703.000000,15236.000000,5267.000000,43653.000000
15707.000000,15211.000000,5225.000000,43622.000000
15719.000000,15184.000000,5215.000000,43604.000000
15688.000000,15176.000000,5242.000000,43659.000000
15703.000000,15229.000000,5199.000000,43603.000000
15663.000000,15169.000000,5266.000000,43605.000000
15636.000000,15193.000000,5206.000000,43637.000000
15688.000000,15151.000000,5196.000000,43607.000000
15643.000000,15159.000000,5163.000000,43600.000000
15643.000000,15201.000000,5193.000000,43585.000000
15658.000000,15167.000000,5189.000000,43575.000000
15665.000000,15141.000000,5174.000000,43557.000000
15656.000000,15155.000000,5176.000000,43573.000000
15613.000000,15147.000000,5158.000000,43572.000000
15631.000000,15125.000000,5119.000000,43807.000000
15618.000000,15121.000000,5127.000000,43564.000000
15600.000000,15131.000000,5122.000000,43531.000000
15603.000000,15133.000000,5110.000000,43540.000000
15556.000000,15111.000000,5119.000000,43567.000000
15604.000000,15117.000000,5094.000000,43553.000000
15603.000000,15107.000000,5073.000000,43537.000000
15534.000000,15336.000000,5094.000000,43546.000000
15554.000000,15090.000000,5076.000000,43527.000000
15540.000000,15101.000000,5074.000000,43537.000000
15550.000000,15092.000000,5080.000000,43532.000000
15557.000000,15305.000000,5025.000000,43528.000000
15502.000000,15303.000000,5044.000000,43521.000000
15460.000000,15051.000000,5055.000000,43496.000000
15493.000000,15044.000000,5044.000000,43517.000000
15522.000000,15037.000000,5044.000000,43507.000000
15443.000000,15289.000000,5039.000000,43515.000000
15485.000000,15014.000000,5015.000000,43493.000000
15491.000000,15026.000000,4995.000000,43484.000000
15466.000000,15295.000000,4977.000000,43479.000000
15411.000000,15011.000000,4997.000000,43467.000000
15464.000000,15236.000000,4940.000000,43425.000000
15398.000000,15257.000000,4980.000000,43459.000000
15368.000000,15239.000000,4954.000000,43475.000000
15391.000000,15231.000000,4953.000000,43460.000000
15357.000000,15203.000000,4955.000000,43476.000000
15352.000000,15199.000000,4909.000000,43440.000000
15386.000000,14949.000000,4896.000000,43389.000000
15335.000000,14949.000000,4888.000000,43393.000000
15335.000000,15163.000000,4863.000000,43397.000000
15310.000000,14887.000000,4869.000000,43405.000000
15292.000000,14886.000000,4861.000000,43383.000000
15309.000000,15159.000000,4843.000000,43404.000000
15267.000000,15141.000000,4834.000000,43380.000000
15282.000000,14896.000000,4828.000000,43378.000000
15273.000000,15147.000000,4825.000000,43412.000000
15255.000000,14819.000000,4805.000000,43369.000000
15237.000000,14884.000000,4776.000000,43355.000000
15219.000000,14871.000000,4849.000000,43343.000000
15215.000000,14875.000000,4812.000000,43387.000000
15200.000000,14871.000000,4783.000000,43356.000000
15203.000000,14844.000000,4789.000000,43393.000000
15225.000000,15107.000000,4753.000000,43329.000000
15171.000000,14829.000000,4766.000000,43335.000000
15157.000000,14809.000000,4722.000000,43311.000000
15184.000000,14832.000000,4744.000000,43303.000000
15135.000000,14776.000000,4703.000000,43292.000000
15139.000000,14768.000000,4754.000000,43313.000000
15153.000000,14803.000000,4683.000000,43295.000000
15125.000000,14785.000000,4716.000000,43303.000000
15115.000000,14752.000000,4714.000000,43301.000000
15115.000000,14751.000000,4664.000000,43276.000000
15087.000000,14735.000000,4696.000000,43293.000000
15120.000000,14720.000000,4671.000000,43263.000000
15091.000000,14748.000000,4676.000000,43275.000000
15056.000000,14763.000000,4671.000000,43313.000000
15090.000000,14740.000000,4668.000000,43257.000000
15086.000000,14747.000000,4643.000000,43283.000000
15098.000000,14765.000000,4676.000000,43288.000000
15082.000000,14735.000000,4667.000000,43299.000000
15048.000000,14751.000000,4592.000000,43291.000000
15052.000000,14739.000000,4639.000000,43287.000000
15083.000000,14709.000000,4641.000000,43288.000000
15063.000000,14727.000000,4641.000000,43271.000000
15102.000000,14732.000000,4650.000000,43238.000000
15291.000000,14705.000000,4614.000000,43265.000000
15058.000000,14692.000000,4627.000000,43235.000000
15020.000000,14732.000000,4633.000000,43246.000000
15045.000000,14697.000000,4624.000000,43255.000000
15036.000000,14709.000000,4650.000000,43254.000000
15023.000000,14691.000000,4626.000000,43256.000000
15047.000000,14723.000000,4596.000000,43263.000000
15047.000000,14719.000000,4616.000000,43279.000000
15002.000000,14675.000000,4630.000000,43263.000000
15004.000000,14679.000000,4607.000000,43249.000000
15013.000000,14684.000000,4614.000000,43212.000000
15017.000000,14717.000000,4603.000000,43227.000000
14989.000000,14697.000000,4598.000000,43241.000000
14956.000000,14665.000000,4577.000000,43223.000000
14991.000000,14689.000000,4560.000000,43241.000000
14969.000000,14671.000000,4553.000000,43207.000000
14938.000000,14660.000000,4592.000000,43222.000000
14959.000000,14681.000000,4552.000000,43209.000000
14924.000000,14619.000000,4525.000000,43204.000000
14868.000000,14645.000000,4502.000000,43223.000000
14929.000000,14604.000000,4495.000000,43182.000000
14911.000000,14609.000000,4451.000000,43172.000000
14875.000000,14605.000000,4485.000000,43191.000000
14883.000000,14597.000000,4447.000000,43169.000000
15115.000000,14577.000000,4463.000000,43181.000000
14887.000000,14593.000000,4468.000000,43180.000000
14881.000000,14632.000000,4524.000000,43216.000000
14851.000000,14611.000000,4516.000000,43185.000000
14925.000000,14631.000000,4506.000000,43166.000000
14912.000000,14641.000000,4534.000000,43200.000000
14937.000000,14639.000000,4513.000000,43229.000000
14957.000000,14665.000000,4538.000000,43207.000000
14944.000000,14643.000000,4498.000000,43218.000000
14954.000000,14660.000000,4555.000000,43214.000000
14958.000000,14663.000000,4564.000000,43231.000000
15011.000000,14680.000000,4591.000000,43228.000000
15024.000000,14621.000000,4614.000000,43207.000000
15024.000000,14671.000000,4611.000000,43253.000000
15030.000000,14699.000000,4637.000000,43253.000000
15011.000000,14691.000000,4639.000000,43269.000000
15101.000000,14723.000000,4647.000000,43271.000000
15092.000000,14744.000000,4652.000000,43287.000000
15107.000000,14759.000000,4707.000000,43328.000000
15138.000000,14781.000000,4723.000000,43337.000000
15171.000000,14791.000000,4755.000000,43333.000000
15192.000000,14835.000000,4770.000000,43357.000000
15190.000000,14867.000000,4824.000000,43368.000000
15271.000000,15159.000000,4820.000000,43364.000000
15283.000000,15159.000000,4855.000000,43391.000000
15291.000000,14917.000000,4889.000000,43397.000000
15351.000000,14968.000000,4923.000000,43415.000000
15368.000000,15217.000000,4959.000000,43412.000000
15466.000000,15291.000000,4980.000000,43488.000000
15476.000000,15300.000000,5043.000000,43519.000000
15574.000000,15335.000000,5063.000000,43537.000000
15627.000000,15131.000000,5156.000000,43577.000000
15657.000000,15152.000000,5201.000000,43615.000000
15709.000000,15185.000000,5246.000000,43613.000000
15823.000000,15236.000000,5282.000000,43644.000000
15823.000000,15299.000000,5358.000000,43699.000000
15861.000000,15303.000000,5371.000000,43717.000000
15920.000000,15328.000000,5398.000000,43688.000000
15959.000000,15393.000000,5466.000000,43753.000000
16004.000000,15424.000000,5517.000000,43800.000000
16027.000000,15468.000000,5539.000000,43811.000000
16079.000000,15465.000000,5579.000000,43827.000000
16115.000000,15458.000000,5594.000000,43839.000000
16156.000000,15488.000000,5575.000000,43855.000000
16124.000000,15495.000000,5597.000000,43849.000000
16140.000000,15519.000000,5620.000000,43816.000000
16154.000000,15492.000000,5590.000000,43851.000000
16161.000000,15497.000000,5599.000000,43863.000000
16134.000000,15526.000000,5612.000000,43843.000000
16123.000000,15482.000000,5606.000000,43821.000000
16156.000000,15495.000000,5562.000000,43840.000000
16090.000000,15488.000000,5599.000000,43839.000000
16141.000000,15494.000000,5583.000000,43840.000000
16111.000000,15461.000000,5581.000000,43813.000000
16100.000000,15481.000000,5532.000000,43844.000000
16373.000000,15483.000000,5553.000000,43831.000000
16107.000000,15443.000000,5539.000000,43827.000000
16051.000000,15475.000000,5534.000000,43815.000000
16076.000000,15455.000000,5537.000000,43811.000000
16091.000000,15444.000000,5547.000000,43820.000000
16054.000000,15460.000000,5538.000000,43839.000000
16076.000000,15429.000000,5524.000000,43795.000000
16045.000000,15423.000000,5515.000000,43783.000000
16061.000000,15416.000000,5526.000000,43785.000000
16015.000000,15443.000000,5529.000000,43819.000000
16015.000000,15423.000000,5527.000000,43780.000000
16016.000000,15392.000000,5511.000000,43779.000000
16011.000000,15447.000000,5502.000000,43807.000000
16009.000000,15424.000000,5512.000000,43799.000000
16008.000000,15428.000000,5511.000000,43780.000000
15990.000000,15386.000000,5489.000000,43783.000000
16007.000000,15415.000000,5470.000000,43795.000000
16243.000000,15375.000000,5488.000000,44013.000000
15975.000000,15362.000000,5487.000000,43798.000000
15985.000000,15371.000000,5469.000000,43770.000000
15955.000000,15431.000000,5457.000000,43772.000000
15962.000000,15372.000000,5456.000000,43787.000000
15945.000000,15355.000000,5457.000000,43775.000000
15939.000000,15345.000000,5480.000000,43797.000000
15943.000000,15372.000000,5446.000000,43748.000000
15931.000000,15395.000000,5468.000000,43734.000000
15930.000000,15393.000000,5452.000000,43757.000000
15946.000000,15384.000000,5440.000000,43761.000000
15918.000000,15351.000000,5463.000000,44016.000000
15933.000000,15345.000000,5437.000000,43758.000000
15889.000000,15347.000000,5410.000000,43726.000000
15871.000000,15323.000000,5388.000000,43738.000000
15871.000000,15340.000000,5386.000000,43714.000000
15816.000000,15295.000000,5384.000000,43750.000000
15820.000000,15317.000000,5340.000000,43687.000000
15814.000000,15307.000000,5367.000000,43700.000000
15839.000000,15325.000000,5365.000000,43955.000000
15827.000000,15296.000000,5365.000000,43709.000000
15836.000000,15264.000000,5348.000000,43664.000000
15807.000000,15252.000000,5350.000000,43685.000000
