660nm,730nm,850nm,940nm
8188.000000,14695.000000,5068.000000,42299.000000
8199.000000,14687.000000,5076.000000,42325.000000
8240.000000,14727.000000,5105.000000,42355.000000
8291.000000,14739.000000,5137.000000,42351.000000
8254.000000,14727.000000,5141.000000,42353.000000
8275.000000,14751.000000,5148.000000,42347.000000
8285.000000,14719.000000,5111.000000,42313.000000
8269.000000,14741.000000,5139.000000,42349.000000
8261.000000,14719.000000,5099.000000,42323.000000
8263.000000,14713.000000,5105.000000,42332.000000
8233.000000,14707.000000,5124.000000,42351.000000
8232.000000,14705.000000,5103.000000,42340.000000
8240.000000,14683.000000,5088.000000,42319.000000
8225.000000,14681.000000,5090.000000,42348.000000
8174.000000,14655.000000,5062.000000,42327.000000
8220.000000,14688.000000,5072.000000,42295.000000
8209.000000,14651.000000,5054.000000,42288.000000
8180.000000,14647.000000,5040.000000,42289.000000
8163.000000,14636.000000,5048.000000,42288.000000
8123.000000,14608.000000,5009.000000,42271.000000
8144.000000,14623.000000,4981.000000,42279.000000
8090.000000,14620.000000,5006.000000,42255.000000
8126.000000,14603.000000,4970.000000,42264.000000
8094.000000,14592.000000,4977.000000,42259.000000
8097.000000,14589.000000,4981.000000,42226.000000
8065.000000,14550.000000,4944.000000,42228.000000
8035.000000,14591.000000,4952.000000,42251.000000
8043.000000,14547.000000,4930.000000,42199.000000
8067.000000,14531.000000,4919.000000,42203.000000
8024.000000,14535.000000,4911.000000,42226.000000
8012.000000,14512.000000,4884.000000,42191.000000
8001.000000,14523.000000,4878.000000,42199.000000
8005.000000,14491.000000,4858.000000,42216.000000
7989.000000,14514.000000,4866.000000,42220.000000
7992.000000,14495.000000,4850.000000,42192.000000
8000.000000,14477.000000,4857.000000,42184.000000
7959.000000,14468.000000,4830.000000,42191.000000
7940.000000,14468.000000,4839.000000,42199.000000
7972.000000,14462.000000,4831.000000,42157.000000
7906.000000,14440.000000,4807.000000,42151.000000
7932.000000,14441.000000,4822.000000,42169.000000
7902.000000,14404.000000,4798.000000,42175.000000
7879.000000,14418.000000,4781.000000,42116.000000
7850.000000,14405.000000,4754.000000,42139.000000
7857.000000,14409.000000,4745.000000,42140.000000
7833.000000,14382.000000,4757.000000,42122.000000
7858.000000,14399.000000,4740.000000,42122.000000
7820.000000,14363.000000,4728.000000,42116.000000
7796.000000,14378.000000,4692.000000,42117.000000
7809.000000,14370.000000,4720.000000,42099.000000
7793.000000,14340.000000,4707.000000,42105.000000
7771.000000,14357.000000,4681.000000,42081.000000
7782.000000,14349.000000,4655.000000,42081.000000
7764.000000,14336.000000,4653.000000,42080.000000
7726.000000,14295.000000,4639.000000,42071.000000
7744.000000,14299.000000,4657.000000,42077.000000
7700.000000,14263.000000,4630.000000,42070.000000
7684.000000,14301.000000,4625.000000,42063.000000
7699.000000,14307.000000,4624.000000,42054.000000
7715.000000,14291.000000,4610.000000,42061.000000
7679.000000,14261.000000,4634.000000,42046.000000
7672.000000,14257.000000,4613.000000,42036.000000
7685.000000,14244.000000,4586.000000,42056.000000
7690.000000,14259.000000,4607.000000,42047.000000
7668.000000,14261.000000,4593.000000,42075.000000
7649.000000,14228.000000,4564.000000,42047.000000
7629.000000,14220.000000,4579.000000,42023.000000
7669.000000,14247.000000,4571.000000,42048.000000
7655.000000,14225.000000,4586.000000,42036.000000
7643.000000,14223.000000,4566.000000,42069.000000
7644.000000,14237.000000,4596.000000,42027.000000
7628.000000,14231.000000,4553.000000,42040.000000
7650.000000,14250.000000,4561.000000,42051.000000
7643.000000,14208.000000,4566.000000,42041.000000
7655.000000,14220.000000,4554.000000,42069.000000
7618.000000,14187.000000,4548.000000,42006.000000
7635.000000,14223.000000,4569.000000,42000.000000
7595.000000,14220.000000,4518.000000,42022.000000
7596.000000,14219.000000,4526.000000,42027.000000
7553.000000,14195.000000,4547.000000,42020.000000
7577.000000,14163.000000,4490.000000,41981.000000
7543.000000,14169.000000,4533.000000,42027.000000
7584.000000,14163.000000,4500.000000,41979.000000
7556.000000,14171.000000,4504.000000,42011.000000
7549.000000,14135.000000,4447.000000,41972.000000
7532.000000,14127.000000,4491.000000,41969.000000
7549.000000,14151.000000,4479.000000,41994.000000
7530.000000,14139.000000,4458.000000,41960.000000
7523.000000,14131.000000,4453.000000,41986.000000
7527.000000,14105.000000,4433.000000,41981.000000
7528.000000,14107.000000,4460.000000,41969.000000
7532.000000,14148.000000,4484.000000,41975.000000
7551.000000,14131.000000,4472.000000,41953.000000
7532.000000,14135.000000,4457.000000,41968.000000
7543.000000,14159.000000,4485.000000,41985.000000
7537.000000,14159.000000,4510.000000,41976.000000
7528.000000,14111.000000,4469.000000,41981.000000
7530.000000,14141.000000,4512.000000,41977.000000
7557.000000,14163.000000,4470.000000,41977.000000
7553.000000,14190.000000,4500.000000,41993.000000
7599.000000,14195.000000,4530.000000,42002.000000
7609.000000,14221.000000,4519.000000,42007.000000
7613.000000,14173.000000,4583.000000,42038.000000
7634.000000,14241.000000,4561.000000,42055.000000
7644.000000,14251.000000,4615.000000,42065.000000
7691.000000,14229.000000,4608.000000,42056.000000
7708.000000,14235.000000,4643.000000,42058.000000
7728.000000,14300.000000,4676.000000,42093.000000
7760.000000,14320.000000,4714.000000,42124.000000
7782.000000,14291.000000,4726.000000,42095.000000
7804.000000,14380.000000,4748.000000,42147.000000
7844.000000,14392.000000,4772.000000,42137.000000
7893.000000,14416.000000,4822.000000,42170.000000
7945.000000,14471.000000,4820.000000,42186.000000
7984.000000,14472.000000,4875.000000,42209.000000
8012.000000,14506.000000,4929.000000,42210.000000
8037.000000,14553.000000,4927.000000,42241.000000
8097.000000,14563.000000,4949.000000,42269.000000
8132.000000,14596.000000,5029.000000,42280.000000
8178.000000,14612.000000,5040.000000,42270.000000
8218.000000,14661.000000,5081.000000,42339.000000
8246.000000,14660.000000,5087.000000,42332.000000
8301.000000,14689.000000,5116.000000,42368.000000
8276.000000,14713.000000,5147.000000,42344.000000
8306.000000,14768.000000,5161.000000,42373.000000
8345.000000,14740.000000,5151.000000,42359.000000
8355.000000,14755.000000,5177.000000,42383.000000
8361.000000,14736.000000,5191.000000,42383.000000
8372.000000,14740.000000,5184.000000,42371.000000
8330.000000,14724.000000,5161.000000,42405.000000
8349.000000,14755.000000,5192.000000,42383.000000
8363.000000,14756.000000,5178.000000,42393.000000
8280.000000,14740.000000,5156.000000,42370.000000
8312.000000,14731.000000,5195.000000,42364.000000
8323.000000,14712.000000,5157.000000,42367.000000
8302.000000,14732.000000,5116.000000,42344.000000
8292.000000,14679.000000,5125.000000,42363.000000
8292.000000,14715.000000,5112.000000,42360.000000
8273.000000,14672.000000,5103.000000,42331.000000
8263.000000,14689.000000,5103.000000,42308.000000
8247.000000,14661.000000,5115.000000,42319.000000
8255.000000,14647.000000,5069.000000,42316.000000
8218.000000,14645.000000,5067.000000,42316.000000
8231.000000,14635.000000,5071.000000,42331.000000
8189.000000,14627.000000,5082.000000,42312.000000
8196.000000,14645.000000,5059.000000,42307.000000
8142.000000,14625.000000,5012.000000,42312.000000
8186.000000,14633.000000,5033.000000,42312.000000
8153.000000,14596.000000,5013.000000,42309.000000
8155.000000,14587.000000,4988.000000,42279.000000
8147.000000,14587.000000,5017.000000,42280.000000
8100.000000,14571.000000,4977.000000,42281.000000
8088.000000,14541.000000,4978.000000,42271.000000
8127.000000,14528.000000,4975.000000,42255.000000
8087.000000,14557.000000,4933.000000,42269.000000
8077.000000,14527.000000,4955.000000,42248.000000
8063.000000,14543.000000,4959.000000,42288.000000
8060.000000,14502.000000,4908.000000,42213.000000
8040.000000,14526.000000,4888.000000,42227.000000
8006.000000,14519.000000,4892.000000,42224.000000
7982.000000,14464.000000,4879.000000,42211.000000
7987.000000,14461.000000,4869.000000,42215.000000
7996.000000,14481.000000,4884.000000,42200.000000
7968.000000,14445.000000,4857.000000,42204.000000
7968.000000,14426.000000,4843.000000,42184.000000
7940.000000,14434.000000,4840.000000,42179.000000
7930.000000,14424.000000,4808.000000,42178.000000
7909.000000,14416.000000,4809.000000,42169.000000
7910.000000,14398.000000,4790.000000,42146.000000
7887.000000,14398.000000,4787.000000,42128.000000
7857.000000,14380.000000,4770.000000,42159.000000
7840.000000,14383.000000,4779.000000,42136.000000
7837.000000,14364.000000,4745.000000,42117.000000
7804.000000,14344.000000,4748.000000,42132.000000
7808.000000,14332.000000,4732.000000,42112.000000
7789.000000,14327.000000,4731.000000,42129.000000
7783.000000,14317.000000,4695.000000,42103.000000
7785.000000,14292.000000,4686.000000,42128.000000
7748.000000,14311.000000,4669.000000,42115.000000
7767.000000,14288.000000,4679.000000,42105.000000
7744.000000,14305.000000,4663.000000,42086.000000
7753.000000,14280.000000,4666.000000,42109.000000
7719.000000,14272.000000,4669.000000,42068.000000
7717.000000,14292.000000,4674.000000,42087.000000
7699.000000,14257.000000,4615.000000,42060.000000
7732.000000,14247.000000,4646.000000,42080.000000
7679.000000,14231.000000,4621.000000,42030.000000
7681.000000,14259.000000,4620.000000,42071.000000
7667.000000,14237.000000,4632.000000,42036.000000
7732.000000,14253.000000,4629.000000,42066.000000
7660.000000,14239.000000,4614.000000,42055.000000
7664.000000,14231.000000,4621.000000,42036.000000
7670.000000,14255.000000,4639.000000,42026.000000
7651.000000,14216.000000,4600.000000,42066.000000
7635.000000,14216.000000,4591.000000,42059.000000
7641.000000,14211.000000,4575.000000,42025.000000
7601.000000,14193.000000,4576.000000,42029.000000
7595.000000,14187.000000,4583.000000,42026.000000
7601.000000,14215.000000,4552.000000,42031.000000
7635.000000,14196.000000,4571.000000,42050.000000
7592.000000,14213.000000,4528.000000,42011.000000
7608.000000,14148.000000,4544.000000,42028.000000
7579.000000,14152.000000,4531.000000,42035.000000
7551.000000,14178.000000,4506.000000,41994.000000
7543.000000,14144.000000,4507.000000,42003.000000
7564.000000,14149.000000,4533.000000,41995.000000
7518.000000,14116.000000,4498.000000,41965.000000
7508.000000,14111.000000,4494.000000,41959.000000
7515.000000,14132.000000,4474.000000,41949.000000
7506.000000,14095.000000,4470.000000,41992.000000
7497.000000,14087.000000,4466.000000,41943.000000
7496.000000,14099.000000,4453.000000,41955.000000
7492.000000,14092.000000,4442.000000,41968.000000
7472.000000,14101.000000,4453.000000,41955.000000
7508.000000,14332.000000,4453.000000,41952.000000
7486.000000,14096.000000,4489.000000,41962.000000
7510.000000,14103.000000,4480.000000,41965.000000
7520.000000,14087.000000,4456.000000,41966.000000
7501.000000,14113.000000,4490.000000,41964.000000
7543.000000,14133.000000,4454.000000,41955.000000
7554.000000,14117.000000,4503.000000,41963.000000
7540.000000,14121.000000,4486.000000,41986.000000
7557.000000,14147.000000,4484.000000,41985.000000
7549.000000,14128.000000,4485.000000,42006.000000
7557.000000,14168.000000,4508.000000,42005.000000
7560.000000,14169.000000,4529.000000,41995.000000
7597.000000,14183.000000,4572.000000,42012.000000
7632.000000,14193.000000,4584.000000,42027.000000
7658.000000,14239.000000,4595.000000,42034.000000
7692.000000,14200.000000,4585.000000,42031.000000
7706.000000,14263.000000,4648.000000,42077.000000
7745.000000,14291.000000,4685.000000,42073.000000
7745.000000,14292.000000,4672.000000,42081.000000
7820.000000,14311.000000,4729.000000,42109.000000
7834.000000,14360.000000,4737.000000,42166.000000
7886.000000,14381.000000,4796.000000,42139.000000
7922.000000,14393.000000,4807.000000,42181.000000
7940.000000,14425.000000,4839.000000,42203.000000
7995.000000,14438.000000,4882.000000,42190.000000
8042.000000,14521.000000,4925.000000,42235.000000
8079.000000,14526.000000,4928.000000,42244.000000
8102.000000,14534.000000,4969.000000,42271.000000
8159.000000,14592.000000,5009.000000,42281.000000
8183.000000,14637.000000,5054.000000,42299.000000
8250.000000,14632.000000,5060.000000,42324.000000
8279.000000,14659.000000,5093.000000,42336.000000
8310.000000,14661.000000,5119.000000,42347.000000
8308.000000,14693.000000,5131.000000,42364.000000
8296.000000,14713.000000,5110.000000,42375.000000
8304.000000,14711.000000,5148.000000,42377.000000
8311.000000,14723.000000,5118.000000,42346.000000
8344.000000,14751.000000,5146.000000,42375.000000
8308.000000,14727.000000,5130.000000,42393.000000
8320.000000,14704.000000,5148.000000,42341.000000
8315.000000,14691.000000,5130.000000,42364.000000
8295.000000,14697.000000,5094.000000,42351.000000
8300.000000,14704.000000,5105.000000,42321.000000
8298.000000,14659.000000,5095.000000,42297.000000
8248.000000,14697.000000,5110.000000,42331.000000
8256.000000,14633.000000,5070.000000,42363.000000
8240.000000,14643.000000,5083.000000,42327.000000
8229.000000,14632.000000,5044.000000,42304.000000
8232.000000,14633.000000,5015.000000,42313.000000
8216.000000,14617.000000,5053.000000,42272.000000
8191.000000,14627.000000,5018.000000,42291.000000
8200.000000,14619.000000,5022.000000,42300.000000
8182.000000,14617.000000,5000.000000,42288.000000
8205.000000,14615.000000,4981.000000,42268.000000
8159.000000,14518.000000,4957.000000,42285.000000
8116.000000,14559.000000,4959.000000,42245.000000
8147.000000,14555.000000,4943.000000,42256.000000
8112.000000,14566.000000,4935.000000,42249.000000
8091.000000,14532.000000,4936.000000,42228.000000
8097.000000,14550.000000,4917.000000,42225.000000
8086.000000,14523.000000,4888.000000,42199.000000
8068.000000,14490.000000,4892.000000,42228.000000
8059.000000,14501.000000,4881.000000,42222.000000
8043.000000,14474.000000,4875.000000,42240.000000
8015.000000,14497.000000,4882.000000,42208.000000
8034.000000,14489.000000,4823.000000,42192.000000
8019.000000,14466.000000,4838.000000,42206.000000
7993.000000,14441.000000,4826.000000,42177.000000
8012.000000,14461.000000,4820.000000,42202.000000
7975.000000,14420.000000,4795.000000,42170.000000
7947.000000,14415.000000,4790.000000,42181.000000
7942.000000,14410.000000,4798.000000,42159.000000
7929.000000,14403.000000,4762.000000,42143.000000
7949.000000,14395.000000,4730.000000,42139.000000
7921.000000,14370.000000,4735.000000,42154.000000
7866.000000,14385.000000,4739.000000,42133.000000
7890.000000,14350.000000,4724.000000,42106.000000
7909.000000,14362.000000,4741.000000,42116.000000
7834.000000,14335.000000,4640.000000,42104.000000
7832.000000,14324.000000,4658.000000,42086.000000
7808.000000,14303.000000,4667.000000,42111.000000
7815.000000,14327.000000,4635.000000,42080.000000
7785.000000,14287.000000,4649.000000,42094.000000
7776.000000,14256.000000,4638.000000,42052.000000
7733.000000,14269.000000,4608.000000,42073.000000
7758.000000,14272.000000,4607.000000,42063.000000
7744.000000,14267.000000,4591.000000,42049.000000
7746.000000,14260.000000,4592.000000,42056.000000
7728.000000,14216.000000,4581.000000,42021.000000
7702.000000,14225.000000,4569.000000,42038.000000
7708.000000,14237.000000,4584.000000,42036.000000
7681.000000,14228.000000,4545.000000,42021.000000
7713.000000,14229.000000,4570.000000,42035.000000
7676.000000,14188.000000,4553.000000,42039.000000
7644.000000,14188.000000,4520.000000,42023.000000
7628.000000,14193.000000,4529.000000,42020.000000
7661.000000,14191.000000,4543.000000,42036.000000
7623.000000,14177.000000,4502.000000,42013.000000
7643.000000,14176.000000,4534.000000,41997.000000
7636.000000,14207.000000,4515.000000,42003.000000
7636.000000,14145.000000,4492.000000,41987.000000
7629.000000,14181.000000,4515.000000,42029.000000
7615.000000,14148.000000,4504.000000,41990.000000
7595.000000,14172.000000,4506.000000,42000.000000
7622.000000,14167.000000,4506.000000,42009.000000
7627.000000,14147.000000,4498.000000,41991.000000
7622.000000,14143.000000,4446.000000,41948.000000
7590.000000,14133.000000,4518.000000,41994.000000
7578.000000,14144.000000,4479.000000,42012.000000
7584.000000,14135.000000,4473.000000,41975.000000
7579.000000,14139.000000,4461.000000,41959.000000
7584.000000,14133.000000,4468.000000,41963.000000
7559.000000,14128.000000,4438.000000,41951.000000
7551.000000,14107.000000,4432.000000,41971.000000
7538.000000,14115.000000,4389.000000,41930.000000
7568.000000,14104.000000,4412.000000,41922.000000
7514.000000,14080.000000,4382.000000,41939.000000
7490.000000,14074.000000,4410.000000,41919.000000
7490.000000,14331.000000,4403.000000,41921.000000
7514.000000,14068.000000,4374.000000,41914.000000
7483.000000,14069.000000,4361.000000,41926.000000
7477.000000,14070.000000,4397.000000,41930.000000
7478.000000,14069.000000,4371.000000,41911.000000
7478.000000,14059.000000,4365.000000,41919.000000
7436.000000,14055.000000,4325.000000,41887.000000
7499.000000,14066.000000,4367.000000,41896.000000
7498.000000,14307.000000,4346.000000,41909.000000
7501.000000,14089.000000,4412.000000,41925.000000
7513.000000,14068.000000,4396.000000,41917.000000
7523.000000,14084.000000,4415.000000,41929.000000
7553.000000,14111.000000,4426.000000,41931.000000
7521.000000,14096.000000,4400.000000,41915.000000
7561.000000,14123.000000,4433.000000,41955.000000
7592.000000,14149.000000,4438.000000,41965.000000
7577.000000,14121.000000,4433.000000,41963.000000
7580.000000,14167.000000,4465.000000,41976.000000
7611.000000,14135.000000,4507.000000,41990.000000
7609.000000,14175.000000,4489.000000,41964.000000
7623.000000,14168.000000,4544.000000,42027.000000
7634.000000,14204.000000,4515.000000,42007.000000
7684.000000,14212.000000,4572.000000,42030.000000
7747.000000,14231.000000,4584.000000,42009.000000
7739.000000,14244.000000,4602.000000,42058.000000
7769.000000,14284.000000,4633.000000,42094.000000
7821.000000,14279.000000,4688.000000,42084.000000
7851.000000,14346.000000,4708.000000,42106.000000
7874.000000,14351.000000,4727.000000,42129.000000
7944.000000,14375.000000,4707.000000,42153.000000
7976.000000,14421.000000,4773.000000,42156.000000
8055.000000,14477.000000,4854.000000,42196.000000
8063.000000,14489.000000,4875.000000,42182.000000
8106.000000,14532.000000,4911.000000,42235.000000
8139.000000,14556.000000,4943.000000,42252.000000
8189.000000,14556.000000,4956.000000,42249.000000
8216.000000,14603.000000,5058.000000,42299.000000
8295.000000,14657.000000,5026.000000,42299.000000
8304.000000,14660.000000,5094.000000,42311.000000
8317.000000,14688.000000,5105.000000,42357.000000
8384.000000,14708.000000,5161.000000,42359.000000
8419.000000,14739.000000,5130.000000,42353.000000
8413.000000,14752.000000,5175.000000,42369.000000
8418.000000,14779.000000,5195.000000,42401.000000
8432.000000,14773.000000,5199.000000,42400.000000
8428.000000,14768.000000,5186.000000,42383.000000
8433.000000,14775.000000,5204.000000,42416.000000
8451.000000,14764.000000,5210.000000,42400.000000
8452.000000,14765.000000,5187.000000,42397.000000
8439.000000,14756.000000,5156.000000,42375.000000
8420.000000,14751.000000,5204.000000,42403.000000
8428.000000,14764.000000,5171.000000,42388.000000
8407.000000,14735.000000,5159.000000,42380.000000
8437.000000,14715.000000,5159.000000,42351.000000
8350.000000,14743.000000,5173.000000,42370.000000
8367.000000,14701.000000,5099.000000,42335.000000
8357.000000,14723.000000,5101.000000,42348.000000
8340.000000,14706.000000,5117.000000,42322.000000
8323.000000,14715.000000,5096.000000,42339.000000
8321.000000,14685.000000,5095.000000,42315.000000
8283.000000,14687.000000,5058.000000,42312.000000
8282.000000,14671.000000,5067.000000,42296.000000
8304.000000,14693.000000,5059.000000,42303.000000
8278.000000,14655.000000,5051.000000,42305.000000
8285.000000,14627.000000,5020.000000,42287.000000
8265.000000,14641.000000,5003.000000,42292.000000
8208.000000,14623.000000,4975.000000,42290.000000
8196.000000,14603.000000,5010.000000,42272.000000
8217.000000,14608.000000,4985.000000,42281.000000
8185.000000,14608.000000,4993.000000,42259.000000
8187.000000,14567.000000,4936.000000,42243.000000
8193.000000,14580.000000,4980.000000,42259.000000
8161.000000,14541.000000,4926.000000,42225.000000
8153.000000,14519.000000,4903.000000,42239.000000
8140.000000,14533.000000,4912.000000,42253.000000
8114.000000,14495.000000,4914.000000,42213.000000
8107.000000,14541.000000,4871.000000,42230.000000
8087.000000,14537.000000,4907.000000,42215.000000
8078.000000,14507.000000,4863.000000,42205.000000
8083.000000,14485.000000,4874.000000,42199.000000
8054.000000,14485.000000,4829.000000,42228.000000
8061.000000,14464.000000,4832.000000,42209.000000
8003.000000,14455.000000,4839.000000,42172.000000
8010.000000,14436.000000,4803.000000,42187.000000
8013.000000,14450.000000,4792.000000,42187.000000
7987.000000,14419.000000,4828.000000,42184.000000
7976.000000,14408.000000,4777.000000,42147.000000
7970.000000,14380.000000,4774.000000,42128.000000
7962.000000,14392.000000,4753.000000,42141.000000
7929.000000,14375.000000,4740.000000,42156.000000
7919.000000,14374.000000,4730.000000,42092.000000
7921.000000,14387.000000,4700.000000,42114.000000
7869.000000,14359.000000,4699.000000,42136.000000
7857.000000,14331.000000,4681.000000,42081.000000
7858.000000,14363.000000,4674.000000,42085.000000
7828.000000,14303.000000,4686.000000,42102.000000
7830.000000,14336.000000,4679.000000,42099.000000
7798.000000,14304.000000,4652.000000,42090.000000
7844.000000,14307.000000,4654.000000,42088.000000
7812.000000,14287.000000,4655.000000,42083.000000
7819.000000,14263.000000,4644.000000,42067.000000
7782.000000,14237.000000,4643.000000,42057.000000
7794.000000,14261.000000,4627.000000,42054.000000
7772.000000,14267.000000,4620.000000,42062.000000
7734.000000,14305.000000,4606.000000,42056.000000
7751.000000,14259.000000,4616.000000,42077.000000
7726.000000,14259.000000,4594.000000,42046.000000
7753.000000,14275.000000,4607.000000,42039.000000
7736.000000,14244.000000,4576.000000,42044.000000
7713.000000,14249.000000,4577.000000,42038.000000
7732.000000,14231.000000,4572.000000,42051.000000
7741.000000,14257.000000,4577.000000,42075.000000
7693.000000,14229.000000,4557.000000,42052.000000
7725.000000,14220.000000,4555.000000,42027.000000
7698.000000,14216.000000,4568.000000,42026.000000
7688.000000,14205.000000,4528.000000,42018.000000
7688.000000,14191.000000,4537.000000,42032.000000
7671.000000,14219.000000,4557.000000,42016.000000
7643.000000,14195.000000,4506.000000,42004.000000
7674.000000,14181.000000,4531.000000,42019.000000
7649.000000,14171.000000,4505.000000,42018.000000
7644.000000,14188.000000,4511.000000,41981.000000
7647.000000,14152.000000,4503.000000,42008.000000
7632.000000,14175.000000,4501.000000,41973.000000
7616.000000,14140.000000,4487.000000,41995.000000
7621.000000,14149.000000,4510.000000,41999.000000
7624.000000,14152.000000,4473.000000,41981.000000
7633.000000,14147.000000,4487.000000,41992.000000
7562.000000,14115.000000,4488.000000,41960.000000
7600.000000,14120.000000,4455.000000,41971.000000
7547.000000,14139.000000,4470.000000,41955.000000
7587.000000,14147.000000,4452.000000,41988.000000
7612.000000,14116.000000,4493.000000,41980.000000
7599.000000,14131.000000,4468.000000,41975.000000
7626.000000,14152.000000,4493.000000,41979.000000
7615.000000,14140.000000,4474.000000,41966.000000
7610.000000,14109.000000,4507.000000,41975.000000
7648.000000,14176.000000,4519.000000,42015.000000
7618.000000,14155.000000,4513.000000,41987.000000
7627.000000,14163.000000,4516.000000,42006.000000
7695.000000,14185.000000,4556.000000,42007.000000
7692.000000,14209.000000,4564.000000,42020.000000
7709.000000,14211.000000,4571.000000,42027.000000
7747.000000,14185.000000,4583.000000,42048.000000
7717.000000,14269.000000,4617.000000,42046.000000
7757.000000,14256.000000,4612.000000,42093.000000
7783.000000,14268.000000,4611.000000,42062.000000
7858.000000,14311.000000,4677.000000,42080.000000
7822.000000,14291.000000,4651.000000,42094.000000
7867.000000,14328.000000,4675.000000,42103.000000
7889.000000,14343.000000,4705.000000,42129.000000
7890.000000,14368.000000,4749.000000,42131.000000
7944.000000,14406.000000,4782.000000,42163.000000
7981.000000,14420.000000,4811.000000,42172.000000
8024.000000,14446.000000,4812.000000,42191.000000
8064.000000,14467.000000,4854.000000,42189.000000
8109.000000,14501.000000,4919.000000,42209.000000
8159.000000,14525.000000,4933.000000,42263.000000
8206.000000,14599.000000,4987.000000,42281.000000
8251.000000,14609.000000,5038.000000,42295.000000
8286.000000,14647.000000,5081.000000,42331.000000
8318.000000,14684.000000,5070.000000,42359.000000
8386.000000,14712.000000,5124.000000,42380.000000
8399.000000,14743.000000,5161.000000,42399.000000
8435.000000,14764.000000,5179.000000,42378.000000
8495.000000,14809.000000,5183.000000,42399.000000
8516.000000,14816.000000,5269.000000,42448.000000
8530.000000,14838.000000,5279.000000,42444.000000
8624.000000,14828.000000,5271.000000,42451.000000
8573.000000,14844.000000,5289.000000,42463.000000
8547.000000,14881.000000,5324.000000,42472.000000
8582.000000,15131.000000,5289.000000,42476.000000
8572.000000,14862.000000,5275.000000,42452.000000
8571.000000,14875.000000,5318.000000,42443.000000
8605.000000,14858.000000,5293.000000,42473.000000
8567.000000,14843.000000,5297.000000,42455.000000
8584.000000,14832.000000,5267.000000,42435.000000
8532.000000,14852.000000,5286.000000,42453.000000
8510.000000,14821.000000,5252.000000,42434.000000
8518.000000,14831.000000,5246.000000,42439.000000
8514.000000,14827.000000,5236.000000,42459.000000
8513.000000,14812.000000,5244.000000,42415.000000
8482.000000,14789.000000,5195.000000,42413.000000
8505.000000,14773.000000,5239.000000,42400.000000
8439.000000,14781.000000,5194.000000,42404.000000
8469.000000,14768.000000,5176.000000,42377.000000
8479.000000,14783.000000,5184.000000,42395.000000
8428.000000,14737.000000,5109.000000,42357.000000
8451.000000,14743.000000,5146.000000,42379.000000
8443.000000,14776.000000,5120.000000,42371.000000
8393.000000,14732.000000,5128.000000,42355.000000
8395.000000,14713.000000,5116.000000,42351.000000
8382.000000,14721.000000,5122.000000,42363.000000
8342.000000,14715.000000,5098.000000,42319.000000
8355.000000,14695.000000,5112.000000,42340.000000
8348.000000,14676.000000,5089.000000,42367.000000
8321.000000,14661.000000,5072.000000,42341.000000
8326.000000,14659.000000,5047.000000,42292.000000
8311.000000,14656.000000,5061.000000,42293.000000
8310.000000,14641.000000,5064.000000,42303.000000
8296.000000,14627.000000,5041.000000,42293.000000
8286.000000,14633.000000,5043.000000,42308.000000
8253.000000,14604.000000,5000.000000,42312.000000
8230.000000,14586.000000,5007.000000,42296.000000
8221.000000,14578.000000,5005.000000,42299.000000
8208.000000,14593.000000,4942.000000,42293.000000
8202.000000,14593.000000,4956.000000,42281.000000
8201.000000,14561.000000,4958.000000,42257.000000
8171.000000,14515.000000,4955.000000,42243.000000
8162.000000,14548.000000,4929.000000,42222.000000
8140.000000,14541.000000,4902.000000,42240.000000
8126.000000,14550.000000,4914.000000,42237.000000
8108.000000,14499.000000,4896.000000,42205.000000
8088.000000,14513.000000,4887.000000,42214.000000
8074.000000,14479.000000,4870.000000,42220.000000
8100.000000,14479.000000,4828.000000,42209.000000
8047.000000,14472.000000,4845.000000,42198.000000
8057.000000,14471.000000,4820.000000,42186.000000
8048.000000,14440.000000,4827.000000,42166.000000
8050.000000,14438.000000,4805.000000,42171.000000
8043.000000,14439.000000,4805.000000,42201.000000
8027.000000,14434.000000,4787.000000,42144.000000
8012.000000,14420.000000,4801.000000,42171.000000
7970.000000,14418.000000,4791.000000,42168.000000
7972.000000,14395.000000,4763.000000,42152.000000
7991.000000,14410.000000,4776.000000,42156.000000
7996.000000,14412.000000,4752.000000,42128.000000
7965.000000,14369.000000,4743.000000,42149.000000
7936.000000,14400.000000,4756.000000,42145.000000
7959.000000,14372.000000,4726.000000,42138.000000
7960.000000,14365.000000,4730.000000,42142.000000
7949.000000,14383.000000,4739.000000,42193.000000
7938.000000,14351.000000,4716.000000,42114.000000
7922.000000,14352.000000,4747.000000,42138.000000
7986.000000,14355.000000,4741.000000,42141.000000
7947.000000,14360.000000,4738.000000,42128.000000
7969.000000,14344.000000,4737.000000,42123.000000
7964.000000,14341.000000,4757.000000,42131.000000
7911.000000,14340.000000,4687.000000,42116.000000
7899.000000,14354.000000,4742.000000,42119.000000
7926.000000,14376.000000,4709.000000,42128.000000
7927.000000,14347.000000,4708.000000,42135.000000
7909.000000,14338.000000,4712.000000,42097.000000
7917.000000,14333.000000,4712.000000,42111.000000
7879.000000,14325.000000,4640.000000,42101.000000
7902.000000,14315.000000,4673.000000,42112.000000
7865.000000,14327.000000,4691.000000,42117.000000
7866.000000,14331.000000,4681.000000,42091.000000
7830.000000,14282.000000,4659.000000,42100.000000
7853.000000,14291.000000,4665.000000,42085.000000
7837.000000,14283.000000,4681.000000,42100.000000
7824.000000,14247.000000,4633.000000,42073.000000
8079.000000,14274.000000,4645.000000,42094.000000
7832.000000,14291.000000,4642.000000,42107.000000
7816.000000,14283.000000,4638.000000,42059.000000
7815.000000,14303.000000,4642.000000,42093.000000
7849.000000,14312.000000,4637.000000,42066.000000
7850.000000,14249.000000,4651.000000,42059.000000
7864.000000,14325.000000,4661.000000,42101.000000
7848.000000,14291.000000,4641.000000,42076.000000
7860.000000,14295.000000,4639.000000,42083.000000
7897.000000,14339.000000,4665.000000,42094.000000
7883.000000,14285.000000,4675.000000,42073.000000
7929.000000,14319.000000,4698.000000,42107.000000
7923.000000,14335.000000,4675.000000,42117.000000
7949.000000,14367.000000,4711.000000,42121.000000
7951.000000,14345.000000,4739.000000,42134.000000
7961.000000,14382.000000,4739.000000,42128.000000
7985.000000,14353.000000,4732.000000,42172.000000
7991.000000,14405.000000,4765.000000,42166.000000
7986.000000,14389.000000,4776.000000,42176.000000
8035.000000,14437.000000,4803.000000,42136.000000
8031.000000,14435.000000,4795.000000,42219.000000
8082.000000,14432.000000,4808.000000,42195.000000
8100.000000,14476.000000,4875.000000,42188.000000
8139.000000,14474.000000,4888.000000,42211.000000
8162.000000,14522.000000,4916.000000,42240.000000
8185.000000,14553.000000,4930.000000,42237.000000
8253.000000,14593.000000,4991.000000,42296.000000
8292.000000,14605.000000,5026.000000,42305.000000
8330.000000,14655.000000,5047.000000,42319.000000
8361.000000,14695.000000,5087.000000,42349.000000
8385.000000,14728.000000,5139.000000,42367.000000
8436.000000,14733.000000,5165.000000,42417.000000
8500.000000,14772.000000,5205.000000,42421.000000
8542.000000,14809.000000,5259.000000,42441.000000
8567.000000,14839.000000,5299.000000,42428.000000
8660.000000,15143.000000,5337.000000,42486.000000
8672.000000,14876.000000,5348.000000,42492.000000
8701.000000,14925.000000,5424.000000,42509.000000
8741.000000,14935.000000,5401.000000,42564.000000
8756.000000,14964.000000,5441.000000,42547.000000
8826.000000,14992.000000,5468.000000,42547.000000
8818.000000,15011.000000,5475.000000,42564.000000
8824.000000,15013.000000,5498.000000,42582.000000
8836.000000,15020.000000,5489.000000,42564.000000
8851.000000,15044.000000,5498.000000,42596.000000
8851.000000,15026.000000,5494.000000,42570.000000
8846.000000,15015.000000,5490.000000,42600.000000
8831.000000,15030.000000,5485.000000,42560.000000
8809.000000,15016.000000,5468.000000,42550.000000
8807.000000,15012.000000,5467.000000,42579.000000
8811.000000,15009.000000,5467.000000,42567.000000
8778.000000,15003.000000,5457.000000,42552.000000
8788.000000,14991.000000,5462.000000,42559.000000
8785.000000,14995.000000,5443.000000,42550.000000
8757.000000,14979.000000,5395.000000,42553.000000
8747.000000,14935.000000,5410.000000,42520.000000
8747.000000,14958.000000,5434.000000,42551.000000
8710.000000,14923.000000,5384.000000,42504.000000
8759.000000,14938.000000,5423.000000,42523.000000
8690.000000,14933.000000,5381.000000,42505.000000
8704.000000,14920.000000,5370.000000,42503.000000
8679.000000,14914.000000,5366.000000,42496.000000
8683.000000,14923.000000,5371.000000,42497.000000
8670.000000,14874.000000,5357.000000,42495.000000
8655.000000,14936.000000,5327.000000,42510.000000
8682.000000,14890.000000,5330.000000,42487.000000
8665.000000,14901.000000,5351.000000,42491.000000
8625.000000,14861.000000,5326.000000,42448.000000
8608.000000,14859.000000,5323.000000,42498.000000
8581.000000,14872.000000,5290.000000,42464.000000
8609.000000,14855.000000,5296.000000,42493.000000
8588.000000,14843.000000,5277.000000,42434.000000
8579.000000,14841.000000,5265.000000,42448.000000
8550.000000,14779.000000,5239.000000,42433.000000
8545.000000,14848.000000,5277.000000,42427.000000
8551.000000,14776.000000,5240.000000,42396.000000
8521.000000,14795.000000,5250.000000,42439.000000
8525.000000,14771.000000,5201.000000,42435.000000
8518.000000,14805.000000,5208.000000,42396.000000
8480.000000,14771.000000,5211.000000,42389.000000
8490.000000,14761.000000,5196.000000,42415.000000
8463.000000,14743.000000,5148.000000,42371.000000
8479.000000,14735.000000,5200.000000,42391.000000
8480.000000,14716.000000,5192.000000,42362.000000
8423.000000,14747.000000,5135.000000,42375.000000
8417.000000,14716.000000,5122.000000,42341.000000
8383.000000,14721.000000,5132.000000,42358.000000
8388.000000,14667.000000,5105.000000,42331.000000
8399.000000,14697.000000,5107.000000,42373.000000
8378.000000,14651.000000,5058.000000,42351.000000
8376.000000,14672.000000,5087.000000,42329.000000
8380.000000,14649.000000,5089.000000,42367.000000
8339.000000,14627.000000,5056.000000,42309.000000
8323.000000,14627.000000,5040.000000,42303.000000
8331.000000,14618.000000,5055.000000,42321.000000
8293.000000,14611.000000,5036.000000,42304.000000
8293.000000,14608.000000,5028.000000,42303.000000
8316.000000,14605.000000,5043.000000,42306.000000
8306.000000,14591.000000,5000.000000,42288.000000
8266.000000,14588.000000,5027.000000,42298.000000
8304.000000,14599.000000,4980.000000,42297.000000
8236.000000,14567.000000,4994.000000,42316.000000
8285.000000,14597.000000,4967.000000,42260.000000
8270.000000,14585.000000,5012.000000,42275.000000
8242.000000,14597.000000,4995.000000,42303.000000
8240.000000,14566.000000,4994.000000,42275.000000
8253.000000,14586.000000,4978.000000,42269.000000
8201.000000,14569.000000,4975.000000,42273.000000
8266.000000,14568.000000,4972.000000,42301.000000
8220.000000,14558.000000,4937.000000,42287.000000
8222.000000,14575.000000,4987.000000,42265.000000
8216.000000,14578.000000,4981.000000,42284.000000
8233.000000,14572.000000,4954.000000,42271.000000
8204.000000,14569.000000,4961.000000,42275.000000
8224.000000,14544.000000,4988.000000,42268.000000
8187.000000,14523.000000,4930.000000,42277.000000
8192.000000,14527.000000,4959.000000,42236.000000
8193.000000,14568.000000,4932.000000,42267.000000
8177.000000,14502.000000,4906.000000,42225.000000
8177.000000,14506.000000,4927.000000,42235.000000
8138.000000,14542.000000,4908.000000,42255.000000
8178.000000,14529.000000,4923.000000,42243.000000
8111.000000,14471.000000,4909.000000,42226.000000
8125.000000,14485.000000,4876.000000,42212.000000
8114.000000,14487.000000,4867.000000,42237.000000
8100.000000,14454.000000,4834.000000,42202.000000
8086.000000,14442.000000,4827.000000,42195.000000
8055.000000,14471.000000,4844.000000,42200.000000
8100.000000,14448.000000,4839.000000,42222.000000
8071.000000,14421.000000,4824.000000,42225.000000
8052.000000,14452.000000,4838.000000,42193.000000
8100.000000,14454.000000,4875.000000,42192.000000
8091.000000,14436.000000,4819.000000,42201.000000
8076.000000,14430.000000,4863.000000,42210.000000
8105.000000,14429.000000,4856.000000,42197.000000
8125.000000,14451.000000,4832.000000,42187.000000
8100.000000,14479.000000,4863.000000,42200.000000
8144.000000,14475.000000,4870.000000,42240.000000
8143.000000,14479.000000,4880.000000,42227.000000
8155.000000,14474.000000,4883.000000,42213.000000
8129.000000,14513.000000,4910.000000,42215.000000
8152.000000,14524.000000,4897.000000,42224.000000
8175.000000,14520.000000,4913.000000,42229.000000
8233.000000,14554.000000,4928.000000,42271.000000
8235.000000,14553.000000,4979.000000,42260.000000
8220.000000,14559.000000,4979.000000,42259.000000
8283.000000,14603.000000,5016.000000,42279.000000
8307.000000,14628.000000,5043.000000,42299.000000
8345.000000,14616.000000,5064.000000,42317.000000
8362.000000,14667.000000,5109.000000,42335.000000
8392.000000,14719.000000,5126.000000,42347.000000
8435.000000,14683.000000,5146.000000,42387.000000
8464.000000,14747.000000,5200.000000,42399.000000
8536.000000,14767.000000,5213.000000,42411.000000
8560.000000,14803.000000,5275.000000,42428.000000
8591.000000,14860.000000,5309.000000,42460.000000
8637.000000,14881.000000,5309.000000,42469.000000
8667.000000,14913.000000,5357.000000,42471.000000
8708.000000,14912.000000,5400.000000,42505.000000
8741.000000,14960.000000,5473.000000,42532.000000
8788.000000,14998.000000,5495.000000,42560.000000
8805.000000,15268.000000,5504.000000,42585.000000
8864.000000,15029.000000,5518.000000,42617.000000
8850.000000,15056.000000,5544.000000,42615.000000
8894.000000,15063.000000,5575.000000,42587.000000
8924.000000,15071.000000,5559.000000,42596.000000
8908.000000,15097.000000,5600.000000,42623.000000
8936.000000,15087.000000,5599.000000,42623.000000
8959.000000,15093.000000,5582.000000,42609.000000
8957.000000,15094.000000,5566.000000,42626.000000
8919.000000,15095.000000,5606.000000,42635.000000
8897.000000,15057.000000,5590.000000,42626.000000
8921.000000,15088.000000,5548.000000,42607.000000
8874.000000,15075.000000,5564.000000,42614.000000
8890.000000,15068.000000,5566.000000,42600.000000
8893.000000,15074.000000,5581.000000,42610.000000
8864.000000,15069.000000,5568.000000,42578.000000
8899.000000,15056.000000,5521.000000,42599.000000
8853.000000,15016.000000,5521.000000,42599.000000
8887.000000,15058.000000,5539.000000,42614.000000
8824.000000,15026.000000,5511.000000,42587.000000
8792.000000,15279.000000,5506.000000,42553.000000
8829.000000,14999.000000,5500.000000,42566.000000
8797.000000,15245.000000,5484.000000,42564.000000
8768.000000,14982.000000,5477.000000,42563.000000
8763.000000,14947.000000,5468.000000,42574.000000
8789.000000,14998.000000,5477.000000,42564.000000
8750.000000,14975.000000,5470.000000,42546.000000
8766.000000,14926.000000,5450.000000,42560.000000
8752.000000,14967.000000,5454.000000,42557.000000
8733.000000,14980.000000,5410.000000,42523.000000
8743.000000,14970.000000,5390.000000,42523.000000
8706.000000,14917.000000,5422.000000,42502.000000
8665.000000,14911.000000,5382.000000,42508.000000
8661.000000,14941.000000,5385.000000,42506.000000
8679.000000,14900.000000,5394.000000,42539.000000
8676.000000,14912.000000,5371.000000,42471.000000
8654.000000,14892.000000,5363.000000,42476.000000
8689.000000,14906.000000,5355.000000,42483.000000
8612.000000,14887.000000,5330.000000,42498.000000
8649.000000,15131.000000,5332.000000,42476.000000
8647.000000,14877.000000,5336.000000,42476.000000
8622.000000,14860.000000,5317.000000,42471.000000
8601.000000,14856.000000,5327.000000,42471.000000
8555.000000,14824.000000,5321.000000,42434.000000
8579.000000,14835.000000,5286.000000,42453.000000
8553.000000,14789.000000,5289.000000,42436.000000
8573.000000,14819.000000,5313.000000,42463.000000
8528.000000,14791.000000,5248.000000,42432.000000
8518.000000,14783.000000,5248.000000,42431.000000
8521.000000,14799.000000,5248.000000,42440.000000
8474.000000,14765.000000,5193.000000,42425.000000
8487.000000,14743.000000,5208.000000,42419.000000
8463.000000,14757.000000,5225.000000,42371.000000
8467.000000,14720.000000,5219.000000,42386.000000
8431.000000,14740.000000,5203.000000,42383.000000
8434.000000,14755.000000,5184.000000,42399.000000
8413.000000,14713.000000,5171.000000,42371.000000
8420.000000,14704.000000,5134.000000,42356.000000
8393.000000,14727.000000,5177.000000,42376.000000
8362.000000,14683.000000,5119.000000,42351.000000
8359.000000,14647.000000,5119.000000,42308.000000
8347.000000,14657.000000,5110.000000,42319.000000
8360.000000,14664.000000,5123.000000,42328.000000
8339.000000,14647.000000,5068.000000,42336.000000
8350.000000,14695.000000,5098.000000,42335.000000
8327.000000,14643.000000,5100.000000,42335.000000
8341.000000,14659.000000,5089.000000,42332.000000
8303.000000,14653.000000,5072.000000,42317.000000
8298.000000,14633.000000,5078.000000,42299.000000
8301.000000,14640.000000,5081.000000,42291.000000
8310.000000,14620.000000,5083.000000,42300.000000
8291.000000,14609.000000,5072.000000,42315.000000
8295.000000,14627.000000,5051.000000,42338.000000
8279.000000,14643.000000,5059.000000,42325.000000
8283.000000,14597.000000,5070.000000,42314.000000
8292.000000,14612.000000,5049.000000,42311.000000
8269.000000,14577.000000,5049.000000,42321.000000
8258.000000,14582.000000,5039.000000,42255.000000
8285.000000,14592.000000,5030.000000,42315.000000
8271.000000,14575.000000,5018.000000,42267.000000
8246.000000,14563.000000,5013.000000,42281.000000
8225.000000,14565.000000,4989.000000,42256.000000
8195.000000,14556.000000,4978.000000,42268.000000
8210.000000,14573.000000,4983.000000,42283.000000
8210.000000,14543.000000,4964.000000,42244.000000
8157.000000,14529.000000,4987.000000,42271.000000
8180.000000,14536.000000,4941.000000,42256.000000
8166.000000,14564.000000,4945.000000,42245.000000
8124.000000,14500.000000,4909.000000,42214.000000
8139.000000,14517.000000,4906.000000,42245.000000
8152.000000,14489.000000,4928.000000,42240.000000
8128.000000,14447.000000,4862.000000,42219.000000
8128.000000,14475.000000,4912.000000,42214.000000
8095.000000,14456.000000,4897.000000,42227.000000
8108.000000,14445.000000,4892.000000,42200.000000
8107.000000,14491.000000,4907.000000,42233.000000
8098.000000,14475.000000,4898.000000,42214.000000
8108.000000,14453.000000,4903.000000,42176.000000
8135.000000,14484.000000,4877.000000,42247.000000
8091.000000,14471.000000,4896.000000,42187.000000
8134.000000,14476.000000,4913.000000,42232.000000
8136.000000,14510.000000,4914.000000,42260.000000
8128.000000,14506.000000,4911.000000,42209.000000
8131.000000,14501.000000,4893.000000,42237.000000
8166.000000,14484.000000,4930.000000,42251.000000
8179.000000,14548.000000,4923.000000,42225.000000
8182.000000,14536.000000,4959.000000,42250.000000
8191.000000,14553.000000,4956.000000,42280.000000
8188.000000,14543.000000,4995.000000,42264.000000
8232.000000,14568.000000,4984.000000,42267.000000
8247.000000,14570.000000,5023.000000,42283.000000
8290.000000,14623.000000,5030.000000,42297.000000
8314.000000,14620.000000,5105.000000,42315.000000
8336.000000,14629.000000,5083.000000,42312.000000
8372.000000,14711.000000,5121.000000,42344.000000
8368.000000,14683.000000,5157.000000,42367.000000
8443.000000,14747.000000,5203.000000,42381.000000
8437.000000,14769.000000,5219.000000,42435.000000
8515.000000,14780.000000,5240.000000,42434.000000
8569.000000,14797.000000,5298.000000,42431.000000
8605.000000,14858.000000,5331.000000,42482.000000
8687.000000,14909.000000,5378.000000,42500.000000
8715.000000,14900.000000,5385.000000,42481.000000
8727.000000,14951.000000,5419.000000,42566.000000
8774.000000,14982.000000,5490.000000,42550.000000
8804.000000,14998.000000,5496.000000,42568.000000
8863.000000,15033.000000,5524.000000,42598.000000
8847.000000,15030.000000,5585.000000,42594.000000
8894.000000,15080.000000,5598.000000,42635.000000
8907.000000,15055.000000,5573.000000,42604.000000
8925.000000,15100.000000,5630.000000,42617.000000
8969.000000,15093.000000,5621.000000,42658.000000
8924.000000,15103.000000,5588.000000,42637.000000
8921.000000,15089.000000,5613.000000,42639.000000
8965.000000,15131.000000,5605.000000,42655.000000
8962.000000,15127.000000,5603.000000,42624.000000
8954.000000,15094.000000,5624.000000,42624.000000
8935.000000,15104.000000,5583.000000,42659.000000
8892.000000,15076.000000,5571.000000,42607.000000
8903.000000,15084.000000,5555.000000,42593.000000
8914.000000,15311.000000,5563.000000,42600.000000
8884.000000,15067.000000,5568.000000,42610.000000
8845.000000,15048.000000,5556.000000,42581.000000
8867.000000,15047.000000,5516.000000,42591.000000
8829.000000,15026.000000,5513.000000,42600.000000
8832.000000,15008.000000,5506.000000,42583.000000
8815.000000,15012.000000,5490.000000,42570.000000
8833.000000,14992.000000,5473.000000,42536.000000
8810.000000,14994.000000,5469.000000,42565.000000
8764.000000,14977.000000,5458.000000,42552.000000
8787.000000,14990.000000,5464.000000,42540.000000
8769.000000,14990.000000,5440.000000,42529.000000
8723.000000,14944.000000,5447.000000,42545.000000
9003.000000,14944.000000,5447.000000,42530.000000
8750.000000,14956.000000,5390.000000,42495.000000
8763.000000,14924.000000,5434.000000,42512.000000
8742.000000,14923.000000,5416.000000,42520.000000
8718.000000,14952.000000,5384.000000,42513.000000
8726.000000,14921.000000,5372.000000,42510.000000
8718.000000,14917.000000,5356.000000,42506.000000
8699.000000,14908.000000,5364.000000,42484.000000
8669.000000,14880.000000,5335.000000,42476.000000
8665.000000,14919.000000,5327.000000,42479.000000
8631.000000,14889.000000,5366.000000,42484.000000
8646.000000,14881.000000,5311.000000,42456.000000
8615.000000,14844.000000,5296.000000,42459.000000
8613.000000,14829.000000,5291.000000,42463.000000
8627.000000,14820.000000,5244.000000,42431.000000
8587.000000,14825.000000,5224.000000,42440.000000
8584.000000,14840.000000,5254.000000,42425.000000
8560.000000,14780.000000,5223.000000,42427.000000
8552.000000,14793.000000,5217.000000,42425.000000
8545.000000,14787.000000,5211.000000,42423.000000
8529.000000,14795.000000,5191.000000,42388.000000
8521.000000,14755.000000,5201.000000,42412.000000
8490.000000,14767.000000,5166.000000,42351.000000
8494.000000,14779.000000,5170.000000,42375.000000
8477.000000,14708.000000,5149.000000,42385.000000
8462.000000,14703.000000,5130.000000,42405.000000
8454.000000,14700.000000,5136.000000,42385.000000
8426.000000,14735.000000,5112.000000,42359.000000
8397.000000,14685.000000,5106.000000,42363.000000
8421.000000,14691.000000,5117.000000,42349.000000
8393.000000,14685.000000,5079.000000,42367.000000
8357.000000,14657.000000,5047.000000,42312.000000
8376.000000,14663.000000,5075.000000,42329.000000
8339.000000,14627.000000,5043.000000,42311.000000
8334.000000,14657.000000,5046.000000,42309.000000
8331.000000,14620.000000,5017.000000,42314.000000
8331.000000,14625.000000,5033.000000,42313.000000
8292.000000,14603.000000,4993.000000,42281.000000
8327.000000,14599.000000,4983.000000,42307.000000
8300.000000,14607.000000,5005.000000,42297.000000
8274.000000,14616.000000,4988.000000,42264.000000
8277.000000,14595.000000,4978.000000,42282.000000
8288.000000,14582.000000,4951.000000,42275.000000
8280.000000,14569.000000,4962.000000,42260.000000
8272.000000,14580.000000,4969.000000,42264.000000
8247.000000,14555.000000,4958.000000,42264.000000
8254.000000,14546.000000,4941.000000,42271.000000
8256.000000,14543.000000,4969.000000,42280.000000
8257.000000,14577.000000,4939.000000,42259.000000
8267.000000,14583.000000,4982.000000,42257.000000
8236.000000,14553.000000,4944.000000,42244.000000
8260.000000,14548.000000,4963.000000,42279.000000
8192.000000,14581.000000,4929.000000,42271.000000
8228.000000,14536.000000,4940.000000,42265.000000
8206.000000,14492.000000,4935.000000,42255.000000
8221.000000,14517.000000,4926.000000,42255.000000
8207.000000,14523.000000,4902.000000,42251.000000
8188.000000,14539.000000,4911.000000,42221.000000
8197.000000,14497.000000,4902.000000,42228.000000
8191.000000,14516.000000,4888.000000,42226.000000
8155.000000,14493.000000,4872.000000,42207.000000
8164.000000,14498.000000,4877.000000,42206.000000
8139.000000,14453.000000,4879.000000,42202.000000
8140.000000,14492.000000,4860.000000,42221.000000
8096.000000,14457.000000,4839.000000,42163.000000
8120.000000,14444.000000,4826.000000,42178.000000
8111.000000,14445.000000,4847.000000,42181.000000
8100.000000,14442.000000,4798.000000,42176.000000
8086.000000,14420.000000,4818.000000,42170.000000
8100.000000,14447.000000,4823.000000,42156.000000
8086.000000,14443.000000,4818.000000,42172.000000
8107.000000,14442.000000,4789.000000,42173.000000
8111.000000,14459.000000,4843.000000,42185.000000
8107.000000,14454.000000,4816.000000,42192.000000
8113.000000,14483.000000,4847.000000,42202.000000
8130.000000,14455.000000,4858.000000,42207.000000
8162.000000,14459.000000,4836.000000,42181.000000
8158.000000,14476.000000,4853.000000,42221.000000
8155.000000,14463.000000,4857.000000,42178.000000
8176.000000,14478.000000,4885.000000,42207.000000
8223.000000,14497.000000,4893.000000,42206.000000
8204.000000,14515.000000,4886.000000,42228.000000
8222.000000,14504.000000,4908.000000,42208.000000
8235.000000,14544.000000,4915.000000,42257.000000
8266.000000,14560.000000,4938.000000,42259.000000
8259.000000,14549.000000,4961.000000,42251.000000
8304.000000,14595.000000,4992.000000,42311.000000
8289.000000,14591.000000,4995.000000,42277.000000
8326.000000,14619.000000,5012.000000,42287.000000
8337.000000,14637.000000,5064.000000,42323.000000
8396.000000,14665.000000,5049.000000,42317.000000
8470.000000,14715.000000,5116.000000,42365.000000
8479.000000,14706.000000,5131.000000,42391.000000
8541.000000,14759.000000,5179.000000,42391.000000
8555.000000,14772.000000,5210.000000,42413.000000
8595.000000,14783.000000,5228.000000,42453.000000
8672.000000,14861.000000,5301.000000,42443.000000
8692.000000,14866.000000,5332.000000,42492.000000
8736.000000,14907.000000,5365.000000,42525.000000
8768.000000,14931.000000,5439.000000,42533.000000
8823.000000,14986.000000,5442.000000,42530.000000
8827.000000,14989.000000,5491.000000,42556.000000
8889.000000,15037.000000,5493.000000,42564.000000
8918.000000,15066.000000,5557.000000,42592.000000
8961.000000,15096.000000,5585.000000,42615.000000
8998.000000,15101.000000,5608.000000,42631.000000
9005.000000,15119.000000,5594.000000,42622.000000
9044.000000,15132.000000,5595.000000,42643.000000
9017.000000,15131.000000,5627.000000,42653.000000
9024.000000,15097.000000,5613.000000,42644.000000
9010.000000,15127.000000,5635.000000,42638.000000
9014.000000,15149.000000,5623.000000,42666.000000
9032.000000,15127.000000,5601.000000,42658.000000
9018.000000,15159.000000,5613.000000,42665.000000
8989.000000,15123.000000,5592.000000,42638.000000
9018.000000,15098.000000,5586.000000,42643.000000
9000.000000,15071.000000,5593.000000,42630.000000
8983.000000,15100.000000,5572.000000,42627.000000
8982.000000,15127.000000,5578.000000,42632.000000
8940.000000,15069.000000,5560.000000,42595.000000
8956.000000,15071.000000,5555.000000,42608.000000
8916.000000,15077.000000,5511.000000,42597.000000
8929.000000,15054.000000,5515.000000,42611.000000
8933.000000,15067.000000,5532.000000,42585.000000
8917.000000,15058.000000,5518.000000,42562.000000
8918.000000,15000.000000,5469.000000,42586.000000
8869.000000,15027.000000,5493.000000,42568.000000
8908.000000,15041.000000,5498.000000,42571.000000
8917.000000,15031.000000,5472.000000,42562.000000
8862.000000,15030.000000,5455.000000,42565.000000
8889.000000,15013.000000,5451.000000,42545.000000
8867.000000,14983.000000,5441.000000,42561.000000
8842.000000,14990.000000,5454.000000,42542.000000
8810.000000,14985.000000,5421.000000,42533.000000
8810.000000,15231.000000,5425.000000,42548.000000
8794.000000,14946.000000,5417.000000,42564.000000
8778.000000,14942.000000,5411.000000,42538.000000
8749.000000,14950.000000,5390.000000,42502.000000
8757.000000,14943.000000,5412.000000,42499.000000
8748.000000,14907.000000,5377.000000,42529.000000
8787.000000,15160.000000,5336.000000,42504.000000
8748.000000,14877.000000,5343.000000,42465.000000
8723.000000,14912.000000,5308.000000,42468.000000
8701.000000,14916.000000,5319.000000,42485.000000
8728.000000,14872.000000,5303.000000,42491.000000
8703.000000,14857.000000,5300.000000,42492.000000
8644.000000,14823.000000,5312.000000,42432.000000
8678.000000,14861.000000,5289.000000,42464.000000
8654.000000,14812.000000,5255.000000,42445.000000
8626.000000,14840.000000,5265.000000,42425.000000
8627.000000,14815.000000,5236.000000,42452.000000
8642.000000,14817.000000,5222.000000,42431.000000
8592.000000,14803.000000,5203.000000,42398.000000
8595.000000,14795.000000,5208.000000,42412.000000
8576.000000,14817.000000,5221.000000,42441.000000
8559.000000,14767.000000,5175.000000,42359.000000
8558.000000,14783.000000,5169.000000,42389.000000
8507.000000,14748.000000,5159.000000,42390.000000
8517.000000,14759.000000,5155.000000,42381.000000
8516.000000,14695.000000,5162.000000,42384.000000
8499.000000,14704.000000,5125.000000,42359.000000
8506.000000,14705.000000,5144.000000,42367.000000
8461.000000,14679.000000,5123.000000,42360.000000
8481.000000,14699.000000,5092.000000,42359.000000
8444.000000,14697.000000,5091.000000,42335.000000
8467.000000,14700.000000,5090.000000,42351.000000
8457.000000,14651.000000,5100.000000,42330.000000
8442.000000,14707.000000,5049.000000,42340.000000
8426.000000,14641.000000,5089.000000,42360.000000
8458.000000,14675.000000,5039.000000,42329.000000
8426.000000,14651.000000,5050.000000,42332.000000
8403.000000,14645.000000,5067.000000,42336.000000
8439.000000,14691.000000,5055.000000,42335.000000
8413.000000,14651.000000,5044.000000,42335.000000
8406.000000,14655.000000,5056.000000,42327.000000
8423.000000,14661.000000,5085.000000,42330.000000
8418.000000,14635.000000,5062.000000,42331.000000
8361.000000,14667.000000,5042.000000,42331.000000
8384.000000,14621.000000,5015.000000,42307.000000
8348.000000,14603.000000,5069.000000,42315.000000
8367.000000,14607.000000,5026.000000,42328.000000
8370.000000,14655.000000,5033.000000,42281.000000
8360.000000,14611.000000,5010.000000,42299.000000
8335.000000,14576.000000,4990.000000,42305.000000
8330.000000,14573.000000,4971.000000,42291.000000
8349.000000,14586.000000,4985.000000,42307.000000
8322.000000,14580.000000,4963.000000,42264.000000
8305.000000,14596.000000,4975.000000,42263.000000
8307.000000,14545.000000,4937.000000,42275.000000
8292.000000,14559.000000,4948.000000,42247.000000
8259.000000,14560.000000,4956.000000,42252.000000
8278.000000,14530.000000,4919.000000,42250.000000
8265.000000,14505.000000,4931.000000,42222.000000
8256.000000,14535.000000,4905.000000,42257.000000
8241.000000,14521.000000,4907.000000,42244.000000
8212.000000,14508.000000,4891.000000,42243.000000
8236.000000,14514.000000,4892.000000,42253.000000
8262.000000,14543.000000,4896.000000,42234.000000
8259.000000,14506.000000,4895.000000,42257.000000
8251.000000,14540.000000,4907.000000,42260.000000
8258.000000,14536.000000,4894.000000,42248.000000
8285.000000,14520.000000,4923.000000,42255.000000
8229.000000,14512.000000,4895.000000,42243.000000
8267.000000,14516.000000,4927.000000,42267.000000
8260.000000,14574.000000,4948.000000,42263.000000
8287.000000,14561.000000,4944.000000,42247.000000
8274.000000,14565.000000,4950.000000,42287.000000
8311.000000,14576.000000,4974.000000,42289.000000
8347.000000,14563.000000,4949.000000,42300.000000
8330.000000,14588.000000,5015.000000,42275.000000
8371.000000,14597.000000,5007.000000,42301.000000
8388.000000,14645.000000,5054.000000,42315.000000
8405.000000,14659.000000,5019.000000,42309.000000
8419.000000,14676.000000,5065.000000,42308.000000
8451.000000,14663.000000,5076.000000,42339.000000
8455.000000,14711.000000,5099.000000,42343.000000
8499.000000,14719.000000,5166.000000,42383.000000
8529.000000,14737.000000,5129.000000,42384.000000
8556.000000,14815.000000,5189.000000,42425.000000
8607.000000,14791.000000,5229.000000,42433.000000
8648.000000,14868.000000,5253.000000,42457.000000
8679.000000,14851.000000,5301.000000,42493.000000
8732.000000,14911.000000,5368.000000,42487.000000
8729.000000,14943.000000,5367.000000,42536.000000
8775.000000,15207.000000,5426.000000,42570.000000
8872.000000,14976.000000,5452.000000,42573.000000
8916.000000,15000.000000,5479.000000,42568.000000
9167.000000,15035.000000,5493.000000,42601.000000
8969.000000,15068.000000,5555.000000,42619.000000
9004.000000,15096.000000,5594.000000,42646.000000
9046.000000,15119.000000,5626.000000,42662.000000
9050.000000,15151.000000,5621.000000,42675.000000
9098.000000,15155.000000,5646.000000,42671.000000
9134.000000,15187.000000,5668.000000,42687.000000
9140.000000,15197.000000,5693.000000,42690.000000
9135.000000,15193.000000,5681.000000,42688.000000
9158.000000,15196.000000,5678.000000,42707.000000
9168.000000,15205.000000,5708.000000,42705.000000
9150.000000,15167.000000,5684.000000,42688.000000
9152.000000,15197.000000,5703.000000,42708.000000
9116.000000,15181.000000,5663.000000,42704.000000
9091.000000,15185.000000,5670.000000,42696.000000
9113.000000,15188.000000,5663.000000,42661.000000
9114.000000,15196.000000,5631.000000,42681.000000
9094.000000,15188.000000,5670.000000,42696.000000
9104.000000,15155.000000,5633.000000,42644.000000
9108.000000,15187.000000,5635.000000,42671.000000
9080.000000,15143.000000,5602.000000,42668.000000
9081.000000,15116.000000,5608.000000,42662.000000
9050.000000,15119.000000,5612.000000,42649.000000
9029.000000,15131.000000,5608.000000,42659.000000
9000.000000,15076.000000,5583.000000,42638.000000
9020.000000,15113.000000,5558.000000,42622.000000
8999.000000,15095.000000,5562.000000,42594.000000
8997.000000,15086.000000,5558.000000,42616.000000
8971.000000,15111.000000,5565.000000,42613.000000
8992.000000,15083.000000,5542.000000,42614.000000
8974.000000,15064.000000,5542.000000,42596.000000
8973.000000,15319.000000,5519.000000,42596.000000
8942.000000,15043.000000,5518.000000,42593.000000
8937.000000,15037.000000,5512.000000,42617.000000
8953.000000,15032.000000,5499.000000,42585.000000
8943.000000,15029.000000,5484.000000,42572.000000
8891.000000,15279.000000,5470.000000,42564.000000
8894.000000,15261.000000,5471.000000,42568.000000
8859.000000,14999.000000,5466.000000,42536.000000
8898.000000,14997.000000,5461.000000,42570.000000
8876.000000,15002.000000,5431.000000,42546.000000
8872.000000,14944.000000,5420.000000,42529.000000
9124.000000,14970.000000,5403.000000,42553.000000
8821.000000,14985.000000,5394.000000,42510.000000
8825.000000,14921.000000,5392.000000,42517.000000
8779.000000,14938.000000,5379.000000,42517.000000
8785.000000,14925.000000,5371.000000,42488.000000
8785.000000,14912.000000,5370.000000,42505.000000
8772.000000,14913.000000,5363.000000,42513.000000
8761.000000,14878.000000,5335.000000,42487.000000
8742.000000,14899.000000,5347.000000,42476.000000
8744.000000,14910.000000,5340.000000,42491.000000
8699.000000,14863.000000,5297.000000,42480.000000
8698.000000,14879.000000,5289.000000,42467.000000
8683.000000,14851.000000,5265.000000,42445.000000
8697.000000,15123.000000,5260.000000,42454.000000
8695.000000,14831.000000,5268.000000,42468.000000
8649.000000,14844.000000,5258.000000,42425.000000
8614.000000,14795.000000,5230.000000,42438.000000
8648.000000,14819.000000,5236.000000,42451.000000
8614.000000,14812.000000,5233.000000,42392.000000
8615.000000,14765.000000,5196.000000,42437.000000
8607.000000,14784.000000,5207.000000,42409.000000
8585.000000,14744.000000,5178.000000,42404.000000
8571.000000,14780.000000,5207.000000,42377.000000
8586.000000,14779.000000,5189.000000,42424.000000
8581.000000,14737.000000,5155.000000,42421.000000
8554.000000,14743.000000,5182.000000,42417.000000
8586.000000,14755.000000,5171.000000,42387.000000
8554.000000,14769.000000,5144.000000,42395.000000
8551.000000,14729.000000,5135.000000,42399.000000
8535.000000,14755.000000,5156.000000,42404.000000
8551.000000,14736.000000,5152.000000,42379.000000
8554.000000,14751.000000,5132.000000,42355.000000
8532.000000,14727.000000,5131.000000,42393.000000
8509.000000,14719.000000,5144.000000,42364.000000
8521.000000,14732.000000,5173.000000,42410.000000
8491.000000,14736.000000,5124.000000,42351.000000
8505.000000,14731.000000,5132.000000,42353.000000
8522.000000,14756.000000,5133.000000,42361.000000
8510.000000,14735.000000,5131.000000,42353.000000
8503.000000,14744.000000,5102.000000,42355.000000
8509.000000,14707.000000,5115.000000,42371.000000
8492.000000,14699.000000,5093.000000,42379.000000
8471.000000,14699.000000,5113.000000,42347.000000
8463.000000,14698.000000,5089.000000,42359.000000
8454.000000,14661.000000,5083.000000,42348.000000
8437.000000,14685.000000,5076.000000,42345.000000
8451.000000,14644.000000,5049.000000,42311.000000
8420.000000,14667.000000,5037.000000,42315.000000
8409.000000,14661.000000,5051.000000,42315.000000
8433.000000,14643.000000,5062.000000,42306.000000
8400.000000,14628.000000,5010.000000,42306.000000
8389.000000,14623.000000,4992.000000,42295.000000
8389.000000,14639.000000,4992.000000,42307.000000
8357.000000,14631.000000,4987.000000,42291.000000
8379.000000,14599.000000,5008.000000,42299.000000
8395.000000,14616.000000,4993.000000,42325.000000
8385.000000,14619.000000,5025.000000,42331.000000
8363.000000,14631.000000,5004.000000,42323.000000
8358.000000,14607.000000,4994.000000,42304.000000
8367.000000,14588.000000,4982.000000,42311.000000
8425.000000,14641.000000,5009.000000,42319.000000
8376.000000,14651.000000,5004.000000,42337.000000
8414.000000,14627.000000,5023.000000,42307.000000
8406.000000,14635.000000,5061.000000,42319.000000
8432.000000,14643.000000,5051.000000,42291.000000
8434.000000,14672.000000,5053.000000,42325.000000
8404.000000,14675.000000,5082.000000,42352.000000
8455.000000,14627.000000,5102.000000,42344.000000
8432.000000,14695.000000,5083.000000,42373.000000
8479.000000,14696.000000,5108.000000,42347.000000
8509.000000,14692.000000,5093.000000,42380.000000
8525.000000,14761.000000,5150.000000,42385.000000
8572.000000,14767.000000,5187.000000,42407.000000
8600.000000,14751.000000,5170.000000,42403.000000
8622.000000,14779.000000,5261.000000,42410.000000
8653.000000,14824.000000,5230.000000,42436.000000
8693.000000,15108.000000,5320.000000,42451.000000
8735.000000,14882.000000,5333.000000,42476.000000
8769.000000,14884.000000,5342.000000,42518.000000
8781.000000,14960.000000,5409.000000,42557.000000
8849.000000,14955.000000,5432.000000,42549.000000
8899.000000,15025.000000,5462.000000,42561.000000
8916.000000,15026.000000,5521.000000,42599.000000
8952.000000,15034.000000,5526.000000,42596.000000
9013.000000,15080.000000,5617.000000,42638.000000
9065.000000,15103.000000,5643.000000,42653.000000
9114.000000,15132.000000,5655.000000,42650.000000
9075.000000,15152.000000,5666.000000,42667.000000
9146.000000,15207.000000,5674.000000,42706.000000
9195.000000,15245.000000,5724.000000,42710.000000
9166.000000,15225.000000,5725.000000,42735.000000
9197.000000,15239.000000,5754.000000,42723.000000
9230.000000,15243.000000,5765.000000,42761.000000
9228.000000,15281.000000,5761.000000,42763.000000
9236.000000,15253.000000,5776.000000,42737.000000
9186.000000,15248.000000,5747.000000,42735.000000
9242.000000,15249.000000,5745.000000,42753.000000
9200.000000,15265.000000,5757.000000,42738.000000
9167.000000,15249.000000,5738.000000,42729.000000
9181.000000,15232.000000,5734.000000,42746.000000
9163.000000,15228.000000,5727.000000,42712.000000
9149.000000,15193.000000,5721.000000,42734.000000
9127.000000,15224.000000,5693.000000,42687.000000
9165.000000,15223.000000,5732.000000,42701.000000
9136.000000,15183.000000,5716.000000,42696.000000
9137.000000,15199.000000,5691.000000,42690.000000
9128.000000,15184.000000,5674.000000,42696.000000
9117.000000,15179.000000,5665.000000,42699.000000
9103.000000,15156.000000,5678.000000,42669.000000
9072.000000,15163.000000,5674.000000,42652.000000
9076.000000,15175.000000,5623.000000,42667.000000
9066.000000,15149.000000,5668.000000,42656.000000
9085.000000,15139.000000,5608.000000,42640.000000
9061.000000,15133.000000,5635.000000,42613.000000
9033.000000,15128.000000,5637.000000,42663.000000
9019.000000,15117.000000,5621.000000,42647.000000
8993.000000,15085.000000,5596.000000,42620.000000
8999.000000,15086.000000,5541.000000,42605.000000
9009.000000,15115.000000,5567.000000,42638.000000
8996.000000,15116.000000,5574.000000,42615.000000
8991.000000,15107.000000,5538.000000,42624.000000
8971.000000,15043.000000,5542.000000,42613.000000
8981.000000,15077.000000,5512.000000,42613.000000
8948.000000,15046.000000,5514.000000,42601.000000
8971.000000,15029.000000,5507.000000,42578.000000
8945.000000,15055.000000,5516.000000,42589.000000
8935.000000,15022.000000,5508.000000,42585.000000
8928.000000,15056.000000,5495.000000,42605.000000
8876.000000,15015.000000,5474.000000,42567.000000
8878.000000,14981.000000,5435.000000,42549.000000
8912.000000,14975.000000,5459.000000,42575.000000
8870.000000,15223.000000,5423.000000,42527.000000
8866.000000,14963.000000,5440.000000,42524.000000
8828.000000,14935.000000,5390.000000,42568.000000
8833.000000,14944.000000,5408.000000,42541.000000
8771.000000,14951.000000,5408.000000,42498.000000
8800.000000,14919.000000,5367.000000,42483.000000
8789.000000,14919.000000,5371.000000,42528.000000
8779.000000,14928.000000,5372.000000,42481.000000
8764.000000,14926.000000,5354.000000,42485.000000
8755.000000,15167.000000,5333.000000,42483.000000
8728.000000,14867.000000,5323.000000,42464.000000
8691.000000,14865.000000,5306.000000,42467.000000
8698.000000,14882.000000,5295.000000,42469.000000
8693.000000,14869.000000,5288.000000,42463.000000
8668.000000,14827.000000,5249.000000,42447.000000
8689.000000,14831.000000,5271.000000,42445.000000
8668.000000,14844.000000,5253.000000,42439.000000
8651.000000,14857.000000,5252.000000,42453.000000
8634.000000,14810.000000,5240.000000,42433.000000
8640.000000,14815.000000,5229.000000,42443.000000
8638.000000,14808.000000,5234.000000,42449.000000
8658.000000,14775.000000,5220.000000,42418.000000
8593.000000,14801.000000,5215.000000,42398.000000
8597.000000,14753.000000,5167.000000,42429.000000
8603.000000,14805.000000,5224.000000,42439.000000
8577.000000,14781.000000,5200.000000,42419.000000
8576.000000,14819.000000,5185.000000,42418.000000
8563.000000,14781.000000,5225.000000,42446.000000
8582.000000,14757.000000,5206.000000,42418.000000
8571.000000,14779.000000,5210.000000,42425.000000
8593.000000,14788.000000,5181.000000,42424.000000
8597.000000,14771.000000,5204.000000,42417.000000
8548.000000,14767.000000,5160.000000,42375.000000
8561.000000,14763.000000,5194.000000,42380.000000
8553.000000,14756.000000,5189.000000,42407.000000
8555.000000,14783.000000,5185.000000,42404.000000
8532.000000,14745.000000,5149.000000,42394.000000
8545.000000,14732.000000,5153.000000,42411.000000
8518.000000,14737.000000,5146.000000,42420.000000
8535.000000,14729.000000,5129.000000,42365.000000
8493.000000,14691.000000,5113.000000,42378.000000
8456.000000,14721.000000,5135.000000,42351.000000
8471.000000,14719.000000,5089.000000,42348.000000
8461.000000,14697.000000,5072.000000,42344.000000
8454.000000,14667.000000,5058.000000,42358.000000
8407.000000,14671.000000,5067.000000,42311.000000
8428.000000,14643.000000,5058.000000,42342.000000
8405.000000,14643.000000,5073.000000,42344.000000
8363.000000,14633.000000,5034.000000,42322.000000
8401.000000,14635.000000,5049.000000,42331.000000
8394.000000,14631.000000,5022.000000,42323.000000
8412.000000,14623.000000,5031.000000,42312.000000
8408.000000,14629.000000,5025.000000,42313.000000
8398.000000,14610.000000,5035.000000,42316.000000
8385.000000,14607.000000,5003.000000,42314.000000
8409.000000,14633.000000,5030.000000,42327.000000
8408.000000,14651.000000,5060.000000,42324.000000
8425.000000,14681.000000,5052.000000,42339.000000
8400.000000,14620.000000,5060.000000,42312.000000
8419.000000,14651.000000,5056.000000,42347.000000
8425.000000,14687.000000,5076.000000,42340.000000
8435.000000,14640.000000,5070.000000,42327.000000
8464.000000,14671.000000,5096.000000,42363.000000
8469.000000,14707.000000,5079.000000,42348.000000
8519.000000,14709.000000,5110.000000,42357.000000
8479.000000,14705.000000,5120.000000,42352.000000
8555.000000,14739.000000,5174.000000,42412.000000
8533.000000,14736.000000,5159.000000,42392.000000
8541.000000,14755.000000,5185.000000,42393.000000
8562.000000,14771.000000,5209.000000,42426.000000
8603.000000,14765.000000,5215.000000,42415.000000
8573.000000,14828.000000,5267.000000,42486.000000
8691.000000,14821.000000,5283.000000,42467.000000
8691.000000,14850.000000,5300.000000,42471.000000
8724.000000,14880.000000,5320.000000,42495.000000
8774.000000,14921.000000,5386.000000,42506.000000
8818.000000,14952.000000,5419.000000,42538.000000
8831.000000,14968.000000,5466.000000,42586.000000
8862.000000,15011.000000,5497.000000,42579.000000
8952.000000,15041.000000,5552.000000,42604.000000
9003.000000,15072.000000,5588.000000,42632.000000
9034.000000,15101.000000,5616.000000,42637.000000
9065.000000,15124.000000,5664.000000,42674.000000
9112.000000,15188.000000,5672.000000,42683.000000
9189.000000,15181.000000,5696.000000,42708.000000
9128.000000,15207.000000,5726.000000,42739.000000
9211.000000,15255.000000,5741.000000,42759.000000
9222.000000,15264.000000,5773.000000,42763.000000
9230.000000,15276.000000,5798.000000,42759.000000
9259.000000,15267.000000,5796.000000,42780.000000
9254.000000,15296.000000,5808.000000,42786.000000
9288.000000,15311.000000,5811.000000,42802.000000
9285.000000,15292.000000,5810.000000,42793.000000
9249.000000,15276.000000,5774.000000,42753.000000
9263.000000,15271.000000,5811.000000,42772.000000
9270.000000,15296.000000,5799.000000,42769.000000
9244.000000,15328.000000,5783.000000,42751.000000
9239.000000,15263.000000,5766.000000,42734.000000
9212.000000,15275.000000,5752.000000,42740.000000
9224.000000,15295.000000,5749.000000,42737.000000
9190.000000,15240.000000,5750.000000,42727.000000
9198.000000,15251.000000,5731.000000,42737.000000
9192.000000,15233.000000,5726.000000,42715.000000
9164.000000,15220.000000,5720.000000,42750.000000
9133.000000,15211.000000,5720.000000,42739.000000
9172.000000,15183.000000,5695.000000,42685.000000
9165.000000,15212.000000,5728.000000,42711.000000
9136.000000,15209.000000,5685.000000,42700.000000
9110.000000,15171.000000,5694.000000,42695.000000
9148.000000,15164.000000,5689.000000,42705.000000
9107.000000,15183.000000,5669.000000,42681.000000
9081.000000,15172.000000,5647.000000,42691.000000
9063.000000,15175.000000,5648.000000,42674.000000
9091.000000,15165.000000,5640.000000,42693.000000
9079.000000,15139.000000,5621.000000,42638.000000
9056.000000,15149.000000,5622.000000,42664.000000
9028.000000,15105.000000,5588.000000,42647.000000
9061.000000,15137.000000,5610.000000,42647.000000
9026.000000,15127.000000,5591.000000,42637.000000
8993.000000,15105.000000,5582.000000,42641.000000
9021.000000,15064.000000,5571.000000,42643.000000
8991.000000,15065.000000,5538.000000,42622.000000
8964.000000,15301.000000,5548.000000,42614.000000
8963.000000,15067.000000,5543.000000,42612.000000
8968.000000,15085.000000,5530.000000,42871.000000
8936.000000,15010.000000,5509.000000,42584.000000
8938.000000,15045.000000,5469.000000,42571.000000
8930.000000,15039.000000,5494.000000,42601.000000
8911.000000,15033.000000,5467.000000,42574.000000
8901.000000,15035.000000,5465.000000,42569.000000
8863.000000,14995.000000,5437.000000,42571.000000
8886.000000,15014.000000,5458.000000,42582.000000
8829.000000,14985.000000,5398.000000,42557.000000
8854.000000,14964.000000,5405.000000,42511.000000
8815.000000,14949.000000,5415.000000,42572.000000
8837.000000,14934.000000,5362.000000,42543.000000
8784.000000,14911.000000,5368.000000,42538.000000
8798.000000,14937.000000,5351.000000,42532.000000
8777.000000,15160.000000,5333.000000,42539.000000
8778.000000,14899.000000,5334.000000,42499.000000
8758.000000,14839.000000,5335.000000,42489.000000
8745.000000,14874.000000,5301.000000,42489.000000
8722.000000,14875.000000,5305.000000,42484.000000
8718.000000,14872.000000,5295.000000,42480.000000
8706.000000,14841.000000,5274.000000,42453.000000
8656.000000,14821.000000,5260.000000,42455.000000
8673.000000,14879.000000,5265.000000,42476.000000
8662.000000,14802.000000,5267.000000,42479.000000
8635.000000,14813.000000,5233.000000,42423.000000
8679.000000,14824.000000,5243.000000,42465.000000
8680.000000,14836.000000,5236.000000,42447.000000
8653.000000,14819.000000,5237.000000,42445.000000
8633.000000,14823.000000,5244.000000,42439.000000
8639.000000,14791.000000,5248.000000,42434.000000
8644.000000,14767.000000,5220.000000,42444.000000
8614.000000,14805.000000,5238.000000,42439.000000
8613.000000,14779.000000,5238.000000,42434.000000
8631.000000,14801.000000,5233.000000,42420.000000
8613.000000,14768.000000,5201.000000,42443.000000
8599.000000,14793.000000,5198.000000,42418.000000
8607.000000,14807.000000,5209.000000,42443.000000
8591.000000,14791.000000,5175.000000,42413.000000
8589.000000,14788.000000,5168.000000,42384.000000
8584.000000,14767.000000,5186.000000,42420.000000
8597.000000,14759.000000,5187.000000,42415.000000
8567.000000,14781.000000,5156.000000,42379.000000
8564.000000,14758.000000,5142.000000,42399.000000
8552.000000,14777.000000,5134.000000,42403.000000
8526.000000,14724.000000,5142.000000,42391.000000
8506.000000,14755.000000,5163.000000,42408.000000
8505.000000,14703.000000,5123.000000,42372.000000
8522.000000,14727.000000,5110.000000,42371.000000
8446.000000,14687.000000,5088.000000,42383.000000
8467.000000,14669.000000,5100.000000,42352.000000
8463.000000,14724.000000,5098.000000,42355.000000
8448.000000,14669.000000,5079.000000,42371.000000
8448.000000,14655.000000,5062.000000,42356.000000
8453.000000,14665.000000,5072.000000,42339.000000
8441.000000,14635.000000,5045.000000,42311.000000
8446.000000,14675.000000,5080.000000,42342.000000
8426.000000,14664.000000,5054.000000,42344.000000
8453.000000,14665.000000,5073.000000,42322.000000
8447.000000,14675.000000,5066.000000,42361.000000
8446.000000,14673.000000,5045.000000,42343.000000
8437.000000,14668.000000,5072.000000,42362.000000
8456.000000,14668.000000,5072.000000,42331.000000
8461.000000,14693.000000,5060.000000,42364.000000
8473.000000,14699.000000,5093.000000,42362.000000
8495.000000,14685.000000,5072.000000,42327.000000
8512.000000,14712.000000,5100.000000,42377.000000
8522.000000,14691.000000,5089.000000,42378.000000
8534.000000,14743.000000,5134.000000,42385.000000
8549.000000,14715.000000,5128.000000,42391.000000
8571.000000,14773.000000,5144.000000,42403.000000
8545.000000,14743.000000,5185.000000,42424.000000
8595.000000,14775.000000,5191.000000,42406.000000
8605.000000,14767.000000,5200.000000,42447.000000
8658.000000,14812.000000,5220.000000,42434.000000
8677.000000,14823.000000,5260.000000,42464.000000
8707.000000,14847.000000,5269.000000,42451.000000
8720.000000,15123.000000,5285.000000,42491.000000
8774.000000,15163.000000,5338.000000,42517.000000
8775.000000,14922.000000,5389.000000,42514.000000
8810.000000,14963.000000,5387.000000,42532.000000
8879.000000,14996.000000,5460.000000,42582.000000
8921.000000,14996.000000,5474.000000,42593.000000
8935.000000,15323.000000,5526.000000,42608.000000
8975.000000,15103.000000,5556.000000,42641.000000
9031.000000,15091.000000,5571.000000,42670.000000
9100.000000,15124.000000,5640.000000,42682.000000
9128.000000,15157.000000,5662.000000,42700.000000
9155.000000,15209.000000,5706.000000,42725.000000
9206.000000,15247.000000,5715.000000,42738.000000
9209.000000,15263.000000,5746.000000,42743.000000
9270.000000,15252.000000,5808.000000,42769.000000
9290.000000,15307.000000,5808.000000,42768.000000
9320.000000,15315.000000,5816.000000,42797.000000
9318.000000,15335.000000,5828.000000,42795.000000
9341.000000,15320.000000,5806.000000,42795.000000
9318.000000,15373.000000,5851.000000,42806.000000
9338.000000,15343.000000,5836.000000,42783.000000
9351.000000,15311.000000,5865.000000,42797.000000
9323.000000,15328.000000,5815.000000,42793.000000
9343.000000,15333.000000,5826.000000,42793.000000
9310.000000,15299.000000,5834.000000,42788.000000
9322.000000,15293.000000,5833.000000,42786.000000
9295.000000,15327.000000,5817.000000,42803.000000
9270.000000,15311.000000,5820.000000,42759.000000
9310.000000,15267.000000,5766.000000,42753.000000
9287.000000,15301.000000,5805.000000,42791.000000
9257.000000,15260.000000,5767.000000,42760.000000
9273.000000,15263.000000,5764.000000,42759.000000
9278.000000,15275.000000,5744.000000,42750.000000
9240.000000,15255.000000,5751.000000,42783.000000
9238.000000,15291.000000,5750.000000,42748.000000
9222.000000,15247.000000,5756.000000,42756.000000
9204.000000,15219.000000,5720.000000,42761.000000
9200.000000,15228.000000,5733.000000,42734.000000
9205.000000,15235.000000,5734.000000,42742.000000
9192.000000,15231.000000,5697.000000,42720.000000
9170.000000,15211.000000,5697.000000,42723.000000
9150.000000,15197.000000,5694.000000,42746.000000
9174.000000,15199.000000,5706.000000,42707.000000
9132.000000,15191.000000,5676.000000,42721.000000
9154.000000,15176.000000,5658.000000,42707.000000
9143.000000,15152.000000,5641.000000,42711.000000
9116.000000,15175.000000,5637.000000,42682.000000
9119.000000,15153.000000,5660.000000,42684.000000
9107.000000,15153.000000,5654.000000,42680.000000
9064.000000,15147.000000,5644.000000,42672.000000
9061.000000,15122.000000,5608.000000,42660.000000
9055.000000,15084.000000,5623.000000,42671.000000
9017.000000,15078.000000,5574.000000,42654.000000
9041.000000,15123.000000,5587.000000,42647.000000
9021.000000,15058.000000,5546.000000,42633.000000
9034.000000,15089.000000,5551.000000,42630.000000
9033.000000,15101.000000,5572.000000,42652.000000
9005.000000,15067.000000,5546.000000,42616.000000
9008.000000,15051.000000,5525.000000,42616.000000
8976.000000,15323.000000,5512.000000,42605.000000
8974.000000,15068.000000,5520.000000,42602.000000
8929.000000,15057.000000,5485.000000,42587.000000
8944.000000,15031.000000,5482.000000,42621.000000
8949.000000,15004.000000,5484.000000,42594.000000
8935.000000,14993.000000,5450.000000,42569.000000
8899.000000,14993.000000,5481.000000,42593.000000
8865.000000,14967.000000,5420.000000,42530.000000
8878.000000,15244.000000,5402.000000,42574.000000
8849.000000,14956.000000,5410.000000,42547.000000
8855.000000,14960.000000,5402.000000,42535.000000
8818.000000,14966.000000,5394.000000,42562.000000
8780.000000,14925.000000,5362.000000,42531.000000
8798.000000,14937.000000,5392.000000,42520.000000
8814.000000,14927.000000,5356.000000,42536.000000
8811.000000,14915.000000,5382.000000,42538.000000
8759.000000,14894.000000,5342.000000,42502.000000
8750.000000,14922.000000,5344.000000,42543.000000
8765.000000,14906.000000,5338.000000,42504.000000
8762.000000,14878.000000,5338.000000,42463.000000
8733.000000,14892.000000,5307.000000,42518.000000
8730.000000,14871.000000,5294.000000,42473.000000
8745.000000,14883.000000,5334.000000,42495.000000
8749.000000,14877.000000,5315.000000,42496.000000
8736.000000,14857.000000,5275.000000,42483.000000
8715.000000,14837.000000,5311.000000,42498.000000
8718.000000,14858.000000,5305.000000,42482.000000
8700.000000,14854.000000,5306.000000,42472.000000
8692.000000,14850.000000,5291.000000,42474.000000
8697.000000,14850.000000,5285.000000,42493.000000
8670.000000,14816.000000,5279.000000,42463.000000
8684.000000,14863.000000,5259.000000,42474.000000
8673.000000,14847.000000,5275.000000,42483.000000
8699.000000,14856.000000,5275.000000,42470.000000
8678.000000,14832.000000,5283.000000,42469.000000
8682.000000,14823.000000,5245.000000,42437.000000
8642.000000,14833.000000,5255.000000,42479.000000
8660.000000,14805.000000,5258.000000,42456.000000
8653.000000,14795.000000,5223.000000,42445.000000
8655.000000,14799.000000,5248.000000,42450.000000
8609.000000,14745.000000,5187.000000,42431.000000
8614.000000,14803.000000,5187.000000,42427.000000
8602.000000,14744.000000,5217.000000,42438.000000
8588.000000,14748.000000,5164.000000,42417.000000
8557.000000,14750.000000,5203.000000,42417.000000
8531.000000,14744.000000,5154.000000,42418.000000
8567.000000,14709.000000,5166.000000,42391.000000
8543.000000,14731.000000,5148.000000,42385.000000
8526.000000,14721.000000,5168.000000,42417.000000
8517.000000,14709.000000,5153.000000,42405.000000
8546.000000,14727.000000,5140.000000,42407.000000
8531.000000,14696.000000,5130.000000,42400.000000
8576.000000,14716.000000,5163.000000,42371.000000
8529.000000,14729.000000,5171.000000,42407.000000
8526.000000,14720.000000,5129.000000,42385.000000
8565.000000,14767.000000,5149.000000,42391.000000
8550.000000,14712.000000,5162.000000,42387.000000
8565.000000,14741.000000,5181.000000,42423.000000
8575.000000,14733.000000,5202.000000,42419.000000
8565.000000,14771.000000,5150.000000,42414.000000
8572.000000,14757.000000,5200.000000,42393.000000
8589.000000,14743.000000,5187.000000,42403.000000
8597.000000,14769.000000,5201.000000,42401.000000
8603.000000,14773.000000,5215.000000,42467.000000
8643.000000,14795.000000,5222.000000,42451.000000
8657.000000,14803.000000,5286.000000,42479.000000
8645.000000,14831.000000,5271.000000,42485.000000
8732.000000,14859.000000,5303.000000,42490.000000
8708.000000,14874.000000,5303.000000,42496.000000
8754.000000,14886.000000,5334.000000,42511.000000
8791.000000,14907.000000,5371.000000,42533.000000
8805.000000,14943.000000,5383.000000,42550.000000
8884.000000,14999.000000,5469.000000,42586.000000
8883.000000,15009.000000,5457.000000,42567.000000
8959.000000,15006.000000,5523.000000,42625.000000
8960.000000,15078.000000,5548.000000,42625.000000
9007.000000,15063.000000,5570.000000,42677.000000
9061.000000,15139.000000,5630.000000,42696.000000
9099.000000,15136.000000,5624.000000,42669.000000
9141.000000,15169.000000,5727.000000,42730.000000
9139.000000,15199.000000,5735.000000,42724.000000
9211.000000,15215.000000,5780.000000,42763.000000
9252.000000,15259.000000,5748.000000,42766.000000
9277.000000,15281.000000,5784.000000,42792.000000
9295.000000,15287.000000,5834.000000,42799.000000
9319.000000,15295.000000,5857.000000,42824.000000
9320.000000,15335.000000,5842.000000,42837.000000
9332.000000,15335.000000,5855.000000,42816.000000
9367.000000,15343.000000,5875.000000,42825.000000
9347.000000,15329.000000,5881.000000,42832.000000
9358.000000,15339.000000,5892.000000,42800.000000
9335.000000,15307.000000,5876.000000,42839.000000
9314.000000,15307.000000,5848.000000,42800.000000
9346.000000,15325.000000,5857.000000,42828.000000
9294.000000,15359.000000,5823.000000,42804.000000
9297.000000,15293.000000,5818.000000,42791.000000
9275.000000,15287.000000,5780.000000,42799.000000
9281.000000,15295.000000,5791.000000,42823.000000
9309.000000,15285.000000,5810.000000,42776.000000
9280.000000,15272.000000,5764.000000,42772.000000
9237.000000,15253.000000,5792.000000,42765.000000
9246.000000,15241.000000,5796.000000,42771.000000
9215.000000,15259.000000,5789.000000,42781.000000
9275.000000,15255.000000,5774.000000,42767.000000
9206.000000,15236.000000,5764.000000,42735.000000
9160.000000,15211.000000,5736.000000,42721.000000
9198.000000,15220.000000,5986.000000,42753.000000
9189.000000,15235.000000,5695.000000,42738.000000
9157.000000,15204.000000,5709.000000,42702.000000
9147.000000,15213.000000,5719.000000,42735.000000
9140.000000,15207.000000,5694.000000,42733.000000
9140.000000,15199.000000,5695.000000,42677.000000
9110.000000,15164.000000,5642.000000,42694.000000
9121.000000,15163.000000,5645.000000,42704.000000
9106.000000,15184.000000,5661.000000,42696.000000
9097.000000,15169.000000,5645.000000,42713.000000
9095.000000,15176.000000,5633.000000,42684.000000
9081.000000,15103.000000,5618.000000,42698.000000
9074.000000,15357.000000,5615.000000,42698.000000
9059.000000,15127.000000,5584.000000,42658.000000
9009.000000,15072.000000,5583.000000,42655.000000
9031.000000,15085.000000,5562.000000,42652.000000
9013.000000,15103.000000,5592.000000,42638.000000
8996.000000,15056.000000,5559.000000,42631.000000
8975.000000,15332.000000,5553.000000,42638.000000
8977.000000,15026.000000,5501.000000,42602.000000
8980.000000,15027.000000,5536.000000,42638.000000
8943.000000,14981.000000,5507.000000,42611.000000
8906.000000,15027.000000,5484.000000,42576.000000
8912.000000,15293.000000,5492.000000,42618.000000
8942.000000,14990.000000,5492.000000,42600.000000
8869.000000,15248.000000,5455.000000,42609.000000
8872.000000,14995.000000,5441.000000,42584.000000
8880.000000,15004.000000,5445.000000,42579.000000
8832.000000,14947.000000,5409.000000,42559.000000
8822.000000,14932.000000,5446.000000,42582.000000
8807.000000,14938.000000,5397.000000,42545.000000
8775.000000,14902.000000,5358.000000,42547.000000
8780.000000,14903.000000,5382.000000,42536.000000
8790.000000,14927.000000,5366.000000,42535.000000
8754.000000,14890.000000,5388.000000,42503.000000
8782.000000,14912.000000,5322.000000,42514.000000
8736.000000,14897.000000,5328.000000,42497.000000
8763.000000,14856.000000,5328.000000,42499.000000
8737.000000,14882.000000,5306.000000,42511.000000
8703.000000,14843.000000,5306.000000,42498.000000
8728.000000,15124.000000,5290.000000,42483.000000
8703.000000,14827.000000,5283.000000,42490.000000
8733.000000,14859.000000,5280.000000,42505.000000
8661.000000,14855.000000,5313.000000,42499.000000
8681.000000,14832.000000,5246.000000,42493.000000
8692.000000,14816.000000,5253.000000,42465.000000
8701.000000,14815.000000,5265.000000,42468.000000
8691.000000,14825.000000,5265.000000,42479.000000
8638.000000,14791.000000,5265.000000,42454.000000
8638.000000,14815.000000,5244.000000,42457.000000
8664.000000,14820.000000,5278.000000,42476.000000
8669.000000,14799.000000,5275.000000,42436.000000
8632.000000,14807.000000,5227.000000,42469.000000
8671.000000,14799.000000,5269.000000,42477.000000
8655.000000,14792.000000,5238.000000,42451.000000
8635.000000,14789.000000,5225.000000,42495.000000
8640.000000,14793.000000,5235.000000,42443.000000
8648.000000,14768.000000,5211.000000,42449.000000
8651.000000,14767.000000,5192.000000,42456.000000
8605.000000,14776.000000,5236.000000,42447.000000
8603.000000,14791.000000,5218.000000,42439.000000
8629.000000,14753.000000,5187.000000,42449.000000
8604.000000,14741.000000,5163.000000,42392.000000
8564.000000,14760.000000,5182.000000,42431.000000
8592.000000,14737.000000,5159.000000,42436.000000
8559.000000,14731.000000,5169.000000,42402.000000
8506.000000,14728.000000,5122.000000,42422.000000
8537.000000,14699.000000,5107.000000,42398.000000
8545.000000,14717.000000,5129.000000,42376.000000
8515.000000,14693.000000,5081.000000,42381.000000
8537.000000,14723.000000,5142.000000,42396.000000
8521.000000,14715.000000,5106.000000,42389.000000
8541.000000,14687.000000,5105.000000,42387.000000
8518.000000,14708.000000,5092.000000,42391.000000
8547.000000,14703.000000,5122.000000,42376.000000
8547.000000,14712.000000,5130.000000,42371.000000
8556.000000,14696.000000,5093.000000,42369.000000
8541.000000,14711.000000,5129.000000,42407.000000
8548.000000,14711.000000,5137.000000,42406.000000
8572.000000,14736.000000,5150.000000,42431.000000
8593.000000,14724.000000,5194.000000,42427.000000
8570.000000,14735.000000,5154.000000,42400.000000
8593.000000,14766.000000,5187.000000,42425.000000
8576.000000,14753.000000,5167.000000,42411.000000
8627.000000,14793.000000,5190.000000,42425.000000
8654.000000,14787.000000,5187.000000,42442.000000
8674.000000,14820.000000,5243.000000,42447.000000
8661.000000,14807.000000,5231.000000,42431.000000
8700.000000,14848.000000,5259.000000,42456.000000
8713.000000,15119.000000,5280.000000,42497.000000
8768.000000,14845.000000,5317.000000,42471.000000
8786.000000,14876.000000,5334.000000,42529.000000
8783.000000,14914.000000,5381.000000,42532.000000
8802.000000,14956.000000,5382.000000,42554.000000
8837.000000,15219.000000,5433.000000,42569.000000
8886.000000,14970.000000,5435.000000,42574.000000
8942.000000,14993.000000,5489.000000,42617.000000
8993.000000,15019.000000,5514.000000,42625.000000
9035.000000,15063.000000,5561.000000,42908.000000
9033.000000,15091.000000,5604.000000,42701.000000
9110.000000,15137.000000,5633.000000,42681.000000
9159.000000,15172.000000,5685.000000,42743.000000
9191.000000,15204.000000,5752.000000,42745.000000
9225.000000,15217.000000,5767.000000,42795.000000
9247.000000,15267.000000,5771.000000,42799.000000
9343.000000,15311.000000,5824.000000,42812.000000
9352.000000,15313.000000,5828.000000,42796.000000
9403.000000,15333.000000,5874.000000,42860.000000
9388.000000,15345.000000,5910.000000,42860.000000
9449.000000,15383.000000,5934.000000,42842.000000
9434.000000,15384.000000,5910.000000,42876.000000
9431.000000,15394.000000,5909.000000,42843.000000
9451.000000,15412.000000,5960.000000,42867.000000
9451.000000,15390.000000,5903.000000,42888.000000
9453.000000,15394.000000,5929.000000,42840.000000
9453.000000,15428.000000,5911.000000,42847.000000
9451.000000,15407.000000,5943.000000,42884.000000
9433.000000,15391.000000,5892.000000,42853.000000
9444.000000,15386.000000,5905.000000,42848.000000
9425.000000,15374.000000,5882.000000,42867.000000
9423.000000,15340.000000,5866.000000,42845.000000
9403.000000,15369.000000,5896.000000,42847.000000
9367.000000,15377.000000,5866.000000,42852.000000
9407.000000,15332.000000,5852.000000,42832.000000
9367.000000,15335.000000,5858.000000,42823.000000
9368.000000,15355.000000,5844.000000,42811.000000
9355.000000,15340.000000,5851.000000,42827.000000
9340.000000,15352.000000,5794.000000,42835.000000
9365.000000,15331.000000,5796.000000,42801.000000
9330.000000,15292.000000,5830.000000,42784.000000
9327.000000,15303.000000,5826.000000,42807.000000
9326.000000,15299.000000,5807.000000,42784.000000
9316.000000,15309.000000,5814.000000,42803.000000
9270.000000,15273.000000,5732.000000,42765.000000
9286.000000,15273.000000,5769.000000,42772.000000
9276.000000,15268.000000,5776.000000,42771.000000
9254.000000,15240.000000,5725.000000,42745.000000
9249.000000,15240.000000,5734.000000,42767.000000
9239.000000,15251.000000,5728.000000,42744.000000
9213.000000,15219.000000,5710.000000,42780.000000
9199.000000,15217.000000,5709.000000,42714.000000
9230.000000,15259.000000,5745.000000,42749.000000
9179.000000,15204.000000,5697.000000,42730.000000
9183.000000,15184.000000,5651.000000,42702.000000
9154.000000,15191.000000,5675.000000,42734.000000
9140.000000,15163.000000,5656.000000,42693.000000
9144.000000,15188.000000,5694.000000,42692.000000
9144.000000,15173.000000,5630.000000,42694.000000
9162.000000,15145.000000,5643.000000,42693.000000
9123.000000,15155.000000,5657.000000,42709.000000
9101.000000,15091.000000,5614.000000,42652.000000
9104.000000,15103.000000,5587.000000,42678.000000
9122.000000,15103.000000,5602.000000,42682.000000
9050.000000,15103.000000,5607.000000,42681.000000
9080.000000,15101.000000,5564.000000,42644.000000
9062.000000,15091.000000,5591.000000,42660.000000
9003.000000,15092.000000,5548.000000,42637.000000
8998.000000,15073.000000,5542.000000,42627.000000
9091.000000,15062.000000,5538.000000,42650.000000
9005.000000,15033.000000,5509.000000,42625.000000
8951.000000,15044.000000,5523.000000,42610.000000
8967.000000,15008.000000,5509.000000,42630.000000
8965.000000,15026.000000,5495.000000,42596.000000
8959.000000,15016.000000,5476.000000,42605.000000
8912.000000,15008.000000,5469.000000,42605.000000
8934.000000,14968.000000,5447.000000,42569.000000
8903.000000,15245.000000,5450.000000,42586.000000
8899.000000,14974.000000,5442.000000,42569.000000
8881.000000,14977.000000,5435.000000,42546.000000
8861.000000,14939.000000,5432.000000,42548.000000
8860.000000,14965.000000,5418.000000,42573.000000
8868.000000,14965.000000,5411.000000,42580.000000
8849.000000,14969.000000,5388.000000,42561.000000
8852.000000,14958.000000,5386.000000,42563.000000
8853.000000,14941.000000,5383.000000,42535.000000
8850.000000,14942.000000,5405.000000,42571.000000
8800.000000,14901.000000,5379.000000,42543.000000
8851.000000,14927.000000,5364.000000,42550.000000
8827.000000,14946.000000,5370.000000,42547.000000
8826.000000,14920.000000,5355.000000,42526.000000
8835.000000,14911.000000,5365.000000,42548.000000
8842.000000,14928.000000,5383.000000,42561.000000
9060.000000,14909.000000,5351.000000,42535.000000
8796.000000,14890.000000,5380.000000,42524.000000
8783.000000,14911.000000,5361.000000,42546.000000
8798.000000,14918.000000,5360.000000,42525.000000
8815.000000,15179.000000,5342.000000,42532.000000
8793.000000,14908.000000,5351.000000,42526.000000
8740.000000,14894.000000,5327.000000,42532.000000
8761.000000,14877.000000,5325.000000,42476.000000
8802.000000,14892.000000,5342.000000,42550.000000
8771.000000,14894.000000,5308.000000,42488.000000
8712.000000,14839.000000,5319.000000,42480.000000
8739.000000,14832.000000,5314.000000,42502.000000
8756.000000,14863.000000,5309.000000,42506.000000
8736.000000,14807.000000,5291.000000,42483.000000
8729.000000,14811.000000,5270.000000,42503.000000
8691.000000,14839.000000,5256.000000,42500.000000
8693.000000,14809.000000,5251.000000,42485.000000
8706.000000,14837.000000,5229.000000,42480.000000
8719.000000,14827.000000,5251.000000,42471.000000
8696.000000,14817.000000,5253.000000,42471.000000
8678.000000,14807.000000,5233.000000,42480.000000
8706.000000,14815.000000,5224.000000,42476.000000
8692.000000,14831.000000,5249.000000,42447.000000
8664.000000,14824.000000,5230.000000,42452.000000
8686.000000,14792.000000,5257.000000,42432.000000
8706.000000,14799.000000,5269.000000,42463.000000
8720.000000,14821.000000,5280.000000,42491.000000
8742.000000,14880.000000,5279.000000,42490.000000
8762.000000,14817.000000,5282.000000,42495.000000
8726.000000,14839.000000,5276.000000,42493.000000
8726.000000,14854.000000,5285.000000,42497.000000
8773.000000,14823.000000,5289.000000,42506.000000
8806.000000,14865.000000,5336.000000,42519.000000
8800.000000,14870.000000,5315.000000,42514.000000
8814.000000,14906.000000,5371.000000,42506.000000
8811.000000,14888.000000,5365.000000,42541.000000
8846.000000,14935.000000,5375.000000,42560.000000
8898.000000,15239.000000,5402.000000,42578.000000
8890.000000,14963.000000,5427.000000,42582.000000
8915.000000,15004.000000,5470.000000,42585.000000
8963.000000,14997.000000,5513.000000,42619.000000
8996.000000,15297.000000,5532.000000,42642.000000
9046.000000,15019.000000,5533.000000,42634.000000
9090.000000,15072.000000,5549.000000,42684.000000
9088.000000,15099.000000,5640.000000,42670.000000
9147.000000,15123.000000,5655.000000,42697.000000
9181.000000,15175.000000,5684.000000,42732.000000
9185.000000,15185.000000,5733.000000,42733.000000
9274.000000,15251.000000,5799.000000,42771.000000
9269.000000,15279.000000,5770.000000,42784.000000
9352.000000,15303.000000,5849.000000,42795.000000
9388.000000,15331.000000,5897.000000,42840.000000
9456.000000,15355.000000,5920.000000,42885.000000
9469.000000,15396.000000,5951.000000,42896.000000
9499.000000,15442.000000,5971.000000,42911.000000
9517.000000,15428.000000,6020.000000,42951.000000
9553.000000,15435.000000,6009.000000,42924.000000
9577.000000,15489.000000,6057.000000,42952.000000
9595.000000,15499.000000,6059.000000,42986.000000
9608.000000,15487.000000,6085.000000,42959.000000
9619.000000,15500.000000,6079.000000,42974.000000
9605.000000,15505.000000,6067.000000,42967.000000
9617.000000,15498.000000,6066.000000,42952.000000
9623.000000,15503.000000,6040.000000,42964.000000
9587.000000,15476.000000,6054.000000,42934.000000
9579.000000,15483.000000,6047.000000,42976.000000
9581.000000,15504.000000,6062.000000,42948.000000
9599.000000,15458.000000,6027.000000,42952.000000
9580.000000,15464.000000,6031.000000,42940.000000
9558.000000,15445.000000,6017.000000,42923.000000
9570.000000,15470.000000,6022.000000,42943.000000
9539.000000,15453.000000,6020.000000,42917.000000
9542.000000,15429.000000,5966.000000,42921.000000
9528.000000,15446.000000,5991.000000,42908.000000
9511.000000,15413.000000,5979.000000,42931.000000
9481.000000,15431.000000,5950.000000,42886.000000
9506.000000,15429.000000,5982.000000,42894.000000
9491.000000,15405.000000,5969.000000,42868.000000
9460.000000,15391.000000,5938.000000,42874.000000
9472.000000,15380.000000,5958.000000,42886.000000
9463.000000,15395.000000,5912.000000,42842.000000
9448.000000,15377.000000,5914.000000,42856.000000
9472.000000,15373.000000,5929.000000,42883.000000
9443.000000,15397.000000,5902.000000,42913.000000
9444.000000,15343.000000,5895.000000,42873.000000
9401.000000,15347.000000,5875.000000,42893.000000
9389.000000,15346.000000,5863.000000,42849.000000
9405.000000,15363.000000,5895.000000,42833.000000
9394.000000,15355.000000,5839.000000,42855.000000
9365.000000,15299.000000,5838.000000,42818.000000
9369.000000,15343.000000,5820.000000,42845.000000
9365.000000,15339.000000,5849.000000,42839.000000
9332.000000,15299.000000,5835.000000,42817.000000
9351.000000,15287.000000,5810.000000,42821.000000
9310.000000,15297.000000,5808.000000,42821.000000
9320.000000,15273.000000,5801.000000,42784.000000
9314.000000,15296.000000,5804.000000,42796.000000
9320.000000,15260.000000,5799.000000,42807.000000
9261.000000,15252.000000,5758.000000,42789.000000
9246.000000,15255.000000,5791.000000,42793.000000
9241.000000,15238.000000,5747.000000,42761.000000
9260.000000,15255.000000,5771.000000,42759.000000
9259.000000,15216.000000,5726.000000,42755.000000
9245.000000,15227.000000,5714.000000,42746.000000
9241.000000,15203.000000,5747.000000,42755.000000
9194.000000,15236.000000,5690.000000,42756.000000
9177.000000,15207.000000,5713.000000,42742.000000
9196.000000,15207.000000,5669.000000,42707.000000
9174.000000,15189.000000,5680.000000,42705.000000
9145.000000,15149.000000,5653.000000,42702.000000
9142.000000,15127.000000,5680.000000,42745.000000
9151.000000,15173.000000,5649.000000,42691.000000
9105.000000,15120.000000,5648.000000,42671.000000
9133.000000,15165.000000,5630.000000,42689.000000
9110.000000,15141.000000,5625.000000,42710.000000
9078.000000,15343.000000,5609.000000,42675.000000
9119.000000,15149.000000,5634.000000,42688.000000
9068.000000,15117.000000,5592.000000,42687.000000
9094.000000,15083.000000,5590.000000,42655.000000
9026.000000,15128.000000,5588.000000,42670.000000
9069.000000,15086.000000,5572.000000,42663.000000
9082.000000,15069.000000,5579.000000,42646.000000
9073.000000,15069.000000,5585.000000,42661.000000
9067.000000,15115.000000,5604.000000,42669.000000
9049.000000,15345.000000,5577.000000,42913.000000
9055.000000,15078.000000,5598.000000,42665.000000
9030.000000,15083.000000,5568.000000,42648.000000
9053.000000,15042.000000,5594.000000,42665.000000
9055.000000,15063.000000,5570.000000,42642.000000
9003.000000,15052.000000,5544.000000,42637.000000
9025.000000,15062.000000,5584.000000,42648.000000
9010.000000,15067.000000,5551.000000,42665.000000
9045.000000,15083.000000,5534.000000,42662.000000
9021.000000,15072.000000,5539.000000,42653.000000
8981.000000,15067.000000,5516.000000,42642.000000
8987.000000,15046.000000,5532.000000,42638.000000
9025.000000,15279.000000,5531.000000,42638.000000
8981.000000,15022.000000,5505.000000,42647.000000
8980.000000,15010.000000,5525.000000,42595.000000
8957.000000,15044.000000,5530.000000,42650.000000
8957.000000,15007.000000,5481.000000,42597.000000
8972.000000,15007.000000,5504.000000,42624.000000
8933.000000,15006.000000,5483.000000,42584.000000
9177.000000,14961.000000,5457.000000,42612.000000
8892.000000,14981.000000,5425.000000,42586.000000
8890.000000,14987.000000,5457.000000,42582.000000
8907.000000,15224.000000,5466.000000,42560.000000
8877.000000,14964.000000,5432.000000,42573.000000
8882.000000,14934.000000,5432.000000,42577.000000
8885.000000,14919.000000,5420.000000,42576.000000
8879.000000,14934.000000,5427.000000,42570.000000
8882.000000,14949.000000,5421.000000,42551.000000
8895.000000,14939.000000,5432.000000,42550.000000
8869.000000,15224.000000,5418.000000,42573.000000
8899.000000,15176.000000,5414.000000,42572.000000
8908.000000,14955.000000,5447.000000,42556.000000
8839.000000,14955.000000,5447.000000,42578.000000
8876.000000,14965.000000,5423.000000,42574.000000
8909.000000,14983.000000,5453.000000,42593.000000
8906.000000,14985.000000,5464.000000,42581.000000
8964.000000,14936.000000,5454.000000,42588.000000
8936.000000,15010.000000,5477.000000,42603.000000
8962.000000,15010.000000,5499.000000,42607.000000
8966.000000,14989.000000,5522.000000,42626.000000
8962.000000,15048.000000,5490.000000,42648.000000
8988.000000,15033.000000,5541.000000,42635.000000
9009.000000,15056.000000,5562.000000,42657.000000
9055.000000,15081.000000,5587.000000,42675.000000
9067.000000,15085.000000,5635.000000,42701.000000
9068.000000,15105.000000,5633.000000,42697.000000
9127.000000,15121.000000,5625.000000,42696.000000
9159.000000,15163.000000,5718.000000,42722.000000
9181.000000,15175.000000,5710.000000,42767.000000
9241.000000,15199.000000,5766.000000,42767.000000
9252.000000,15221.000000,5802.000000,42801.000000
9305.000000,15260.000000,5834.000000,42811.000000
9342.000000,15299.000000,5866.000000,42819.000000
9412.000000,15341.000000,5903.000000,42861.000000
9402.000000,15343.000000,5931.000000,42864.000000
9446.000000,15399.000000,5980.000000,42880.000000
9519.000000,15435.000000,6009.000000,42915.000000
9509.000000,15421.000000,6001.000000,42935.000000
9570.000000,15489.000000,6057.000000,42963.000000
9571.000000,15486.000000,6095.000000,42984.000000
9620.000000,15487.000000,6075.000000,42952.000000
9613.000000,15522.000000,6116.000000,42991.000000
9625.000000,15498.000000,6131.000000,42979.000000
9650.000000,15530.000000,6114.000000,42993.000000
9639.000000,15550.000000,6115.000000,42999.000000
9654.000000,15528.000000,6105.000000,42974.000000
9690.000000,15563.000000,6150.000000,42991.000000
9647.000000,15544.000000,6142.000000,43019.000000
9675.000000,15500.000000,6132.000000,42988.000000
9629.000000,15532.000000,6129.000000,42980.000000
9631.000000,15550.000000,6143.000000,43005.000000
9636.000000,15506.000000,6085.000000,42964.000000
9613.000000,15476.000000,6124.000000,42969.000000
9619.000000,15491.000000,6083.000000,42975.000000
9605.000000,15487.000000,6112.000000,42977.000000
9623.000000,15458.000000,6054.000000,42922.000000
9563.000000,15456.000000,6067.000000,42955.000000
9607.000000,15494.000000,6072.000000,42964.000000
9550.000000,15476.000000,6046.000000,42933.000000
9599.000000,15461.000000,6032.000000,42930.000000
9577.000000,15485.000000,6048.000000,42926.000000
9572.000000,15428.000000,6023.000000,42937.000000
9528.000000,15463.000000,6021.000000,42911.000000
9518.000000,15448.000000,6003.000000,42936.000000
9523.000000,15450.000000,6015.000000,42931.000000
9480.000000,15421.000000,5969.000000,42919.000000
9524.000000,15432.000000,5969.000000,42911.000000
9464.000000,15416.000000,5964.000000,42908.000000
9488.000000,15431.000000,5977.000000,42910.000000
9491.000000,15423.000000,5971.000000,42909.000000
9471.000000,15389.000000,5942.000000,42868.000000
9453.000000,15399.000000,5933.000000,42867.000000
9446.000000,15361.000000,5929.000000,42880.000000
9415.000000,15388.000000,5931.000000,42867.000000
9432.000000,15361.000000,5921.000000,42893.000000
9392.000000,15339.000000,5888.000000,42864.000000
9410.000000,15341.000000,5934.000000,42855.000000
9424.000000,15380.000000,5879.000000,42849.000000
9363.000000,15343.000000,5881.000000,42839.000000
9356.000000,15329.000000,5872.000000,42828.000000
9347.000000,15308.000000,5875.000000,42824.000000
9313.000000,15324.000000,5859.000000,42831.000000
9351.000000,15337.000000,5864.000000,42799.000000
9338.000000,15287.000000,5822.000000,42787.000000
9329.000000,15289.000000,5830.000000,42809.000000
9291.000000,15271.000000,5809.000000,42809.000000
9298.000000,15252.000000,5817.000000,42795.000000
9290.000000,15257.000000,5777.000000,42789.000000
9255.000000,15239.000000,5789.000000,42787.000000
9289.000000,15229.000000,5783.000000,42771.000000
9229.000000,15235.000000,5756.000000,42772.000000
9207.000000,15219.000000,5739.000000,42741.000000
9237.000000,15197.000000,5741.000000,42763.000000
9219.000000,15211.000000,5763.000000,42739.000000
9202.000000,15169.000000,5721.000000,42763.000000
9195.000000,15195.000000,5700.000000,42738.000000
9161.000000,15149.000000,5740.000000,42755.000000
9155.000000,15155.000000,5702.000000,42711.000000
9182.000000,15169.000000,5686.000000,42730.000000
9148.000000,15163.000000,5669.000000,42725.000000
9155.000000,15147.000000,5679.000000,42718.000000
9149.000000,15135.000000,5649.000000,42685.000000
9141.000000,15168.000000,5660.000000,42700.000000
9124.000000,15093.000000,5647.000000,42681.000000
9108.000000,15145.000000,5644.000000,42669.000000
9103.000000,15107.000000,5641.000000,42705.000000
9105.000000,15108.000000,5635.000000,42659.000000
9108.000000,15131.000000,5612.000000,42705.000000
9069.000000,15089.000000,5602.000000,42675.000000
9081.000000,15077.000000,5609.000000,42673.000000
9039.000000,15332.000000,5594.000000,42682.000000
9068.000000,15103.000000,5598.000000,42676.000000
9075.000000,15090.000000,5594.000000,42700.000000
9052.000000,15084.000000,5591.000000,42666.000000
9048.000000,15073.000000,5593.000000,42685.000000
9067.000000,15083.000000,5606.000000,42694.000000
9031.000000,15083.000000,5586.000000,42680.000000
9057.000000,15082.000000,5579.000000,42651.000000
9049.000000,15343.000000,5610.000000,42691.000000
9040.000000,15319.000000,5575.000000,42670.000000
9018.000000,15088.000000,5585.000000,42644.000000
9020.000000,15053.000000,5556.000000,42659.000000
8985.000000,15018.000000,5547.000000,42637.000000
9004.000000,15295.000000,5551.000000,42652.000000
8977.000000,15067.000000,5528.000000,42644.000000
8961.000000,15014.000000,5520.000000,42628.000000
8969.000000,15276.000000,5532.000000,42629.000000
8976.000000,14992.000000,5498.000000,42599.000000
8976.000000,15010.000000,5498.000000,42621.000000
8937.000000,14952.000000,5491.000000,42593.000000
8921.000000,14969.000000,5470.000000,42610.000000
8940.000000,15017.000000,5485.000000,42611.000000
8910.000000,14991.000000,5496.000000,42623.000000
8904.000000,14985.000000,5475.000000,42597.000000
8943.000000,14967.000000,5475.000000,42598.000000
8915.000000,14963.000000,5427.000000,42613.000000
9158.000000,14939.000000,5464.000000,42589.000000
8955.000000,14998.000000,5459.000000,42604.000000
8930.000000,14996.000000,5470.000000,42577.000000
8928.000000,14967.000000,5473.000000,42592.000000
8906.000000,14982.000000,5468.000000,42621.000000
8944.000000,14984.000000,5478.000000,42614.000000
8982.000000,14998.000000,5511.000000,42593.000000
8964.000000,14983.000000,5475.000000,42632.000000
8968.000000,15010.000000,5527.000000,42619.000000
9000.000000,14989.000000,5532.000000,42607.000000
9014.000000,15023.000000,5540.000000,42636.000000
9011.000000,15056.000000,5545.000000,42649.000000
9046.000000,15040.000000,5618.000000,42661.000000
9044.000000,15043.000000,5584.000000,42659.000000
9074.000000,15077.000000,5600.000000,42679.000000
9091.000000,15095.000000,5645.000000,42683.000000
9122.000000,15136.000000,5658.000000,42712.000000
9172.000000,15140.000000,5680.000000,42717.000000
9172.000000,15169.000000,5721.000000,42721.000000
9202.000000,15157.000000,5720.000000,42756.000000
9207.000000,15192.000000,5743.000000,42748.000000
9283.000000,15219.000000,5798.000000,42807.000000
9282.000000,15264.000000,5801.000000,42803.000000
9353.000000,15284.000000,5861.000000,42828.000000
9376.000000,15315.000000,5914.000000,42876.000000
9413.000000,15356.000000,5932.000000,42865.000000
9466.000000,15385.000000,5986.000000,42891.000000
9501.000000,15415.000000,5999.000000,42911.000000
9523.000000,15448.000000,6051.000000,42955.000000
9607.000000,15466.000000,6068.000000,42943.000000
9610.000000,15507.000000,6115.000000,42969.000000
9659.000000,15501.000000,6133.000000,43037.000000
9720.000000,15549.000000,6170.000000,43033.000000
9714.000000,15580.000000,6188.000000,43050.000000
9753.000000,15598.000000,6219.000000,43095.000000
9772.000000,15612.000000,6235.000000,43029.000000
9775.000000,15639.000000,6249.000000,43101.000000
9783.000000,15637.000000,6290.000000,43073.000000
9806.000000,15641.000000,6263.000000,43063.000000
9796.000000,15613.000000,6271.000000,43079.000000
9760.000000,15605.000000,6259.000000,43075.000000
9787.000000,15641.000000,6254.000000,43072.000000
9770.000000,15621.000000,6241.000000,43076.000000
9769.000000,15615.000000,6209.000000,43071.000000
9799.000000,15616.000000,6214.000000,43070.000000
9750.000000,15605.000000,6209.000000,43057.000000
9734.000000,15574.000000,6215.000000,43034.000000
9754.000000,15597.000000,6196.000000,43041.000000
9732.000000,15576.000000,6188.000000,43026.000000
9731.000000,15602.000000,6186.000000,43028.000000
9711.000000,15556.000000,6199.000000,43051.000000
9698.000000,15566.000000,6192.000000,43005.000000
9670.000000,15542.000000,6171.000000,42999.000000
9694.000000,15550.000000,6132.000000,42994.000000
9670.000000,15539.000000,6147.000000,42995.000000
9682.000000,15511.000000,6113.000000,42980.000000
9674.000000,15526.000000,6155.000000,43009.000000
9659.000000,15551.000000,6125.000000,42984.000000
9622.000000,15527.000000,6102.000000,42947.000000
9625.000000,15496.000000,6090.000000,42976.000000
9614.000000,15503.000000,6109.000000,43011.000000
9643.000000,15494.000000,6092.000000,42956.000000
9641.000000,15474.000000,6095.000000,42951.000000
9630.000000,15477.000000,6077.000000,42939.000000
9625.000000,15451.000000,6055.000000,42987.000000
9601.000000,15466.000000,6052.000000,42938.000000
9566.000000,15460.000000,6059.000000,42949.000000
9580.000000,15469.000000,6072.000000,42943.000000
9585.000000,15414.000000,6038.000000,42936.000000
9542.000000,15407.000000,6031.000000,42956.000000
9542.000000,15416.000000,6029.000000,42920.000000
9511.000000,15454.000000,6035.000000,42937.000000
9520.000000,15419.000000,5992.000000,42911.000000
9523.000000,15404.000000,6005.000000,42911.000000
9494.000000,15386.000000,5978.000000,42891.000000
9497.000000,15407.000000,5977.000000,42911.000000
9442.000000,15339.000000,5967.000000,42897.000000
9483.000000,15373.000000,5940.000000,42869.000000
9430.000000,15388.000000,5929.000000,42864.000000
9443.000000,15381.000000,5952.000000,42880.000000
9455.000000,15339.000000,5926.000000,42891.000000
9409.000000,15336.000000,5891.000000,42861.000000
9396.000000,15324.000000,5890.000000,42855.000000
9388.000000,15339.000000,5880.000000,42847.000000
9353.000000,15324.000000,5889.000000,42817.000000
9381.000000,15277.000000,5863.000000,42813.000000
9359.000000,15279.000000,5866.000000,42851.000000
9358.000000,15304.000000,5817.000000,42827.000000
9342.000000,15260.000000,5838.000000,42805.000000
9315.000000,15260.000000,5850.000000,42807.000000
9312.000000,15227.000000,5804.000000,42792.000000
9305.000000,15263.000000,5821.000000,42839.000000
9277.000000,15244.000000,5784.000000,42800.000000
9263.000000,15244.000000,5782.000000,42780.000000
9255.000000,15223.000000,5783.000000,42771.000000
9275.000000,15205.000000,5741.000000,42765.000000
9244.000000,15203.000000,5746.000000,42779.000000
9234.000000,15227.000000,5722.000000,42753.000000
9226.000000,15185.000000,5736.000000,42746.000000
9223.000000,15177.000000,5738.000000,42777.000000
9231.000000,15218.000000,5767.000000,42762.000000
9212.000000,15172.000000,5713.000000,42775.000000
9195.000000,15173.000000,5741.000000,42766.000000
9203.000000,15149.000000,5699.000000,42735.000000
9193.000000,15141.000000,5681.000000,42983.000000
9186.000000,15183.000000,5709.000000,42744.000000
9171.000000,15163.000000,5713.000000,42741.000000
9190.000000,15157.000000,5717.000000,42720.000000
9200.000000,15175.000000,5689.000000,42776.000000
9192.000000,15133.000000,5689.000000,42740.000000
9162.000000,15172.000000,5694.000000,42723.000000
9136.000000,15141.000000,5667.000000,42706.000000
9156.000000,15131.000000,5673.000000,42732.000000
9151.000000,15127.000000,5662.000000,42745.000000
9154.000000,15115.000000,5655.000000,42731.000000
9124.000000,15116.000000,5646.000000,42710.000000
9140.000000,15133.000000,5657.000000,42742.000000
9094.000000,15115.000000,5652.000000,42705.000000
9119.000000,15111.000000,5620.000000,42690.000000
9098.000000,15111.000000,5647.000000,42707.000000
9077.000000,15054.000000,5609.000000,42701.000000
9096.000000,15054.000000,5597.000000,42648.000000
9053.000000,15070.000000,5570.000000,42693.000000
9056.000000,15045.000000,5591.000000,42658.000000
9046.000000,15094.000000,5567.000000,42665.000000
9078.000000,15056.000000,5564.000000,42657.000000
9030.000000,15032.000000,5566.000000,42631.000000
9029.000000,15014.000000,5549.000000,42637.000000
9012.000000,15051.000000,5539.000000,42656.000000
9010.000000,15022.000000,5557.000000,42645.000000
9024.000000,15031.000000,5539.000000,42654.000000
9031.000000,15056.000000,5533.000000,42621.000000
8991.000000,15054.000000,5556.000000,42633.000000
9034.000000,15049.000000,5562.000000,42652.000000
9005.000000,15060.000000,5521.000000,42657.000000
9041.000000,15034.000000,5579.000000,42662.000000
9078.000000,15051.000000,5570.000000,42637.000000
9032.000000,15075.000000,5563.000000,42691.000000
9046.000000,15063.000000,5582.000000,42675.000000
9087.000000,15071.000000,5574.000000,42665.000000
9103.000000,15116.000000,5611.000000,42687.000000
9107.000000,15088.000000,5625.000000,42675.000000
9098.000000,15087.000000,5618.000000,42753.000000
9117.000000,15096.000000,5635.000000,42723.000000
9152.000000,15127.000000,5670.000000,42727.000000
9178.000000,15129.000000,5661.000000,42732.000000
9211.000000,15171.000000,5710.000000,42738.000000
9193.000000,15181.000000,5737.000000,42751.000000
9244.000000,15179.000000,5776.000000,42815.000000
9266.000000,15207.000000,5781.000000,42810.000000
9315.000000,15259.000000,5807.000000,42780.000000
9348.000000,15307.000000,5860.000000,42848.000000
9359.000000,15289.000000,5874.000000,42832.000000
9407.000000,15333.000000,5903.000000,42871.000000
9432.000000,15355.000000,5944.000000,42892.000000
9479.000000,15421.000000,6005.000000,42901.000000
9522.000000,15434.000000,6012.000000,42967.000000
9564.000000,15426.000000,6036.000000,42962.000000
9632.000000,15501.000000,6125.000000,42981.000000
9651.000000,15533.000000,6129.000000,43012.000000
9683.000000,15535.000000,6153.000000,43000.000000
9715.000000,15550.000000,6175.000000,43044.000000
9760.000000,15594.000000,6215.000000,43069.000000
9822.000000,15616.000000,6270.000000,43101.000000
9844.000000,15650.000000,6290.000000,43100.000000
9844.000000,15629.000000,6346.000000,43113.000000
9878.000000,15679.000000,6321.000000,43120.000000
9881.000000,15703.000000,6351.000000,43115.000000
9893.000000,15693.000000,6340.000000,43147.000000
9907.000000,15679.000000,6343.000000,43124.000000
9914.000000,15703.000000,6345.000000,43161.000000
9908.000000,15707.000000,6370.000000,43158.000000
9891.000000,15721.000000,6376.000000,43150.000000
9879.000000,15679.000000,6340.000000,43125.000000
9892.000000,15695.000000,6330.000000,43170.000000
9890.000000,15717.000000,6324.000000,43137.000000
9878.000000,15669.000000,6325.000000,43116.000000
9858.000000,15631.000000,6295.000000,43109.000000
9866.000000,15677.000000,6318.000000,43122.000000
9827.000000,15633.000000,6268.000000,43096.000000
9875.000000,15633.000000,6285.000000,43111.000000
9819.000000,15643.000000,6283.000000,43119.000000
9810.000000,15619.000000,6277.000000,43066.000000
9795.000000,15641.000000,6262.000000,43064.000000
9821.000000,15629.000000,6260.000000,43099.000000
9805.000000,15610.000000,6241.000000,43071.000000
9794.000000,15576.000000,6213.000000,43042.000000
9779.000000,15603.000000,6240.000000,43069.000000
9743.000000,15578.000000,6188.000000,43051.000000
9763.000000,15598.000000,6228.000000,43059.000000
9745.000000,15578.000000,6186.000000,43062.000000
9765.000000,15580.000000,6201.000000,43039.000000
9713.000000,15569.000000,6205.000000,43029.000000
9727.000000,15583.000000,6164.000000,43040.000000
9709.000000,15570.000000,6124.000000,43025.000000
9712.000000,15525.000000,6183.000000,43032.000000
9690.000000,15527.000000,6144.000000,42995.000000
9678.000000,15561.000000,6184.000000,43017.000000
9687.000000,15535.000000,6127.000000,42996.000000
9671.000000,15506.000000,6114.000000,42995.000000
9659.000000,15506.000000,6080.000000,42999.000000
9648.000000,15503.000000,6129.000000,42997.000000
9622.000000,15466.000000,6068.000000,42977.000000
9626.000000,15522.000000,6101.000000,42993.000000
9583.000000,15474.000000,6064.000000,42994.000000
9579.000000,15479.000000,6077.000000,42955.000000
9597.000000,15446.000000,6073.000000,42955.000000
9580.000000,15423.000000,6037.000000,42920.000000
9587.000000,15461.000000,6075.000000,42951.000000
9527.000000,15413.000000,5977.000000,42964.000000
9523.000000,15430.000000,6009.000000,42927.000000
9539.000000,15432.000000,5983.000000,42929.000000
9499.000000,15401.000000,5995.000000,42919.000000
9507.000000,15399.000000,5963.000000,42921.000000
9522.000000,15409.000000,5973.000000,42912.000000
9496.000000,15381.000000,5947.000000,42924.000000
9453.000000,15364.000000,5948.000000,42871.000000
9477.000000,15355.000000,5940.000000,42867.000000
9446.000000,15361.000000,5913.000000,42871.000000
9479.000000,15351.000000,5889.000000,42871.000000
9413.000000,15315.000000,5904.000000,42879.000000
9396.000000,15315.000000,5880.000000,42861.000000
9404.000000,15316.000000,5884.000000,42844.000000
9358.000000,15300.000000,5820.000000,42828.000000
9396.000000,15316.000000,5876.000000,42832.000000
9354.000000,15307.000000,5882.000000,42831.000000
9367.000000,15283.000000,5830.000000,42840.000000
9335.000000,15267.000000,5829.000000,42803.000000
9387.000000,15300.000000,5852.000000,42843.000000
9360.000000,15261.000000,5851.000000,42877.000000
9310.000000,15255.000000,5814.000000,42796.000000
9378.000000,15291.000000,5818.000000,42799.000000
9298.000000,15253.000000,5783.000000,42824.000000
9325.000000,15239.000000,5799.000000,42811.000000
9301.000000,15255.000000,5808.000000,42780.000000
9313.000000,15236.000000,5771.000000,42784.000000
9305.000000,15215.000000,5776.000000,42792.000000
9298.000000,15268.000000,5758.000000,42831.000000
9302.000000,15249.000000,5787.000000,42819.000000
9291.000000,15235.000000,5792.000000,42777.000000
9278.000000,15232.000000,5774.000000,42799.000000
9298.000000,15264.000000,5774.000000,42791.000000
9257.000000,15239.000000,5779.000000,42804.000000
9277.000000,15235.000000,5761.000000,42793.000000
9272.000000,15205.000000,5745.000000,42819.000000
9267.000000,15208.000000,5753.000000,42792.000000
9249.000000,15217.000000,5755.000000,42793.000000
9237.000000,15179.000000,5740.000000,42762.000000
9268.000000,15195.000000,5756.000000,42759.000000
9227.000000,15197.000000,5717.000000,42795.000000
9213.000000,15167.000000,5716.000000,42740.000000
9179.000000,15191.000000,5731.000000,42760.000000
9192.000000,15180.000000,5692.000000,42739.000000
9171.000000,15187.000000,5683.000000,42757.000000
9169.000000,15137.000000,5657.000000,42723.000000
9164.000000,15137.000000,5642.000000,42741.000000
9136.000000,15123.000000,5646.000000,42713.000000
9156.000000,15136.000000,5604.000000,42735.000000
9132.000000,15103.000000,5637.000000,42740.000000
9132.000000,15102.000000,5655.000000,42725.000000
9132.000000,15101.000000,5671.000000,42707.000000
9121.000000,15091.000000,5608.000000,42678.000000
9107.000000,15115.000000,5637.000000,42727.000000
9119.000000,15359.000000,5637.000000,42721.000000
9158.000000,15120.000000,5644.000000,42725.000000
9147.000000,15131.000000,5654.000000,42704.000000
9161.000000,15141.000000,5686.000000,42724.000000
9175.000000,15119.000000,5676.000000,42742.000000
9186.000000,15153.000000,5688.000000,42744.000000
9173.000000,15145.000000,5676.000000,42777.000000
9232.000000,15164.000000,5692.000000,42772.000000
9225.000000,15179.000000,5727.000000,42788.000000
9233.000000,15171.000000,5716.000000,42805.000000
9262.000000,15211.000000,5747.000000,42780.000000
