660nm,730nm,850nm,940nm
20666.000000,19428.000000,10212.000000,45835.000000
20658.000000,19419.000000,10177.000000,45849.000000
20656.000000,19179.000000,10209.000000,45853.000000
20602.000000,19166.000000,10178.000000,45833.000000
20642.000000,19188.000000,10196.000000,45840.000000
20615.000000,19172.000000,10173.000000,45824.000000
20644.000000,19133.000000,10177.000000,45827.000000
20586.000000,19163.000000,10171.000000,45778.000000
20600.000000,19149.000000,10131.000000,45790.000000
20599.000000,19132.000000,10123.000000,45779.000000
20631.000000,19129.000000,10125.000000,45798.000000
20580.000000,19110.000000,10135.000000,45812.000000
20578.000000,19379.000000,10118.000000,45786.000000
20588.000000,19125.000000,10106.000000,45786.000000
20590.000000,19351.000000,10136.000000,45776.000000
20549.000000,19124.000000,10109.000000,45799.000000
20543.000000,19103.000000,10105.000000,45772.000000
20580.000000,19360.000000,10106.000000,45775.000000
20549.000000,19339.000000,10087.000000,45734.000000
20555.000000,19335.000000,10075.000000,45772.000000
20543.000000,19088.000000,10069.000000,45778.000000
20551.000000,19097.000000,10077.000000,45786.000000
20556.000000,19340.000000,10092.000000,45768.000000
20541.000000,19059.000000,10075.000000,45743.000000
20533.000000,19341.000000,10084.000000,45746.000000
20520.000000,19045.000000,10038.000000,45726.000000
20538.000000,19307.000000,10060.000000,45756.000000
20498.000000,19075.000000,10026.000000,45770.000000
20483.000000,19300.000000,10038.000000,45735.000000
20481.000000,19048.000000,9994.000000,45728.000000
20449.000000,19048.000000,9985.000000,45712.000000
20467.000000,19239.000000,9986.000000,45713.000000
20485.000000,19287.000000,9991.000000,45727.000000
20447.000000,19035.000000,9969.000000,45723.000000
20416.000000,18983.000000,9951.000000,45685.000000
20420.000000,18968.000000,9907.000000,45694.000000
20467.000000,19247.000000,9910.000000,45661.000000
20382.000000,18927.000000,9891.000000,45681.000000
20365.000000,18948.000000,9876.000000,45685.000000
20352.000000,18939.000000,9869.000000,45655.000000
20364.000000,18925.000000,9848.000000,45619.000000
20297.000000,18897.000000,9835.000000,45619.000000
20313.000000,18921.000000,9827.000000,45599.000000
20290.000000,18899.000000,9817.000000,45636.000000
20300.000000,18919.000000,9833.000000,45637.000000
20276.000000,18879.000000,9825.000000,45625.000000
20301.000000,18907.000000,9770.000000,45581.000000
20287.000000,18871.000000,9809.000000,45607.000000
20302.000000,18901.000000,9800.000000,45615.000000
20272.000000,18899.000000,9773.000000,45604.000000
20287.000000,18887.000000,9806.000000,45591.000000
20291.000000,18869.000000,9773.000000,45633.000000
20300.000000,18903.000000,9808.000000,45615.000000
20321.000000,18913.000000,9768.000000,45641.000000
20314.000000,18888.000000,9802.000000,45612.000000
20331.000000,18900.000000,9806.000000,45637.000000
20310.000000,18908.000000,9799.000000,45612.000000
20325.000000,18943.000000,9825.000000,45646.000000
20360.000000,18937.000000,9828.000000,45625.000000
20385.000000,18967.000000,9859.000000,45657.000000
20395.000000,18960.000000,9874.000000,45668.000000
20383.000000,19203.000000,9894.000000,45675.000000
20395.000000,18975.000000,9902.000000,45669.000000
20438.000000,19248.000000,9923.000000,45697.000000
20489.000000,19261.000000,9973.000000,45688.000000
20456.000000,19280.000000,9947.000000,45732.000000
20500.000000,19287.000000,9997.000000,45749.000000
20522.000000,19084.000000,10056.000000,45750.000000
20569.000000,19104.000000,10074.000000,45735.000000
20576.000000,19141.000000,10090.000000,45797.000000
20628.000000,19163.000000,10117.000000,45802.000000
20665.000000,19443.000000,10179.000000,45835.000000
20726.000000,19240.000000,10233.000000,45871.000000
20797.000000,19252.000000,10292.000000,45879.000000
20813.000000,19283.000000,10344.000000,45919.000000
20881.000000,19339.000000,10410.000000,45956.000000
20935.000000,19371.000000,10480.000000,45981.000000
20980.000000,19395.000000,10501.000000,46011.000000
21009.000000,19439.000000,10559.000000,46043.000000
21052.000000,19473.000000,10599.000000,46085.000000
21068.000000,19501.000000,10641.000000,46099.000000
21355.000000,19490.000000,10667.000000,46114.000000
21143.000000,19520.000000,10674.000000,46119.000000
21154.000000,19523.000000,10669.000000,46158.000000
21141.000000,19539.000000,10687.000000,46107.000000
21126.000000,19542.000000,10680.000000,46125.000000
21154.000000,19505.000000,10685.000000,46092.000000
21141.000000,19527.000000,10714.000000,46121.000000
21166.000000,19513.000000,10667.000000,46121.000000
21130.000000,19513.000000,10659.000000,46106.000000
21108.000000,19511.000000,10660.000000,46108.000000
21089.000000,19531.000000,10657.000000,46108.000000
21090.000000,19506.000000,10641.000000,46075.000000
21093.000000,19476.000000,10649.000000,46095.000000
21081.000000,19487.000000,10683.000000,46085.000000
21074.000000,19453.000000,10608.000000,46083.000000
21039.000000,19472.000000,10621.000000,46051.000000
21057.000000,19472.000000,10626.000000,46093.000000
21319.000000,19453.000000,10596.000000,46076.000000
21024.000000,19476.000000,10617.000000,46072.000000
21055.000000,19411.000000,10607.000000,46076.000000
21056.000000,19453.000000,10589.000000,46041.000000
21034.000000,19459.000000,10589.000000,46020.000000
21021.000000,19443.000000,10596.000000,46059.000000
21033.000000,19435.000000,10563.000000,46065.000000
21019.000000,19421.000000,10560.000000,46075.000000
21025.000000,19451.000000,10570.000000,46063.000000
21020.000000,19439.000000,10559.000000,46056.000000
20991.000000,19419.000000,10528.000000,46039.000000
20963.000000,19436.000000,10513.000000,46033.000000
20957.000000,19408.000000,10521.000000,46043.000000
20956.000000,19409.000000,10537.000000,46033.000000
21255.000000,19403.000000,10524.000000,46040.000000
20993.000000,19403.000000,10552.000000,46061.000000
20979.000000,19407.000000,10545.000000,46026.000000
20975.000000,19384.000000,10520.000000,46025.000000
20961.000000,19384.000000,10539.000000,46015.000000
20959.000000,19379.000000,10508.000000,46017.000000
20969.000000,19375.000000,10499.000000,46008.000000
20929.000000,19379.000000,10459.000000,46019.000000
20959.000000,19352.000000,10492.000000,46000.000000
20896.000000,19401.000000,10501.000000,46015.000000
20906.000000,19371.000000,10466.000000,46013.000000
20939.000000,19389.000000,10464.000000,46011.000000
20915.000000,19340.000000,10452.000000,45985.000000
20898.000000,19341.000000,10482.000000,45977.000000
20900.000000,19344.000000,10441.000000,45984.000000
20910.000000,19347.000000,10418.000000,45972.000000
20921.000000,19328.000000,10410.000000,45972.000000
20888.000000,19347.000000,10441.000000,45975.000000
20867.000000,19325.000000,10392.000000,45984.000000
20863.000000,19331.000000,10392.000000,45949.000000
20854.000000,19315.000000,10386.000000,45939.000000
20868.000000,19317.000000,10384.000000,45944.000000
20849.000000,19311.000000,10398.000000,45944.000000
20841.000000,19307.000000,10388.000000,45951.000000
20830.000000,19293.000000,10391.000000,45947.000000
20837.000000,19323.000000,10341.000000,45937.000000
20825.000000,19291.000000,10357.000000,45927.000000
20805.000000,19299.000000,10318.000000,45939.000000
20785.000000,19249.000000,10362.000000,45929.000000
20828.000000,19267.000000,10302.000000,45927.000000
20818.000000,19283.000000,10301.000000,45893.000000
20824.000000,19247.000000,10300.000000,45863.000000
20775.000000,19273.000000,10283.000000,45895.000000
20751.000000,19261.000000,10308.000000,45899.000000
20774.000000,19215.000000,10307.000000,45881.000000
20735.000000,19215.000000,10299.000000,45869.000000
20791.000000,19215.000000,10276.000000,45877.000000
20772.000000,19232.000000,10265.000000,45880.000000
20764.000000,19203.000000,10234.000000,45901.000000
20767.000000,19199.000000,10244.000000,45891.000000
20733.000000,19179.000000,10239.000000,45864.000000
20711.000000,19216.000000,10249.000000,45880.000000
20713.000000,19213.000000,10246.000000,45864.000000
20706.000000,19204.000000,10209.000000,45859.000000
20686.000000,19196.000000,10185.000000,45852.000000
20719.000000,19184.000000,10217.000000,45837.000000
20686.000000,19405.000000,10172.000000,45861.000000
20700.000000,19427.000000,10194.000000,45859.000000
20696.000000,19144.000000,10211.000000,45843.000000
20696.000000,19154.000000,10176.000000,45863.000000
20688.000000,19429.000000,10153.000000,45839.000000
20649.000000,19407.000000,10151.000000,45809.000000
20669.000000,19172.000000,10142.000000,45814.000000
20653.000000,19415.000000,10169.000000,45817.000000
20678.000000,19146.000000,10161.000000,45833.000000
20636.000000,19157.000000,10151.000000,45825.000000
20624.000000,19156.000000,10133.000000,45802.000000
20643.000000,19128.000000,10133.000000,45839.000000
20582.000000,19125.000000,10133.000000,45807.000000
20611.000000,19106.000000,10100.000000,45777.000000
20599.000000,19416.000000,10133.000000,45816.000000
20631.000000,19146.000000,10104.000000,45807.000000
20615.000000,19127.000000,10088.000000,45773.000000
20600.000000,19067.000000,10081.000000,45756.000000
20594.000000,19363.000000,10058.000000,45810.000000
20592.000000,19079.000000,10052.000000,45770.000000
20575.000000,19087.000000,10023.000000,45763.000000
20560.000000,19119.000000,10049.000000,45764.000000
20527.000000,19072.000000,10038.000000,45762.000000
20537.000000,19305.000000,10039.000000,45746.000000
20510.000000,19033.000000,9980.000000,45732.000000
20490.000000,19023.000000,9968.000000,45718.000000
20506.000000,19049.000000,9951.000000,45725.000000
20463.000000,19272.000000,9928.000000,45724.000000
20459.000000,19255.000000,9947.000000,45692.000000
20444.000000,18973.000000,9900.000000,45669.000000
20421.000000,19231.000000,9901.000000,45695.000000
20429.000000,18970.000000,9906.000000,45664.000000
20423.000000,18949.000000,9885.000000,45673.000000
20412.000000,18977.000000,9894.000000,45687.000000
20391.000000,18957.000000,9840.000000,45682.000000
20423.000000,18964.000000,9846.000000,45646.000000
20378.000000,18924.000000,9843.000000,45645.000000
20389.000000,18927.000000,9833.000000,45657.000000
20406.000000,18933.000000,9833.000000,45665.000000
20410.000000,19215.000000,9856.000000,45630.000000
20403.000000,19219.000000,9837.000000,45681.000000
20431.000000,18970.000000,9852.000000,45647.000000
20373.000000,18945.000000,9871.000000,45649.000000
20406.000000,18955.000000,9852.000000,45639.000000
20431.000000,18959.000000,9845.000000,45675.000000
20422.000000,18968.000000,9890.000000,45669.000000
20427.000000,18984.000000,9879.000000,45664.000000
20424.000000,18987.000000,9882.000000,45659.000000
20450.000000,19239.000000,9912.000000,45687.000000
20459.000000,18971.000000,9896.000000,45677.000000
20461.000000,19257.000000,9949.000000,45679.000000
20513.000000,19018.000000,9956.000000,45711.000000
20528.000000,19315.000000,9958.000000,45733.000000
20557.000000,19057.000000,10012.000000,45715.000000
20568.000000,19033.000000,10014.000000,45743.000000
20622.000000,19074.000000,10071.000000,45791.000000
20650.000000,19153.000000,10082.000000,45799.000000
20683.000000,19162.000000,10129.000000,45803.000000
20709.000000,19175.000000,10185.000000,45839.000000
20729.000000,19207.000000,10185.000000,45861.000000
20753.000000,19203.000000,10251.000000,45871.000000
20775.000000,19287.000000,10247.000000,45883.000000
20836.000000,19295.000000,10318.000000,45947.000000
20888.000000,19291.000000,10379.000000,45961.000000
20941.000000,19385.000000,10448.000000,45999.000000
20994.000000,19420.000000,10479.000000,46035.000000
21052.000000,19433.000000,10497.000000,46035.000000
21089.000000,19480.000000,10584.000000,46079.000000
21124.000000,19487.000000,10607.000000,46097.000000
21186.000000,19549.000000,10696.000000,46128.000000
21207.000000,19548.000000,10726.000000,46135.000000
21214.000000,19575.000000,10777.000000,46170.000000
21235.000000,19581.000000,10764.000000,46174.000000
21240.000000,19579.000000,10745.000000,46181.000000
21236.000000,19570.000000,10725.000000,46181.000000
21251.000000,19567.000000,10758.000000,46179.000000
21468.000000,19560.000000,10707.000000,46186.000000
21208.000000,19542.000000,10743.000000,46136.000000
21224.000000,19561.000000,10744.000000,46171.000000
21192.000000,19557.000000,10710.000000,46147.000000
21209.000000,19511.000000,10711.000000,46138.000000
21447.000000,19540.000000,10729.000000,46134.000000
21214.000000,19532.000000,10708.000000,46157.000000
21157.000000,19516.000000,10706.000000,46132.000000
21181.000000,19546.000000,10696.000000,46137.000000
21148.000000,19533.000000,10645.000000,46113.000000
21151.000000,19519.000000,10656.000000,46119.000000
21137.000000,19492.000000,10677.000000,46110.000000
21114.000000,19509.000000,10689.000000,46125.000000
21111.000000,19504.000000,10662.000000,46098.000000
21119.000000,19507.000000,10657.000000,46116.000000
21142.000000,19510.000000,10642.000000,46106.000000
21170.000000,19521.000000,10651.000000,46112.000000
21130.000000,19464.000000,10630.000000,46081.000000
21133.000000,19467.000000,10619.000000,46098.000000
21145.000000,19495.000000,10628.000000,46097.000000
21136.000000,19505.000000,10593.000000,46102.000000
21124.000000,19488.000000,10628.000000,46111.000000
21143.000000,19507.000000,10659.000000,46107.000000
21136.000000,19489.000000,10593.000000,46089.000000
21121.000000,19501.000000,10618.000000,46086.000000
21084.000000,19476.000000,10583.000000,46076.000000
21098.000000,19472.000000,10559.000000,46081.000000
21079.000000,19458.000000,10596.000000,46092.000000
21065.000000,19473.000000,10588.000000,46087.000000
21077.000000,19448.000000,10613.000000,46097.000000
21086.000000,19451.000000,10571.000000,46071.000000
21069.000000,19447.000000,10585.000000,46036.000000
21039.000000,19435.000000,10552.000000,46059.000000
21052.000000,19452.000000,10546.000000,46051.000000
21009.000000,19443.000000,10560.000000,46048.000000
21034.000000,19432.000000,10535.000000,46051.000000
21042.000000,19439.000000,10519.000000,46052.000000
20999.000000,19423.000000,10501.000000,46068.000000
21037.000000,19405.000000,10522.000000,46045.000000
21046.000000,19415.000000,10510.000000,46076.000000
21001.000000,19428.000000,10517.000000,46052.000000
21039.000000,19415.000000,10518.000000,46038.000000
20993.000000,19407.000000,10516.000000,46037.000000
20972.000000,19375.000000,10482.000000,46035.000000
20973.000000,19407.000000,10488.000000,46003.000000
21013.000000,19411.000000,10468.000000,46000.000000
20976.000000,19372.000000,10467.000000,46015.000000
20960.000000,19403.000000,10466.000000,46023.000000
20966.000000,19368.000000,10463.000000,45983.000000
20988.000000,19393.000000,10463.000000,45981.000000
20966.000000,19360.000000,10438.000000,46025.000000
20951.000000,19363.000000,10454.000000,45999.000000
20921.000000,19339.000000,10425.000000,46011.000000
20923.000000,19353.000000,10400.000000,45992.000000
20925.000000,19349.000000,10412.000000,45975.000000
20942.000000,19323.000000,10427.000000,45967.000000
20917.000000,19349.000000,10383.000000,45975.000000
20915.000000,19325.000000,10395.000000,45969.000000
20898.000000,19339.000000,10377.000000,45950.000000
20888.000000,19307.000000,10382.000000,45965.000000
20872.000000,19329.000000,10365.000000,45931.000000
20876.000000,19279.000000,10362.000000,45935.000000
20877.000000,19267.000000,10355.000000,45952.000000
20851.000000,19327.000000,10371.000000,45972.000000
20831.000000,19283.000000,10331.000000,45940.000000
20870.000000,19263.000000,10337.000000,45928.000000
20844.000000,19260.000000,10317.000000,45909.000000
20832.000000,19232.000000,10301.000000,45911.000000
20808.000000,19263.000000,10272.000000,45913.000000
20809.000000,19248.000000,10307.000000,45895.000000
20815.000000,19237.000000,10289.000000,45932.000000
20777.000000,19256.000000,10270.000000,45907.000000
20771.000000,19239.000000,10253.000000,45907.000000
20765.000000,19241.000000,10288.000000,45892.000000
20777.000000,19205.000000,10243.000000,45880.000000
20763.000000,19213.000000,10239.000000,45893.000000
20777.000000,19225.000000,10282.000000,45904.000000
20750.000000,19225.000000,10250.000000,45900.000000
20775.000000,19211.000000,10251.000000,45881.000000
20715.000000,19217.000000,10224.000000,45855.000000
20750.000000,19205.000000,10231.000000,45885.000000
20747.000000,19229.000000,10239.000000,45875.000000
20754.000000,19196.000000,10191.000000,45872.000000
20733.000000,19443.000000,10188.000000,45855.000000
20724.000000,19192.000000,10215.000000,45852.000000
20684.000000,19181.000000,10217.000000,45863.000000
20702.000000,19199.000000,10203.000000,45863.000000
20711.000000,19187.000000,10176.000000,45856.000000
20732.000000,19160.000000,10176.000000,45867.000000
20700.000000,19431.000000,10161.000000,45859.000000
20680.000000,19428.000000,10145.000000,45824.000000
20664.000000,19195.000000,10152.000000,45828.000000
20648.000000,19403.000000,10125.000000,45787.000000
20651.000000,19119.000000,10111.000000,45800.000000
20620.000000,19156.000000,10086.000000,45796.000000
20651.000000,19377.000000,10101.000000,45824.000000
20617.000000,19132.000000,10082.000000,45808.000000
20603.000000,19103.000000,10067.000000,45801.000000
20588.000000,19323.000000,10067.000000,45766.000000
20555.000000,19051.000000,10019.000000,45750.000000
20540.000000,19311.000000,10009.000000,45757.000000
20555.000000,19316.000000,9983.000000,45722.000000
20524.000000,19011.000000,10004.000000,45687.000000
20509.000000,19267.000000,9976.000000,45766.000000
20506.000000,19267.000000,9990.000000,45730.000000
20451.000000,19034.000000,9951.000000,45728.000000
20511.000000,19012.000000,9952.000000,45718.000000
20481.000000,19260.000000,9933.000000,45708.000000
20521.000000,19260.000000,9925.000000,45733.000000
20511.000000,19007.000000,9909.000000,45729.000000
20494.000000,19023.000000,9925.000000,45704.000000
20517.000000,19247.000000,9936.000000,45705.000000
20504.000000,19263.000000,9931.000000,45721.000000
20498.000000,19292.000000,9937.000000,45704.000000
20504.000000,19045.000000,9953.000000,45742.000000
20546.000000,19048.000000,9942.000000,45728.000000
20542.000000,19057.000000,9958.000000,45726.000000
20527.000000,19031.000000,9998.000000,45729.000000
20551.000000,19037.000000,9974.000000,45741.000000
20537.000000,19323.000000,10003.000000,45748.000000
20544.000000,19010.000000,9989.000000,45745.000000
20596.000000,19061.000000,10031.000000,45761.000000
20607.000000,19072.000000,10073.000000,45771.000000
20627.000000,19108.000000,10076.000000,45792.000000
20628.000000,19123.000000,10073.000000,45809.000000
20659.000000,19156.000000,10117.000000,45798.000000
20689.000000,19125.000000,10158.000000,45831.000000
20716.000000,19163.000000,10199.000000,45832.000000
20743.000000,19196.000000,10222.000000,45872.000000
20769.000000,19219.000000,10233.000000,45893.000000
20827.000000,19261.000000,10251.000000,45893.000000
20865.000000,19265.000000,10273.000000,45943.000000
20874.000000,19295.000000,10336.000000,45940.000000
20898.000000,19335.000000,10361.000000,45980.000000
21000.000000,19371.000000,10450.000000,46032.000000
21026.000000,19373.000000,10473.000000,46024.000000
21082.000000,19440.000000,10549.000000,46066.000000
21124.000000,19455.000000,10588.000000,46059.000000
21162.000000,19522.000000,10642.000000,46084.000000
21214.000000,19568.000000,10692.000000,46122.000000
21257.000000,19581.000000,10769.000000,46193.000000
21315.000000,19631.000000,10799.000000,46219.000000
21380.000000,19644.000000,10844.000000,46205.000000
21362.000000,19654.000000,10868.000000,46232.000000
21392.000000,19688.000000,10909.000000,46219.000000
21396.000000,19667.000000,10882.000000,46268.000000
21388.000000,19720.000000,10896.000000,46264.000000
21379.000000,19685.000000,10881.000000,46277.000000
21427.000000,19686.000000,10914.000000,46277.000000
21412.000000,19699.000000,10909.000000,46251.000000
21389.000000,19673.000000,10918.000000,46255.000000
21404.000000,19651.000000,10879.000000,46239.000000
21344.000000,19618.000000,10901.000000,46231.000000
21359.000000,19655.000000,10892.000000,46241.000000
21339.000000,19673.000000,10875.000000,46243.000000
21355.000000,19671.000000,10866.000000,46250.000000
21331.000000,19644.000000,10840.000000,46195.000000
21352.000000,19637.000000,10826.000000,46209.000000
21338.000000,19613.000000,10830.000000,46213.000000
21321.000000,19642.000000,10836.000000,46228.000000
21336.000000,19617.000000,10804.000000,46209.000000
21309.000000,19616.000000,10837.000000,46221.000000
21292.000000,19639.000000,10823.000000,46197.000000
21314.000000,19579.000000,10822.000000,46204.000000
21295.000000,19580.000000,10828.000000,46186.000000
21295.000000,19622.000000,10777.000000,46205.000000
21290.000000,19611.000000,11056.000000,46191.000000
21293.000000,19597.000000,10801.000000,46217.000000
21295.000000,19621.000000,10800.000000,46195.000000
21253.000000,19595.000000,10765.000000,46200.000000
21266.000000,19568.000000,10767.000000,46182.000000
21268.000000,19565.000000,10770.000000,46196.000000
21278.000000,19594.000000,10772.000000,46202.000000
21289.000000,19571.000000,10749.000000,46178.000000
21287.000000,19567.000000,10780.000000,46146.000000
21282.000000,19579.000000,10727.000000,46170.000000
21251.000000,19587.000000,10739.000000,46171.000000
21280.000000,19551.000000,10773.000000,46171.000000
21261.000000,19538.000000,10760.000000,46137.000000
21275.000000,19559.000000,10744.000000,46181.000000
21263.000000,19557.000000,10724.000000,46189.000000
21225.000000,19571.000000,10737.000000,46181.000000
21220.000000,19563.000000,10708.000000,46151.000000
21209.000000,19562.000000,10703.000000,46168.000000
21217.000000,19531.000000,10705.000000,46165.000000
21184.000000,19511.000000,10692.000000,46153.000000
21166.000000,19537.000000,10679.000000,46127.000000
21181.000000,19547.000000,10670.000000,46159.000000
21206.000000,19549.000000,10706.000000,46132.000000
21197.000000,19544.000000,10670.000000,46129.000000
21207.000000,19512.000000,10655.000000,46131.000000
21181.000000,19488.000000,10643.000000,46135.000000
21163.000000,19490.000000,10636.000000,46114.000000
21174.000000,19503.000000,10651.000000,46101.000000
21185.000000,19499.000000,10642.000000,46132.000000
21162.000000,19505.000000,10621.000000,46138.000000
21124.000000,19488.000000,10614.000000,46097.000000
21395.000000,19487.000000,10599.000000,46102.000000
21111.000000,19473.000000,10586.000000,46071.000000
21121.000000,19451.000000,10603.000000,46084.000000
21130.000000,19474.000000,10610.000000,46112.000000
21139.000000,19467.000000,10579.000000,46093.000000
21130.000000,19451.000000,10590.000000,46087.000000
21115.000000,19461.000000,10579.000000,46077.000000
21099.000000,19439.000000,10558.000000,46073.000000
21094.000000,19460.000000,10568.000000,46073.000000
21087.000000,19419.000000,10560.000000,46063.000000
21107.000000,19435.000000,10583.000000,46079.000000
21077.000000,19432.000000,10535.000000,46068.000000
21056.000000,19423.000000,10555.000000,46042.000000
21058.000000,19407.000000,10512.000000,46031.000000
21027.000000,19413.000000,10516.000000,46033.000000
21035.000000,19373.000000,10510.000000,46027.000000
21047.000000,19403.000000,10498.000000,46023.000000
21022.000000,19383.000000,10479.000000,46045.000000
21045.000000,19369.000000,10465.000000,46043.000000
21045.000000,19416.000000,10487.000000,46005.000000
21055.000000,19395.000000,10465.000000,46017.000000
20996.000000,19357.000000,10451.000000,46032.000000
20999.000000,19367.000000,10429.000000,45992.000000
20992.000000,19367.000000,10457.000000,46036.000000
20977.000000,19348.000000,10453.000000,46031.000000
20991.000000,19356.000000,10453.000000,46008.000000
20991.000000,19331.000000,10428.000000,46007.000000
20953.000000,19327.000000,10418.000000,46003.000000
20951.000000,19328.000000,10382.000000,45989.000000
20966.000000,19336.000000,10408.000000,46005.000000
20949.000000,19308.000000,10387.000000,45995.000000
20941.000000,19315.000000,10387.000000,45978.000000
20925.000000,19343.000000,10369.000000,45945.000000
20914.000000,19341.000000,10400.000000,45997.000000
20948.000000,19319.000000,10343.000000,45977.000000
20907.000000,19297.000000,10374.000000,45969.000000
20953.000000,19315.000000,10372.000000,45973.000000
20893.000000,19297.000000,10339.000000,45971.000000
20909.000000,19268.000000,10341.000000,45941.000000
20927.000000,19259.000000,10335.000000,45953.000000
20905.000000,19299.000000,10340.000000,45967.000000
20925.000000,19277.000000,10340.000000,45955.000000
20893.000000,19280.000000,10331.000000,45949.000000
20916.000000,19288.000000,10319.000000,45933.000000
20896.000000,19278.000000,10323.000000,45927.000000
20908.000000,19253.000000,10297.000000,45940.000000
20875.000000,19253.000000,10296.000000,45931.000000
20855.000000,19228.000000,10260.000000,45912.000000
20862.000000,19237.000000,10241.000000,45887.000000
20841.000000,19209.000000,10216.000000,45900.000000
20824.000000,19219.000000,10226.000000,45897.000000
20803.000000,19224.000000,10227.000000,45904.000000
20773.000000,19451.000000,10214.000000,45887.000000
20781.000000,19164.000000,10201.000000,45865.000000
20739.000000,19175.000000,10185.000000,45831.000000
20747.000000,19166.000000,10165.000000,45827.000000
20745.000000,19172.000000,10132.000000,45852.000000
20724.000000,19157.000000,10134.000000,46077.000000
20743.000000,19146.000000,10106.000000,45822.000000
20717.000000,19387.000000,10118.000000,45810.000000
20718.000000,19129.000000,10130.000000,45845.000000
20698.000000,19127.000000,10104.000000,45829.000000
20713.000000,19171.000000,10098.000000,45817.000000
20688.000000,19130.000000,10072.000000,45835.000000
20710.000000,19104.000000,10063.000000,45814.000000
20671.000000,19156.000000,10057.000000,45823.000000
20705.000000,19376.000000,10100.000000,45810.000000
20694.000000,19110.000000,10104.000000,45813.000000
20709.000000,19116.000000,10111.000000,45819.000000
20708.000000,19135.000000,10093.000000,45821.000000
20735.000000,19139.000000,10120.000000,45815.000000
20734.000000,19165.000000,10125.000000,45818.000000
20745.000000,19392.000000,10155.000000,45841.000000
20736.000000,19424.000000,10159.000000,45885.000000
20787.000000,19443.000000,10151.000000,45875.000000
20811.000000,19171.000000,10162.000000,45843.000000
20797.000000,19190.000000,10203.000000,45859.000000
20845.000000,19227.000000,10210.000000,45880.000000
20870.000000,19239.000000,10264.000000,45957.000000
20916.000000,19299.000000,10288.000000,45929.000000
20948.000000,19304.000000,10318.000000,45903.000000
20940.000000,19292.000000,10352.000000,45949.000000
20985.000000,19315.000000,10353.000000,45991.000000
21000.000000,19329.000000,10404.000000,46012.000000
21025.000000,19387.000000,10442.000000,46012.000000
21059.000000,19388.000000,10466.000000,46071.000000
21119.000000,19431.000000,10516.000000,46056.000000
21166.000000,19436.000000,10548.000000,46086.000000
21229.000000,19491.000000,10620.000000,46133.000000
21230.000000,19515.000000,10643.000000,46138.000000
21293.000000,19548.000000,10734.000000,46177.000000
21345.000000,19579.000000,10781.000000,46202.000000
21410.000000,19651.000000,10827.000000,46246.000000
21472.000000,19691.000000,10913.000000,46265.000000
21477.000000,19715.000000,10930.000000,46285.000000
21505.000000,19737.000000,10952.000000,46339.000000
21528.000000,19743.000000,11240.000000,46324.000000
21513.000000,19733.000000,10995.000000,46341.000000
21554.000000,19745.000000,11011.000000,46349.000000
21544.000000,19771.000000,10991.000000,46352.000000
21532.000000,19767.000000,11025.000000,46320.000000
21573.000000,19771.000000,10986.000000,46326.000000
21561.000000,19780.000000,10994.000000,46343.000000
21547.000000,19747.000000,10968.000000,46335.000000
21542.000000,19756.000000,10984.000000,46327.000000
21524.000000,19735.000000,11003.000000,46295.000000
21559.000000,19735.000000,10993.000000,46307.000000
21507.000000,19763.000000,10946.000000,46323.000000
21464.000000,19713.000000,10982.000000,46309.000000
21493.000000,19753.000000,10942.000000,46282.000000
21531.000000,19703.000000,10937.000000,46317.000000
21489.000000,19713.000000,10917.000000,46287.000000
21467.000000,19727.000000,10892.000000,46281.000000
21466.000000,19723.000000,10904.000000,46288.000000
21471.000000,19672.000000,10904.000000,46255.000000
21484.000000,19719.000000,10925.000000,46295.000000
21468.000000,19727.000000,10916.000000,46282.000000
21468.000000,19691.000000,10892.000000,46264.000000
21464.000000,19681.000000,10921.000000,46257.000000
21461.000000,19673.000000,10894.000000,46266.000000
21451.000000,19691.000000,10912.000000,46284.000000
21451.000000,19679.000000,10883.000000,46273.000000
21425.000000,19651.000000,10882.000000,46267.000000
21429.000000,19688.000000,10875.000000,46261.000000
21430.000000,19657.000000,10863.000000,46253.000000
21446.000000,19679.000000,10881.000000,46268.000000
21416.000000,19657.000000,10857.000000,46244.000000
21388.000000,19640.000000,10850.000000,46237.000000
21372.000000,19626.000000,10818.000000,46247.000000
21396.000000,19640.000000,10848.000000,46252.000000
21391.000000,19642.000000,10821.000000,46244.000000
21386.000000,19637.000000,10834.000000,46207.000000
21401.000000,19633.000000,11071.000000,46220.000000
21392.000000,19651.000000,10799.000000,46240.000000
21362.000000,19597.000000,10814.000000,46227.000000
21372.000000,19612.000000,10815.000000,46247.000000
21373.000000,19615.000000,10781.000000,46221.000000
21351.000000,19627.000000,10772.000000,46225.000000
21330.000000,19582.000000,10761.000000,46193.000000
21336.000000,19615.000000,10780.000000,46227.000000
21341.000000,19611.000000,10754.000000,46187.000000
21362.000000,19595.000000,10728.000000,46174.000000
21315.000000,19568.000000,10754.000000,46180.000000
21330.000000,19553.000000,10741.000000,46182.000000
21322.000000,19591.000000,10719.000000,46198.000000
21306.000000,19572.000000,10723.000000,46163.000000
21297.000000,19557.000000,10742.000000,46191.000000
21313.000000,19560.000000,10724.000000,46186.000000
21286.000000,19575.000000,10737.000000,46171.000000
21284.000000,19568.000000,10681.000000,46142.000000
21256.000000,19539.000000,10681.000000,46142.000000
21256.000000,19553.000000,10681.000000,46141.000000
21266.000000,19539.000000,10672.000000,46155.000000
21249.000000,19536.000000,10674.000000,46151.000000
21264.000000,19519.000000,10686.000000,46143.000000
21267.000000,19532.000000,10658.000000,46154.000000
21241.000000,19497.000000,10667.000000,46110.000000
21227.000000,19515.000000,10660.000000,46148.000000
21224.000000,19487.000000,10637.000000,46119.000000
21190.000000,19499.000000,10630.000000,46114.000000
21210.000000,19503.000000,10624.000000,46141.000000
21214.000000,19495.000000,10646.000000,46091.000000
21208.000000,19488.000000,10581.000000,46116.000000
21198.000000,19472.000000,10573.000000,46093.000000
21431.000000,19451.000000,10585.000000,46092.000000
21180.000000,19451.000000,10577.000000,46104.000000
21209.000000,19467.000000,10554.000000,46134.000000
21191.000000,19482.000000,10565.000000,46099.000000
21167.000000,19463.000000,10573.000000,46085.000000
21197.000000,19449.000000,10565.000000,46073.000000
21174.000000,19453.000000,10535.000000,46075.000000
21166.000000,19412.000000,10533.000000,46088.000000
21147.000000,19425.000000,10544.000000,46072.000000
21137.000000,19439.000000,10502.000000,46086.000000
21091.000000,19411.000000,10499.000000,46049.000000
21143.000000,19408.000000,10497.000000,46076.000000
21105.000000,19417.000000,10495.000000,46022.000000
21116.000000,19428.000000,10477.000000,46087.000000
21122.000000,19399.000000,10508.000000,46065.000000
21070.000000,19415.000000,10487.000000,46072.000000
21123.000000,19388.000000,10481.000000,46025.000000
21092.000000,19404.000000,10466.000000,46021.000000
21083.000000,19411.000000,10482.000000,46023.000000
21112.000000,19393.000000,10461.000000,46023.000000
21090.000000,19415.000000,10492.000000,46065.000000
21041.000000,19383.000000,10426.000000,46044.000000
21044.000000,19371.000000,10433.000000,45999.000000
21056.000000,19392.000000,10430.000000,46011.000000
21074.000000,19369.000000,10405.000000,46047.000000
21320.000000,19365.000000,10428.000000,46035.000000
21033.000000,19377.000000,10418.000000,46015.000000
21047.000000,19335.000000,10434.000000,45997.000000
21017.000000,19377.000000,10415.000000,45999.000000
21011.000000,19355.000000,10400.000000,46019.000000
21026.000000,19332.000000,10401.000000,46013.000000
21035.000000,19355.000000,10382.000000,46016.000000
21002.000000,19348.000000,10407.000000,45996.000000
20980.000000,19335.000000,10358.000000,45984.000000
20996.000000,19309.000000,10350.000000,45973.000000
20979.000000,19323.000000,10383.000000,45991.000000
20967.000000,19327.000000,10340.000000,45968.000000
20973.000000,19275.000000,10306.000000,45967.000000
20972.000000,19303.000000,10312.000000,45944.000000
20942.000000,19263.000000,10283.000000,45923.000000
20913.000000,19237.000000,10261.000000,45912.000000
20896.000000,19243.000000,10250.000000,45924.000000
20871.000000,19243.000000,10242.000000,45913.000000
20876.000000,19217.000000,10226.000000,45914.000000
20854.000000,19235.000000,10232.000000,45883.000000
20819.000000,19231.000000,10186.000000,45875.000000
20835.000000,19207.000000,10163.000000,45860.000000
20819.000000,19178.000000,10171.000000,45879.000000
20826.000000,19215.000000,10201.000000,45884.000000
20826.000000,19165.000000,10175.000000,45880.000000
20826.000000,19181.000000,10184.000000,45873.000000
20826.000000,19200.000000,10182.000000,45851.000000
20860.000000,19231.000000,10195.000000,45899.000000
20834.000000,19219.000000,10189.000000,45895.000000
20877.000000,19244.000000,10246.000000,45899.000000
20845.000000,19244.000000,10171.000000,45879.000000
20876.000000,19231.000000,10193.000000,45903.000000
20859.000000,19216.000000,10218.000000,45875.000000
20901.000000,19283.000000,10245.000000,45923.000000
20922.000000,19247.000000,10260.000000,45926.000000
20937.000000,19301.000000,10270.000000,45932.000000
20952.000000,19268.000000,10288.000000,45951.000000
20965.000000,19303.000000,10291.000000,45939.000000
21008.000000,19289.000000,10332.000000,45944.000000
21009.000000,19335.000000,10354.000000,45992.000000
21011.000000,19347.000000,10392.000000,46004.000000
21059.000000,19372.000000,10410.000000,45997.000000
21066.000000,19369.000000,10422.000000,46023.000000
21116.000000,19441.000000,10454.000000,46031.000000
21124.000000,19407.000000,10500.000000,46067.000000
21176.000000,19475.000000,10529.000000,46087.000000
21226.000000,19503.000000,10565.000000,46110.000000
21251.000000,19528.000000,10610.000000,46116.000000
21272.000000,19531.000000,10643.000000,46123.000000
21326.000000,19583.000000,10701.000000,46205.000000
21375.000000,19607.000000,10760.000000,46233.000000
21419.000000,19620.000000,10816.000000,46247.000000
21442.000000,19700.000000,10867.000000,46263.000000
21543.000000,19703.000000,10899.000000,46286.000000
21571.000000,19760.000000,10991.000000,46335.000000
21622.000000,19773.000000,11025.000000,46367.000000
21627.000000,19799.000000,11083.000000,46357.000000
21690.000000,19831.000000,11060.000000,46381.000000
21721.000000,19849.000000,11127.000000,46397.000000
21719.000000,19889.000000,11102.000000,46444.000000
21712.000000,19871.000000,11111.000000,46399.000000
21677.000000,19851.000000,11117.000000,46415.000000
21707.000000,19865.000000,11133.000000,46435.000000
21712.000000,19825.000000,11132.000000,46419.000000
21687.000000,19812.000000,11095.000000,46365.000000
21679.000000,19824.000000,11063.000000,46399.000000
21641.000000,19801.000000,11065.000000,46380.000000
21685.000000,19824.000000,11078.000000,46417.000000
21688.000000,19823.000000,11084.000000,46407.000000
21662.000000,19812.000000,11054.000000,46383.000000
21679.000000,19811.000000,11061.000000,46391.000000
21653.000000,19793.000000,11052.000000,46355.000000
21630.000000,19800.000000,11053.000000,46379.000000
21695.000000,19800.000000,11032.000000,46359.000000
21656.000000,19811.000000,11061.000000,46373.000000
21654.000000,19775.000000,11057.000000,46353.000000
21670.000000,19803.000000,11059.000000,46379.000000
21626.000000,19777.000000,10999.000000,46360.000000
21619.000000,19744.000000,11006.000000,46355.000000
21629.000000,19754.000000,11029.000000,46355.000000
21611.000000,19771.000000,10983.000000,46369.000000
21633.000000,19740.000000,11003.000000,46339.000000
21561.000000,19776.000000,11013.000000,46348.000000
21592.000000,19765.000000,10974.000000,46351.000000
21556.000000,19747.000000,10986.000000,46345.000000
21572.000000,19723.000000,10969.000000,46345.000000
21585.000000,19741.000000,10977.000000,46316.000000
21583.000000,19749.000000,10967.000000,46337.000000
21552.000000,19739.000000,10969.000000,46344.000000
21538.000000,19729.000000,10955.000000,46300.000000
21560.000000,19743.000000,10938.000000,46300.000000
21551.000000,19741.000000,10936.000000,46305.000000
21578.000000,19713.000000,10971.000000,46330.000000
21543.000000,19740.000000,10963.000000,46275.000000
21559.000000,19739.000000,10958.000000,46320.000000
21552.000000,19684.000000,10945.000000,46318.000000
21556.000000,19704.000000,10903.000000,46309.000000
21541.000000,19711.000000,10940.000000,46306.000000
21533.000000,19709.000000,10886.000000,46311.000000
21518.000000,19720.000000,10883.000000,46305.000000
21510.000000,19706.000000,10917.000000,46261.000000
21512.000000,19689.000000,10849.000000,46291.000000
21517.000000,19710.000000,10907.000000,46277.000000
21480.000000,19690.000000,10886.000000,46280.000000
21511.000000,19701.000000,10886.000000,46277.000000
21505.000000,19679.000000,10860.000000,46250.000000
21480.000000,19685.000000,10855.000000,46261.000000
21474.000000,19657.000000,10861.000000,46255.000000
21478.000000,19656.000000,10821.000000,46265.000000
21503.000000,19685.000000,10874.000000,46259.000000
21447.000000,19653.000000,10837.000000,46268.000000
21446.000000,19667.000000,10799.000000,46231.000000
21423.000000,19617.000000,10763.000000,46214.000000
21449.000000,19655.000000,10779.000000,46238.000000
21403.000000,19625.000000,10769.000000,46209.000000
21443.000000,19622.000000,10802.000000,46229.000000
21418.000000,19657.000000,10797.000000,46247.000000
21407.000000,19604.000000,10787.000000,46207.000000
21419.000000,19592.000000,10751.000000,46205.000000
21440.000000,19604.000000,10742.000000,46163.000000
21382.000000,19601.000000,10749.000000,46188.000000
21375.000000,19618.000000,10732.000000,46201.000000
21403.000000,19613.000000,10745.000000,46222.000000
21375.000000,19615.000000,10738.000000,46216.000000
21363.000000,19595.000000,10722.000000,46173.000000
21355.000000,19603.000000,10715.000000,46179.000000
21347.000000,19565.000000,10689.000000,46179.000000
21343.000000,19547.000000,10677.000000,46180.000000
21333.000000,19539.000000,10682.000000,46169.000000
21340.000000,19551.000000,10658.000000,46177.000000
21315.000000,19551.000000,10663.000000,46162.000000
21330.000000,19543.000000,10678.000000,46157.000000
21334.000000,19554.000000,10635.000000,46153.000000
21339.000000,19537.000000,10671.000000,46157.000000
21313.000000,19514.000000,10654.000000,46137.000000
21311.000000,19495.000000,10637.000000,46147.000000
21303.000000,19494.000000,10619.000000,46140.000000
21263.000000,19517.000000,10643.000000,46157.000000
21279.000000,19536.000000,10612.000000,46136.000000
21301.000000,19514.000000,10616.000000,46130.000000
21283.000000,19514.000000,10571.000000,46099.000000
21242.000000,19487.000000,10546.000000,46101.000000
21253.000000,19473.000000,10581.000000,46107.000000
21252.000000,19479.000000,10582.000000,46119.000000
21242.000000,19477.000000,10555.000000,46097.000000
21235.000000,19455.000000,10541.000000,46115.000000
21272.000000,19475.000000,10551.000000,46111.000000
21257.000000,19467.000000,10541.000000,46079.000000
21208.000000,19431.000000,10510.000000,46084.000000
21213.000000,19468.000000,10541.000000,46122.000000
21247.000000,19460.000000,10567.000000,46085.000000
21260.000000,19471.000000,10551.000000,46101.000000
21199.000000,19433.000000,10513.000000,46084.000000
21241.000000,19453.000000,10511.000000,46071.000000
21182.000000,19432.000000,10512.000000,46088.000000
21203.000000,19439.000000,10499.000000,46083.000000
21192.000000,19449.000000,10474.000000,46091.000000
21192.000000,19463.000000,10493.000000,46098.000000
21199.000000,19455.000000,10488.000000,46065.000000
21171.000000,19433.000000,10474.000000,46031.000000
21156.000000,19420.000000,10473.000000,46029.000000
21155.000000,19387.000000,10439.000000,46052.000000
21125.000000,19368.000000,10396.000000,46025.000000
21108.000000,19379.000000,10402.000000,45999.000000
21105.000000,19359.000000,10384.000000,46031.000000
21093.000000,19359.000000,10371.000000,46008.000000
21061.000000,19331.000000,10360.000000,46001.000000
21040.000000,19312.000000,10355.000000,45993.000000
20993.000000,19313.000000,10313.000000,45959.000000
21026.000000,19312.000000,10296.000000,45967.000000
21011.000000,19305.000000,10287.000000,45976.000000
21017.000000,19307.000000,10294.000000,45965.000000
20982.000000,19299.000000,10288.000000,45935.000000
20948.000000,19291.000000,10263.000000,45949.000000
20977.000000,19288.000000,10236.000000,45937.000000
20980.000000,19244.000000,10259.000000,45921.000000
21001.000000,19280.000000,10273.000000,45933.000000
20991.000000,19268.000000,10255.000000,45943.000000
20996.000000,19251.000000,10245.000000,45947.000000
20961.000000,19281.000000,10237.000000,45924.000000
20973.000000,19264.000000,10244.000000,45928.000000
20981.000000,19251.000000,10256.000000,45939.000000
20984.000000,19273.000000,10273.000000,45945.000000
21011.000000,19292.000000,10267.000000,45945.000000
21028.000000,19303.000000,10278.000000,45949.000000
21013.000000,19313.000000,10290.000000,45968.000000
21038.000000,19311.000000,10306.000000,45945.000000
21064.000000,19295.000000,10324.000000,45955.000000
21071.000000,19323.000000,10336.000000,45964.000000
21106.000000,19343.000000,10360.000000,46011.000000
21146.000000,19363.000000,10374.000000,45998.000000
21166.000000,19363.000000,10411.000000,46009.000000
21173.000000,19407.000000,10399.000000,46027.000000
21193.000000,19383.000000,10436.000000,46051.000000
21202.000000,19420.000000,10484.000000,46065.000000
21263.000000,19445.000000,10531.000000,46072.000000
21284.000000,19444.000000,10560.000000,46086.000000
21311.000000,19484.000000,10583.000000,46129.000000
21364.000000,19526.000000,10623.000000,46136.000000
21398.000000,19585.000000,10648.000000,46172.000000
21420.000000,19576.000000,10669.000000,46182.000000
21453.000000,19592.000000,10740.000000,46217.000000
21495.000000,19665.000000,10755.000000,46264.000000
21560.000000,19724.000000,10813.000000,46273.000000
21593.000000,19724.000000,10885.000000,46329.000000
21664.000000,19751.000000,10962.000000,46358.000000
21701.000000,19809.000000,10976.000000,46377.000000
21739.000000,19808.000000,11042.000000,46388.000000
21818.000000,19855.000000,11092.000000,46411.000000
21800.000000,19857.000000,11113.000000,46403.000000
21830.000000,19859.000000,11119.000000,46449.000000
21874.000000,19927.000000,11159.000000,46455.000000
21877.000000,19921.000000,11149.000000,46481.000000
21872.000000,19915.000000,11134.000000,46481.000000
21863.000000,19919.000000,11156.000000,46455.000000
21880.000000,19927.000000,11123.000000,46443.000000
21831.000000,19879.000000,11109.000000,46435.000000
21849.000000,19895.000000,11135.000000,46444.000000
21831.000000,19887.000000,11140.000000,46433.000000
21831.000000,19867.000000,11113.000000,46421.000000
21819.000000,19879.000000,11117.000000,46411.000000
21832.000000,19851.000000,11099.000000,46396.000000
21802.000000,19857.000000,11087.000000,46402.000000
21803.000000,19864.000000,11072.000000,46421.000000
21795.000000,19852.000000,11097.000000,46429.000000
21791.000000,19845.000000,11073.000000,46393.000000
21729.000000,19847.000000,11075.000000,46385.000000
21757.000000,19828.000000,11039.000000,46368.000000
21772.000000,19843.000000,11049.000000,46401.000000
21761.000000,19860.000000,11064.000000,46407.000000
21740.000000,19807.000000,11049.000000,46384.000000
21767.000000,19777.000000,11073.000000,46389.000000
21735.000000,19811.000000,11031.000000,46379.000000
21767.000000,19839.000000,11027.000000,46387.000000
21723.000000,19817.000000,11051.000000,46399.000000
21738.000000,19809.000000,11016.000000,46376.000000
21708.000000,19837.000000,11034.000000,46355.000000
21723.000000,19812.000000,11007.000000,46352.000000
21688.000000,19789.000000,10987.000000,46352.000000
21686.000000,19785.000000,11001.000000,46341.000000
21699.000000,19764.000000,11015.000000,46372.000000
21671.000000,19796.000000,10998.000000,46343.000000
21686.000000,19791.000000,10967.000000,46371.000000
21663.000000,19755.000000,10987.000000,46349.000000
21655.000000,19797.000000,10977.000000,46309.000000
21687.000000,19763.000000,10954.000000,46327.000000
21637.000000,19769.000000,10942.000000,46313.000000
21662.000000,19753.000000,10964.000000,46331.000000
21673.000000,19777.000000,10944.000000,46367.000000
21648.000000,19775.000000,10951.000000,46332.000000
21635.000000,19735.000000,10921.000000,46317.000000
21664.000000,19739.000000,10932.000000,46296.000000
21639.000000,19739.000000,10923.000000,46314.000000
21623.000000,19729.000000,10916.000000,46290.000000
21625.000000,19698.000000,11167.000000,46302.000000
21627.000000,19759.000000,10918.000000,46316.000000
21606.000000,19728.000000,10918.000000,46308.000000
21607.000000,19691.000000,10887.000000,46295.000000
21582.000000,19699.000000,10892.000000,46277.000000
21598.000000,19692.000000,10861.000000,46262.000000
21573.000000,19691.000000,10924.000000,46300.000000
21571.000000,19701.000000,10863.000000,46295.000000
21583.000000,19704.000000,10846.000000,46301.000000
21568.000000,19702.000000,10854.000000,46308.000000
21565.000000,19683.000000,10820.000000,46283.000000
21551.000000,19651.000000,10858.000000,46271.000000
21499.000000,19683.000000,10828.000000,46265.000000
21545.000000,19671.000000,10792.000000,46248.000000
21539.000000,19656.000000,10831.000000,46254.000000
21526.000000,19687.000000,10780.000000,46276.000000
21543.000000,19675.000000,10800.000000,46238.000000
21540.000000,19653.000000,10807.000000,46247.000000
21491.000000,19645.000000,10756.000000,46223.000000
21516.000000,19648.000000,10798.000000,46236.000000
21503.000000,19625.000000,10763.000000,46212.000000
21516.000000,19639.000000,10759.000000,46225.000000
21528.000000,19624.000000,10755.000000,46240.000000
21464.000000,19648.000000,10779.000000,46221.000000
21475.000000,19607.000000,10733.000000,46214.000000
21468.000000,19593.000000,10718.000000,46205.000000
21463.000000,19627.000000,10733.000000,46192.000000
21466.000000,19595.000000,10710.000000,46218.000000
21429.000000,19607.000000,10732.000000,46204.000000
21481.000000,19597.000000,10712.000000,46186.000000
21452.000000,19595.000000,10689.000000,46189.000000
21421.000000,19607.000000,10692.000000,46177.000000
21407.000000,19564.000000,10662.000000,46163.000000
21449.000000,19634.000000,10677.000000,46199.000000
21425.000000,19569.000000,10708.000000,46208.000000
21386.000000,19553.000000,10685.000000,46166.000000
21379.000000,19534.000000,10613.000000,46162.000000
21372.000000,19539.000000,10631.000000,46173.000000
21391.000000,19569.000000,10605.000000,46141.000000
21387.000000,19527.000000,10633.000000,46183.000000
21399.000000,19545.000000,10615.000000,46159.000000
21347.000000,19527.000000,10607.000000,46156.000000
21361.000000,19498.000000,10624.000000,46151.000000
21349.000000,19520.000000,10592.000000,46138.000000
21347.000000,19526.000000,10619.000000,46147.000000
21383.000000,19551.000000,10596.000000,46118.000000
21355.000000,19492.000000,10597.000000,46126.000000
21342.000000,19506.000000,10584.000000,46140.000000
21343.000000,19496.000000,10560.000000,46113.000000
21311.000000,19522.000000,10582.000000,46113.000000
21308.000000,19500.000000,10561.000000,46107.000000
21323.000000,19504.000000,10567.000000,46087.000000
21285.000000,19512.000000,10535.000000,46121.000000
21304.000000,19472.000000,10543.000000,46104.000000
21313.000000,19461.000000,10521.000000,46114.000000
21301.000000,19456.000000,10539.000000,46063.000000
21255.000000,19457.000000,10536.000000,46087.000000
21279.000000,19447.000000,10521.000000,46076.000000
21291.000000,19462.000000,10512.000000,46097.000000
21239.000000,19427.000000,10495.000000,46068.000000
21233.000000,19419.000000,10474.000000,46069.000000
21191.000000,19399.000000,10447.000000,46037.000000
21436.000000,19407.000000,10464.000000,46056.000000
21200.000000,19431.000000,10425.000000,46044.000000
21174.000000,19369.000000,10408.000000,46043.000000
21169.000000,19379.000000,10377.000000,46007.000000
21130.000000,19359.000000,10356.000000,46007.000000
21127.000000,19380.000000,10350.000000,45987.000000
21087.000000,19365.000000,10367.000000,45981.000000
21123.000000,19319.000000,10339.000000,45977.000000
21122.000000,19332.000000,10333.000000,45964.000000
21107.000000,19323.000000,10291.000000,45972.000000
21084.000000,19324.000000,10332.000000,45967.000000
21114.000000,19335.000000,10307.000000,45951.000000
21084.000000,19328.000000,10281.000000,45964.000000
21061.000000,19293.000000,10321.000000,45972.000000
21112.000000,19287.000000,10269.000000,45955.000000
21114.000000,19309.000000,10313.000000,45949.000000
21070.000000,19299.000000,10289.000000,45983.000000
21084.000000,19293.000000,10257.000000,45959.000000
21078.000000,19311.000000,10321.000000,45935.000000
21069.000000,19301.000000,10306.000000,45960.000000
21086.000000,19317.000000,10286.000000,45932.000000
21109.000000,19323.000000,10287.000000,45971.000000
21130.000000,19333.000000,10330.000000,45984.000000
21145.000000,19351.000000,10354.000000,45993.000000
21172.000000,19368.000000,10366.000000,46000.000000
21217.000000,19367.000000,10377.000000,46039.000000
21212.000000,19391.000000,10403.000000,46035.000000
21230.000000,19395.000000,10412.000000,46049.000000
21264.000000,19417.000000,10442.000000,46047.000000
21260.000000,19412.000000,10466.000000,46067.000000
21302.000000,19447.000000,10514.000000,46096.000000
21343.000000,19503.000000,10511.000000,46114.000000
21362.000000,19529.000000,10580.000000,46139.000000
21378.000000,19543.000000,10608.000000,46141.000000
21450.000000,19559.000000,10627.000000,46170.000000
21471.000000,19594.000000,10625.000000,46150.000000
21491.000000,19583.000000,10697.000000,46191.000000
21573.000000,19655.000000,10770.000000,46244.000000
21603.000000,19653.000000,10815.000000,46272.000000
21670.000000,19719.000000,10885.000000,46271.000000
21690.000000,19759.000000,10913.000000,46301.000000
21767.000000,19785.000000,10988.000000,46335.000000
21813.000000,19839.000000,11021.000000,46367.000000
21839.000000,19887.000000,11085.000000,46410.000000
21884.000000,19855.000000,11099.000000,46393.000000
21883.000000,19931.000000,11135.000000,46457.000000
21935.000000,19947.000000,11170.000000,46459.000000
21950.000000,19920.000000,11139.000000,46468.000000
21939.000000,19931.000000,11187.000000,46469.000000
21925.000000,19927.000000,11197.000000,46483.000000
21966.000000,19953.000000,11174.000000,46463.000000
21978.000000,19955.000000,11180.000000,46460.000000
21965.000000,19967.000000,11157.000000,46501.000000
21957.000000,19915.000000,11129.000000,46466.000000
21940.000000,19931.000000,11182.000000,46463.000000
21917.000000,19941.000000,11130.000000,46449.000000
21947.000000,19952.000000,11175.000000,46461.000000
21914.000000,19917.000000,11114.000000,46431.000000
21921.000000,19907.000000,11128.000000,46455.000000
21929.000000,19899.000000,11133.000000,46453.000000
21903.000000,19895.000000,11100.000000,46444.000000
21901.000000,19904.000000,11115.000000,46441.000000
21898.000000,19904.000000,11070.000000,46411.000000
21855.000000,19891.000000,11099.000000,46424.000000
21856.000000,19900.000000,11103.000000,46447.000000
21894.000000,19914.000000,11079.000000,46415.000000
21857.000000,19887.000000,11105.000000,46403.000000
21876.000000,19896.000000,11062.000000,46419.000000
21892.000000,19893.000000,11098.000000,46431.000000
21878.000000,19880.000000,11098.000000,46431.000000
21872.000000,19872.000000,11065.000000,46420.000000
21833.000000,19863.000000,11086.000000,46405.000000
21840.000000,19851.000000,11055.000000,46388.000000
21841.000000,19863.000000,11032.000000,46389.000000
21847.000000,19875.000000,11067.000000,46431.000000
21841.000000,19864.000000,11040.000000,46393.000000
21802.000000,19819.000000,11025.000000,46399.000000
21805.000000,19823.000000,11027.000000,46376.000000
21791.000000,19839.000000,11007.000000,46376.000000
21800.000000,19841.000000,11017.000000,46369.000000
21807.000000,19843.000000,11022.000000,46395.000000
21772.000000,19835.000000,11028.000000,46375.000000
21768.000000,19833.000000,10983.000000,46370.000000
21761.000000,19823.000000,10977.000000,46347.000000
21775.000000,19831.000000,10974.000000,46367.000000
21742.000000,19807.000000,10969.000000,46361.000000
21782.000000,19827.000000,10980.000000,46347.000000
21761.000000,19796.000000,10980.000000,46339.000000
21780.000000,19795.000000,10950.000000,46355.000000
21737.000000,19777.000000,10937.000000,46343.000000
21747.000000,19776.000000,10941.000000,46324.000000
21775.000000,19779.000000,10952.000000,46349.000000
21721.000000,19808.000000,10936.000000,46347.000000
21738.000000,19769.000000,10907.000000,46315.000000
21725.000000,19756.000000,10928.000000,46314.000000
21722.000000,19761.000000,10874.000000,46267.000000
21720.000000,19773.000000,10906.000000,46319.000000
21723.000000,19739.000000,10892.000000,46321.000000
21708.000000,19767.000000,10930.000000,46327.000000
21679.000000,19760.000000,10898.000000,46297.000000
21697.000000,19735.000000,10869.000000,46278.000000
21687.000000,19749.000000,10869.000000,46312.000000
21661.000000,19725.000000,10870.000000,46291.000000
21689.000000,19728.000000,10852.000000,46308.000000
21651.000000,19751.000000,10843.000000,46289.000000
21660.000000,19723.000000,10829.000000,46268.000000
21632.000000,19696.000000,10828.000000,46276.000000
21625.000000,19689.000000,10786.000000,46264.000000
21623.000000,19688.000000,10795.000000,46266.000000
21634.000000,19665.000000,10782.000000,46269.000000
21614.000000,19691.000000,10799.000000,46244.000000
21617.000000,19701.000000,10752.000000,46228.000000
21602.000000,19651.000000,10776.000000,46239.000000
21580.000000,19658.000000,10774.000000,46234.000000
21588.000000,19672.000000,10749.000000,46220.000000
21572.000000,19648.000000,10738.000000,46208.000000
21555.000000,19671.000000,10745.000000,46218.000000
21545.000000,19635.000000,10748.000000,46235.000000
21527.000000,19608.000000,10685.000000,46207.000000
21527.000000,19624.000000,10677.000000,46195.000000
21530.000000,19633.000000,10707.000000,46211.000000
21520.000000,19645.000000,10716.000000,46200.000000
21539.000000,19604.000000,10681.000000,46209.000000
21513.000000,19618.000000,10678.000000,46199.000000
21549.000000,19604.000000,10685.000000,46177.000000
21529.000000,19590.000000,10683.000000,46194.000000
21477.000000,19613.000000,10668.000000,46212.000000
21552.000000,19617.000000,10652.000000,46239.000000
21517.000000,19588.000000,10662.000000,46196.000000
21509.000000,19594.000000,10637.000000,46175.000000
21462.000000,19575.000000,10615.000000,46173.000000
21485.000000,19581.000000,10631.000000,46198.000000
21487.000000,19593.000000,10624.000000,46181.000000
21498.000000,19579.000000,10648.000000,46198.000000
21499.000000,19588.000000,10618.000000,46168.000000
21500.000000,19563.000000,10589.000000,46151.000000
21471.000000,19555.000000,10560.000000,46135.000000
21453.000000,19554.000000,10589.000000,46145.000000
21477.000000,19551.000000,10591.000000,46164.000000
21449.000000,19523.000000,10597.000000,46139.000000
21440.000000,19548.000000,10585.000000,46120.000000
21432.000000,19541.000000,10581.000000,46125.000000
21413.000000,19523.000000,10519.000000,46110.000000
21394.000000,19490.000000,10542.000000,46072.000000
21363.000000,19500.000000,10525.000000,46096.000000
21385.000000,19545.000000,10518.000000,46114.000000
21391.000000,19530.000000,10517.000000,46110.000000
21411.000000,19490.000000,10494.000000,46093.000000
21380.000000,19456.000000,10484.000000,46096.000000
21355.000000,19474.000000,10478.000000,46057.000000
21343.000000,19449.000000,10456.000000,46057.000000
21345.000000,19451.000000,10462.000000,46068.000000
21367.000000,19447.000000,10419.000000,46083.000000
21311.000000,19460.000000,10427.000000,46070.000000
21309.000000,19415.000000,10392.000000,46043.000000
21267.000000,19405.000000,10374.000000,46020.000000
21260.000000,19383.000000,10323.000000,46029.000000
21232.000000,19376.000000,10356.000000,46016.000000
21256.000000,19395.000000,10348.000000,46002.000000
21271.000000,19376.000000,10348.000000,46007.000000
21237.000000,19375.000000,10334.000000,45981.000000
21260.000000,19351.000000,10297.000000,45995.000000
21232.000000,19368.000000,10289.000000,45983.000000
21230.000000,19376.000000,10320.000000,45989.000000
21222.000000,19367.000000,10320.000000,45999.000000
21238.000000,19347.000000,10302.000000,46004.000000
21255.000000,19373.000000,10305.000000,46007.000000
21225.000000,19380.000000,10304.000000,45988.000000
21246.000000,19385.000000,10295.000000,45984.000000
21246.000000,19371.000000,10305.000000,45983.000000
21220.000000,19375.000000,10306.000000,45996.000000
21249.000000,19364.000000,10317.000000,45988.000000
21255.000000,19388.000000,10339.000000,45996.000000
21266.000000,19395.000000,10327.000000,46016.000000
21272.000000,19399.000000,10332.000000,46011.000000
21269.000000,19387.000000,10345.000000,46019.000000
21323.000000,19412.000000,10365.000000,46005.000000
21315.000000,19409.000000,10363.000000,46021.000000
21369.000000,19461.000000,10412.000000,46047.000000
21370.000000,19481.000000,10421.000000,46087.000000
21399.000000,19484.000000,10443.000000,46067.000000
21448.000000,19517.000000,10450.000000,46089.000000
21428.000000,19508.000000,10531.000000,46107.000000
21496.000000,19533.000000,10530.000000,46109.000000
21516.000000,19575.000000,10583.000000,46165.000000
21580.000000,19595.000000,10635.000000,46170.000000
21594.000000,19617.000000,10661.000000,46232.000000
21659.000000,19676.000000,10732.000000,46233.000000
21746.000000,19703.000000,10715.000000,46255.000000
21748.000000,19723.000000,10786.000000,46287.000000
21796.000000,19772.000000,10855.000000,46290.000000
21847.000000,19804.000000,10907.000000,46359.000000
21938.000000,19835.000000,10960.000000,46373.000000
21970.000000,19879.000000,11023.000000,46389.000000
22007.000000,19921.000000,11060.000000,46411.000000
22040.000000,19928.000000,11100.000000,46439.000000
22104.000000,19965.000000,11157.000000,46487.000000
22082.000000,19999.000000,11205.000000,46500.000000
22135.000000,20027.000000,11216.000000,46532.000000
22148.000000,20279.000000,11231.000000,46522.000000
22172.000000,20289.000000,11243.000000,46504.000000
22133.000000,20283.000000,11234.000000,46524.000000
22135.000000,20039.000000,11225.000000,46529.000000
22125.000000,20259.000000,11210.000000,46532.000000
22128.000000,20055.000000,11224.000000,46533.000000
22133.000000,20027.000000,11233.000000,46499.000000
22389.000000,19993.000000,11221.000000,46547.000000
22116.000000,20263.000000,11184.000000,46487.000000
22129.000000,20263.000000,11199.000000,46515.000000
22086.000000,20251.000000,11201.000000,46496.000000
22107.000000,19996.000000,11161.000000,46508.000000
22101.000000,19992.000000,11200.000000,46501.000000
22085.000000,19960.000000,11179.000000,46499.000000
22060.000000,20225.000000,11167.000000,46499.000000
22069.000000,19965.000000,11161.000000,46482.000000
22047.000000,19967.000000,11161.000000,46477.000000
22042.000000,19967.000000,11140.000000,46487.000000
22009.000000,19951.000000,11163.000000,46466.000000
22001.000000,19961.000000,11111.000000,46476.000000
22021.000000,19972.000000,11129.000000,46445.000000
21972.000000,19947.000000,11115.000000,46441.000000
22000.000000,19939.000000,11110.000000,46455.000000
21964.000000,19921.000000,11096.000000,46467.000000
22015.000000,19951.000000,11103.000000,46467.000000
21959.000000,19936.000000,11117.000000,46445.000000
22006.000000,19948.000000,11110.000000,46435.000000
21978.000000,19937.000000,11087.000000,46441.000000
21974.000000,19899.000000,11078.000000,46431.000000
21970.000000,19903.000000,11067.000000,46439.000000
21975.000000,19915.000000,11068.000000,46435.000000
21970.000000,19907.000000,11091.000000,46415.000000
22007.000000,19924.000000,11091.000000,46439.000000
21965.000000,19931.000000,11100.000000,46441.000000
21971.000000,19924.000000,11053.000000,46440.000000
21973.000000,19911.000000,11048.000000,46409.000000
21957.000000,19904.000000,11049.000000,46423.000000
21950.000000,19890.000000,11053.000000,46425.000000
21959.000000,19887.000000,11023.000000,46424.000000
21955.000000,19852.000000,11008.000000,46405.000000
21957.000000,19905.000000,11007.000000,46421.000000
21969.000000,19851.000000,10997.000000,46376.000000
21928.000000,19887.000000,11033.000000,46401.000000
21974.000000,19856.000000,11024.000000,46416.000000
21928.000000,19835.000000,10999.000000,46355.000000
21912.000000,19857.000000,10981.000000,46392.000000
21914.000000,19829.000000,10981.000000,46388.000000
21904.000000,19843.000000,11008.000000,46395.000000
21931.000000,19869.000000,10983.000000,46396.000000
21921.000000,19855.000000,10979.000000,46385.000000
21932.000000,19849.000000,10953.000000,46387.000000
21884.000000,19859.000000,10964.000000,46357.000000
21862.000000,19831.000000,10925.000000,46351.000000
21907.000000,19815.000000,10935.000000,46355.000000
21907.000000,19823.000000,10947.000000,46359.000000
21885.000000,19796.000000,10914.000000,46331.000000
21864.000000,19817.000000,10901.000000,46331.000000
21851.000000,19797.000000,10918.000000,46327.000000
21860.000000,19811.000000,10904.000000,46327.000000
21837.000000,19818.000000,10918.000000,46327.000000
21833.000000,19795.000000,10899.000000,46329.000000
21802.000000,19779.000000,10858.000000,46337.000000
21792.000000,19791.000000,10861.000000,46331.000000
21791.000000,19747.000000,10856.000000,46293.000000
21765.000000,19747.000000,10863.000000,46292.000000
21767.000000,19767.000000,10849.000000,46323.000000
21760.000000,19755.000000,10813.000000,46285.000000
21778.000000,19747.000000,10832.000000,46305.000000
21720.000000,19743.000000,10801.000000,46277.000000
21795.000000,19711.000000,10800.000000,46292.000000
21737.000000,19705.000000,10805.000000,46289.000000
21715.000000,19700.000000,10778.000000,46276.000000
21704.000000,19691.000000,10771.000000,46242.000000
21684.000000,19715.000000,10738.000000,46256.000000
21680.000000,19676.000000,10756.000000,46239.000000
21690.000000,19691.000000,10744.000000,46254.000000
21667.000000,19703.000000,10722.000000,46243.000000
21647.000000,19647.000000,10717.000000,46224.000000
21683.000000,19684.000000,10716.000000,46232.000000
21658.000000,19663.000000,10731.000000,46245.000000
21649.000000,19661.000000,10731.000000,46213.000000
21625.000000,19664.000000,10721.000000,46234.000000
21655.000000,19655.000000,10697.000000,46194.000000
21629.000000,19671.000000,10678.000000,46205.000000
21662.000000,19647.000000,10698.000000,46184.000000
21633.000000,19633.000000,10697.000000,46200.000000
21603.000000,19610.000000,10647.000000,46198.000000
21622.000000,19637.000000,10655.000000,46203.000000
21634.000000,19612.000000,10667.000000,46195.000000
21599.000000,19612.000000,10637.000000,46199.000000
21595.000000,19595.000000,10639.000000,46192.000000
21586.000000,19617.000000,10649.000000,46183.000000
21603.000000,19580.000000,10618.000000,46192.000000
21600.000000,19608.000000,10621.000000,46190.000000
21600.000000,19580.000000,10604.000000,46177.000000
21582.000000,19628.000000,10598.000000,46174.000000
21575.000000,19576.000000,10600.000000,46200.000000
21554.000000,19576.000000,10581.000000,46163.000000
21540.000000,19571.000000,10578.000000,46151.000000
21480.000000,19563.000000,10550.000000,46160.000000
21481.000000,19545.000000,10539.000000,46161.000000
21514.000000,19540.000000,10516.000000,46118.000000
21481.000000,19499.000000,10519.000000,46125.000000
21459.000000,19499.000000,10495.000000,46110.000000
21451.000000,19503.000000,10458.000000,46096.000000
21413.000000,19471.000000,10436.000000,46082.000000
21419.000000,19503.000000,10469.000000,46091.000000
21409.000000,19451.000000,10459.000000,46094.000000
21399.000000,19467.000000,10429.000000,46059.000000
21382.000000,19443.000000,10401.000000,46057.000000
21373.000000,19452.000000,10335.000000,46044.000000
21379.000000,19449.000000,10383.000000,46049.000000
21339.000000,19443.000000,10370.000000,46045.000000
21382.000000,19432.000000,10346.000000,46027.000000
21352.000000,19403.000000,10338.000000,46047.000000
21345.000000,19451.000000,10368.000000,46037.000000
21347.000000,19443.000000,10330.000000,46012.000000
21332.000000,19415.000000,10378.000000,46035.000000
21361.000000,19421.000000,10356.000000,46016.000000
21323.000000,19411.000000,10368.000000,46027.000000
21363.000000,19419.000000,10356.000000,46020.000000
21379.000000,19423.000000,10355.000000,46028.000000
21368.000000,19431.000000,10346.000000,46020.000000
21341.000000,19404.000000,10341.000000,46041.000000
21373.000000,19411.000000,10385.000000,46055.000000
21379.000000,19432.000000,10397.000000,46073.000000
21400.000000,19459.000000,10416.000000,46075.000000
21404.000000,19470.000000,10426.000000,46087.000000
21457.000000,19474.000000,10418.000000,46073.000000
21427.000000,19525.000000,10468.000000,46075.000000
21448.000000,19483.000000,10461.000000,46084.000000
21501.000000,19522.000000,10496.000000,46129.000000
21538.000000,19553.000000,10531.000000,46139.000000
21556.000000,19598.000000,10549.000000,46165.000000
21561.000000,19560.000000,10586.000000,46160.000000
21602.000000,19598.000000,10603.000000,46164.000000
21622.000000,19658.000000,10613.000000,46179.000000
21678.000000,19639.000000,10664.000000,46223.000000
21706.000000,19695.000000,10720.000000,46238.000000
21707.000000,19699.000000,10766.000000,46257.000000
21738.000000,19761.000000,10782.000000,46250.000000
21781.000000,19743.000000,10839.000000,46323.000000
21859.000000,19819.000000,10847.000000,46330.000000
21873.000000,19844.000000,10942.000000,46353.000000
21908.000000,19867.000000,10982.000000,46381.000000
21965.000000,19921.000000,11050.000000,46437.000000
22012.000000,19939.000000,11100.000000,46459.000000
22070.000000,19989.000000,11147.000000,46477.000000
22087.000000,20268.000000,11213.000000,46508.000000
22142.000000,20025.000000,11208.000000,46520.000000
22140.000000,20037.000000,11218.000000,46527.000000
22156.000000,20299.000000,11248.000000,46553.000000
22161.000000,20317.000000,11250.000000,46539.000000
22157.000000,20323.000000,11255.000000,46536.000000
22182.000000,20309.000000,11274.000000,46543.000000
22143.000000,20024.000000,11261.000000,46527.000000
22157.000000,20027.000000,11247.000000,46535.000000
22187.000000,20303.000000,11255.000000,46548.000000
22142.000000,20060.000000,11237.000000,46520.000000
22142.000000,20323.000000,11222.000000,46544.000000
22136.000000,20009.000000,11211.000000,46529.000000
22143.000000,20032.000000,11235.000000,46507.000000
22149.000000,20265.000000,11231.000000,46536.000000
22139.000000,20007.000000,11233.000000,46523.000000
22139.000000,19998.000000,11200.000000,46508.000000
22099.000000,20018.000000,11191.000000,46515.000000
22120.000000,20016.000000,11171.000000,46509.000000
22089.000000,20237.000000,11168.000000,46459.000000
22112.000000,20244.000000,11152.000000,46497.000000
22063.000000,20225.000000,11167.000000,46483.000000
22083.000000,19987.000000,11135.000000,46484.000000
22103.000000,20012.000000,11157.000000,46511.000000
22079.000000,19955.000000,11145.000000,46463.000000
22082.000000,19980.000000,11150.000000,46453.000000
22064.000000,19976.000000,11124.000000,46451.000000
22020.000000,19961.000000,11157.000000,46448.000000
22043.000000,19984.000000,11128.000000,46492.000000
22055.000000,20247.000000,11143.000000,46467.000000
22055.000000,19960.000000,11130.000000,46467.000000
22026.000000,19955.000000,11137.000000,46454.000000
22007.000000,19915.000000,11089.000000,46449.000000
22004.000000,19967.000000,11083.000000,46465.000000
22007.000000,19972.000000,11107.000000,46487.000000
22015.000000,19919.000000,11104.000000,46449.000000
22013.000000,19931.000000,11099.000000,46417.000000
22017.000000,19931.000000,11069.000000,46416.000000
21995.000000,19915.000000,11080.000000,46393.000000
21970.000000,19907.000000,11088.000000,46421.000000
21973.000000,19907.000000,11063.000000,46444.000000
22005.000000,19916.000000,11078.000000,46428.000000
21976.000000,19895.000000,11069.000000,46409.000000
21972.000000,19903.000000,11064.000000,46431.000000
21978.000000,19907.000000,11034.000000,46387.000000
21948.000000,19889.000000,11039.000000,46423.000000
21947.000000,19872.000000,10997.000000,46402.000000
21963.000000,19895.000000,11018.000000,46408.000000
21952.000000,19879.000000,10993.000000,46419.000000
21919.000000,19843.000000,10986.000000,46363.000000
21915.000000,19856.000000,11006.000000,46371.000000
21927.000000,19848.000000,10995.000000,46391.000000
21935.000000,19887.000000,11005.000000,46379.000000
21916.000000,19891.000000,10970.000000,46400.000000
21917.000000,19883.000000,10960.000000,46399.000000
21909.000000,19887.000000,10971.000000,46376.000000
21882.000000,19861.000000,10959.000000,46343.000000
21898.000000,19813.000000,10962.000000,46368.000000
21868.000000,19833.000000,10909.000000,46342.000000
21863.000000,19824.000000,10956.000000,46355.000000
21876.000000,19836.000000,10930.000000,46359.000000
21855.000000,19823.000000,10917.000000,46341.000000
21834.000000,19835.000000,10924.000000,46344.000000
21849.000000,19785.000000,10891.000000,46323.000000
21838.000000,19812.000000,10911.000000,46339.000000
21847.000000,19795.000000,10865.000000,46329.000000
21798.000000,19785.000000,10843.000000,46320.000000
21812.000000,19753.000000,10844.000000,46319.000000
21825.000000,19783.000000,10883.000000,46304.000000
21834.000000,19777.000000,10859.000000,46335.000000
21764.000000,19791.000000,10843.000000,46288.000000
21775.000000,19731.000000,10833.000000,46289.000000
21801.000000,19756.000000,10845.000000,46298.000000
21785.000000,19764.000000,10820.000000,46313.000000
21780.000000,19735.000000,10814.000000,46333.000000
21742.000000,19748.000000,10797.000000,46278.000000
21745.000000,19731.000000,10807.000000,46279.000000
21775.000000,19701.000000,10780.000000,46282.000000
21729.000000,19703.000000,10769.000000,46269.000000
21749.000000,19727.000000,10772.000000,46266.000000
21763.000000,19706.000000,10796.000000,46249.000000
21748.000000,19743.000000,10780.000000,46271.000000
21741.000000,19708.000000,10774.000000,46266.000000
21736.000000,19717.000000,10741.000000,46267.000000
21723.000000,19709.000000,10734.000000,46225.000000
21710.000000,19699.000000,10747.000000,46239.000000
21684.000000,19690.000000,10728.000000,46259.000000
21694.000000,19709.000000,10703.000000,46244.000000
21678.000000,19654.000000,10715.000000,46207.000000
21682.000000,19685.000000,10719.000000,46234.000000
21727.000000,19671.000000,10710.000000,46238.000000
21701.000000,19665.000000,10699.000000,46225.000000
21679.000000,19653.000000,10673.000000,46211.000000
21693.000000,19687.000000,10675.000000,46229.000000
21679.000000,19701.000000,10671.000000,46243.000000
21647.000000,19655.000000,10663.000000,46245.000000
21649.000000,19656.000000,10691.000000,46213.000000
21628.000000,19641.000000,10626.000000,46215.000000
21616.000000,19645.000000,10635.000000,46172.000000
21618.000000,19627.000000,10629.000000,46192.000000
21598.000000,19595.000000,10593.000000,46168.000000
21610.000000,19576.000000,10585.000000,46153.000000
21556.000000,19604.000000,10587.000000,46154.000000
21573.000000,19583.000000,10527.000000,46136.000000
21547.000000,19558.000000,10557.000000,46158.000000
21523.000000,19540.000000,10539.000000,46139.000000
21546.000000,19551.000000,10499.000000,46123.000000
21493.000000,19512.000000,10492.000000,46121.000000
21477.000000,19519.000000,10447.000000,46102.000000
21476.000000,19539.000000,10448.000000,46114.000000
21493.000000,19524.000000,10445.000000,46079.000000
21455.000000,19520.000000,10442.000000,46059.000000
21460.000000,19513.000000,10430.000000,46081.000000
21461.000000,19510.000000,10420.000000,46064.000000
21453.000000,19471.000000,10419.000000,46072.000000
21472.000000,19491.000000,10446.000000,46082.000000
21457.000000,19513.000000,10426.000000,46055.000000
21468.000000,19515.000000,10462.000000,46100.000000
21444.000000,19494.000000,10427.000000,46071.000000
21409.000000,19499.000000,10444.000000,46051.000000
21447.000000,19491.000000,10420.000000,46116.000000
21451.000000,19492.000000,10435.000000,46087.000000
21467.000000,19487.000000,10431.000000,46087.000000
21466.000000,19522.000000,10456.000000,46080.000000
21462.000000,19529.000000,10431.000000,46084.000000
21488.000000,19548.000000,10463.000000,46092.000000
21476.000000,19505.000000,10439.000000,46122.000000
21511.000000,19511.000000,10488.000000,46121.000000
21500.000000,19543.000000,10479.000000,46142.000000
21496.000000,19565.000000,10480.000000,46116.000000
21583.000000,19575.000000,10535.000000,46133.000000
21562.000000,19581.000000,10564.000000,46142.000000
21611.000000,19602.000000,10569.000000,46161.000000
21618.000000,19610.000000,10598.000000,46166.000000
21673.000000,19631.000000,10607.000000,46161.000000
21663.000000,19655.000000,10645.000000,46194.000000
21714.000000,19656.000000,10664.000000,46221.000000
21713.000000,19723.000000,10732.000000,46240.000000
21731.000000,19727.000000,10736.000000,46275.000000
21798.000000,19763.000000,10783.000000,46274.000000
21806.000000,19763.000000,10847.000000,46306.000000
21895.000000,19847.000000,10876.000000,46351.000000
21932.000000,19852.000000,10918.000000,46363.000000
21937.000000,19857.000000,10985.000000,46368.000000
22004.000000,19912.000000,11044.000000,46405.000000
22034.000000,19965.000000,11081.000000,46447.000000
22083.000000,20248.000000,11146.000000,46499.000000
22130.000000,20027.000000,11183.000000,46507.000000
22152.000000,20304.000000,11212.000000,46539.000000
22209.000000,20337.000000,11325.000000,46531.000000
22263.000000,20375.000000,11306.000000,46587.000000
22226.000000,20102.000000,11337.000000,46585.000000
22263.000000,20113.000000,11345.000000,46586.000000
22264.000000,20356.000000,11359.000000,46559.000000
22280.000000,20124.000000,11348.000000,46566.000000
22232.000000,20092.000000,11360.000000,46611.000000
22264.000000,20113.000000,11318.000000,46580.000000
22234.000000,20109.000000,11322.000000,46589.000000
22234.000000,20103.000000,11337.000000,46583.000000
22227.000000,20087.000000,11328.000000,46553.000000
22237.000000,20112.000000,11321.000000,46587.000000
22167.000000,20085.000000,11286.000000,46565.000000
22289.000000,20080.000000,11303.000000,46556.000000
22189.000000,20092.000000,11275.000000,46549.000000
22181.000000,20083.000000,11266.000000,46559.000000
22173.000000,20058.000000,11258.000000,46565.000000
22169.000000,20061.000000,11267.000000,46537.000000
22162.000000,20325.000000,11247.000000,46537.000000
22118.000000,20064.000000,11215.000000,46520.000000
22146.000000,20311.000000,11229.000000,46532.000000
22172.000000,20300.000000,11249.000000,46536.000000
22112.000000,20280.000000,11262.000000,46519.000000
22123.000000,20303.000000,11209.000000,46519.000000
22150.000000,20048.000000,11248.000000,46504.000000
22148.000000,20041.000000,11210.000000,46527.000000
22137.000000,20046.000000,11235.000000,46503.000000
22127.000000,20045.000000,11205.000000,46500.000000
22127.000000,20007.000000,11199.000000,46525.000000
22092.000000,20005.000000,11191.000000,46509.000000
22078.000000,20265.000000,11204.000000,46529.000000
22063.000000,20010.000000,11167.000000,46497.000000
22055.000000,19978.000000,11169.000000,46520.000000
22079.000000,19996.000000,11182.000000,46481.000000
22052.000000,19979.000000,11181.000000,46475.000000
22090.000000,20244.000000,11161.000000,46487.000000
22047.000000,19980.000000,11164.000000,46449.000000
22048.000000,19960.000000,11134.000000,46443.000000
22016.000000,19980.000000,11131.000000,46474.000000
22015.000000,20227.000000,11138.000000,46449.000000
22018.000000,19945.000000,11164.000000,46480.000000
22045.000000,20257.000000,11126.000000,46455.000000
22016.000000,20236.000000,11114.000000,46439.000000
21999.000000,19944.000000,11114.000000,46451.000000
21994.000000,19920.000000,11111.000000,46455.000000
21996.000000,19919.000000,11094.000000,46443.000000
21970.000000,19935.000000,11086.000000,46416.000000
21987.000000,19891.000000,11056.000000,46415.000000
21983.000000,19932.000000,11083.000000,46441.000000
21975.000000,19917.000000,11057.000000,46436.000000
21958.000000,19913.000000,11076.000000,46423.000000
21959.000000,19917.000000,11069.000000,46409.000000
21943.000000,19921.000000,11023.000000,46403.000000
21908.000000,19887.000000,11033.000000,46407.000000
21927.000000,19887.000000,11033.000000,46400.000000
21897.000000,19881.000000,11038.000000,46431.000000
21905.000000,19920.000000,10996.000000,46415.000000
21927.000000,19895.000000,10984.000000,46411.000000
21924.000000,19896.000000,11019.000000,46401.000000
21949.000000,19883.000000,10986.000000,46377.000000
21878.000000,19859.000000,10975.000000,46361.000000
21908.000000,19852.000000,10974.000000,46379.000000
21898.000000,19883.000000,10984.000000,46369.000000
21879.000000,19845.000000,10972.000000,46359.000000
21869.000000,19868.000000,10978.000000,46397.000000
21888.000000,19828.000000,10947.000000,46379.000000
21892.000000,19832.000000,10964.000000,46359.000000
21861.000000,19851.000000,10951.000000,46360.000000
21830.000000,19828.000000,10936.000000,46361.000000
21844.000000,19816.000000,10890.000000,46343.000000
21839.000000,19793.000000,10898.000000,46369.000000
21786.000000,19817.000000,10923.000000,46335.000000
21821.000000,19781.000000,10892.000000,46321.000000
21822.000000,19765.000000,10893.000000,46328.000000
21805.000000,19788.000000,10880.000000,46314.000000
21809.000000,19796.000000,10848.000000,46330.000000
21787.000000,19775.000000,10859.000000,46335.000000
21791.000000,19768.000000,10867.000000,46295.000000
21788.000000,19783.000000,10892.000000,46312.000000
21819.000000,19803.000000,10860.000000,46339.000000
21757.000000,19770.000000,10863.000000,46307.000000
21771.000000,19767.000000,10811.000000,46307.000000
21771.000000,19753.000000,10843.000000,46298.000000
21745.000000,19747.000000,10808.000000,46287.000000
21743.000000,19739.000000,10822.000000,46299.000000
21721.000000,19747.000000,10801.000000,46301.000000
21741.000000,19716.000000,10809.000000,46294.000000
21718.000000,19721.000000,10808.000000,46274.000000
21722.000000,19735.000000,10746.000000,46289.000000
21726.000000,19717.000000,10772.000000,46252.000000
21737.000000,19706.000000,10769.000000,46255.000000
21675.000000,19695.000000,10739.000000,46252.000000
21706.000000,19679.000000,10764.000000,46255.000000
21691.000000,19674.000000,10733.000000,46241.000000
21688.000000,19692.000000,10753.000000,46237.000000
21684.000000,19633.000000,10725.000000,46234.000000
21691.000000,19662.000000,10719.000000,46231.000000
21660.000000,19683.000000,10701.000000,46206.000000
21667.000000,19646.000000,10674.000000,46215.000000
21625.000000,19631.000000,10671.000000,46219.000000
21629.000000,19643.000000,10673.000000,46213.000000
21625.000000,19618.000000,10664.000000,46218.000000
21633.000000,19623.000000,10646.000000,46211.000000
21575.000000,19612.000000,10609.000000,46182.000000
21579.000000,19588.000000,10577.000000,46166.000000
21541.000000,19569.000000,10556.000000,46144.000000
21505.000000,19573.000000,10564.000000,46139.000000
21538.000000,19545.000000,10545.000000,46114.000000
21497.000000,19541.000000,10531.000000,46133.000000
21488.000000,19556.000000,10507.000000,46122.000000
21477.000000,19544.000000,10508.000000,46105.000000
21489.000000,19543.000000,10527.000000,46133.000000
21467.000000,19547.000000,10512.000000,46106.000000
21491.000000,19549.000000,10493.000000,46115.000000
21456.000000,19546.000000,10499.000000,46121.000000
21459.000000,19516.000000,10484.000000,46108.000000
21433.000000,19515.000000,10487.000000,46110.000000
21485.000000,19510.000000,10497.000000,46110.000000
21484.000000,19546.000000,10487.000000,46118.000000
21493.000000,19551.000000,10509.000000,46114.000000
21466.000000,19543.000000,10500.000000,46134.000000
21480.000000,19565.000000,10535.000000,46139.000000
21472.000000,19528.000000,10490.000000,46115.000000
21454.000000,19539.000000,10504.000000,46131.000000
21478.000000,19556.000000,10544.000000,46133.000000
21475.000000,19553.000000,10550.000000,46164.000000
21485.000000,19576.000000,10587.000000,46174.000000
21527.000000,19596.000000,10593.000000,46176.000000
21536.000000,19623.000000,10584.000000,46164.000000
21578.000000,19601.000000,10640.000000,46174.000000
21591.000000,19615.000000,10634.000000,46190.000000
21577.000000,19629.000000,10673.000000,46210.000000
21609.000000,19645.000000,10680.000000,46217.000000
21652.000000,19689.000000,10729.000000,46239.000000
21707.000000,19665.000000,10770.000000,46274.000000
21741.000000,19763.000000,10793.000000,46279.000000
21707.000000,19753.000000,10829.000000,46302.000000
21788.000000,19807.000000,10863.000000,46312.000000
21817.000000,19820.000000,10912.000000,46314.000000
21875.000000,19847.000000,10959.000000,46377.000000
21900.000000,19880.000000,10991.000000,46404.000000
21956.000000,19915.000000,11095.000000,46415.000000
21987.000000,19959.000000,11103.000000,46475.000000
22036.000000,19961.000000,11165.000000,46501.000000
22094.000000,20005.000000,11201.000000,46528.000000
22109.000000,20263.000000,11263.000000,46539.000000
22153.000000,20323.000000,11311.000000,46575.000000
22218.000000,20355.000000,11374.000000,46579.000000
22212.000000,20127.000000,11405.000000,46613.000000
22295.000000,20144.000000,11392.000000,46652.000000
22269.000000,20423.000000,11420.000000,46632.000000
22249.000000,20431.000000,11410.000000,46634.000000
22286.000000,20409.000000,11422.000000,46642.000000
22523.000000,20459.000000,11436.000000,46623.000000
22307.000000,20163.000000,11413.000000,46636.000000
22255.000000,20156.000000,11397.000000,46635.000000
22272.000000,20411.000000,11409.000000,46609.000000
22255.000000,20139.000000,11416.000000,46609.000000
22257.000000,20389.000000,11392.000000,46611.000000
22264.000000,20403.000000,11407.000000,46581.000000
22242.000000,20093.000000,11386.000000,46616.000000
22238.000000,20380.000000,11361.000000,46641.000000
22191.000000,20113.000000,11398.000000,46620.000000
22211.000000,20112.000000,11382.000000,46613.000000
22235.000000,20361.000000,11359.000000,46608.000000
22204.000000,20104.000000,11376.000000,46594.000000
22195.000000,20104.000000,11333.000000,46599.000000
22218.000000,20102.000000,11329.000000,46605.000000
22211.000000,20098.000000,11335.000000,46584.000000
22215.000000,20092.000000,11313.000000,46595.000000
22460.000000,20106.000000,11332.000000,46617.000000
22204.000000,20078.000000,11305.000000,46595.000000
22200.000000,20082.000000,11368.000000,46572.000000
22210.000000,20109.000000,11307.000000,46547.000000
22168.000000,20082.000000,11316.000000,46565.000000
22166.000000,20337.000000,11312.000000,46551.000000
22182.000000,20049.000000,11307.000000,46567.000000
22172.000000,20060.000000,11327.000000,46603.000000
22178.000000,20089.000000,11315.000000,46561.000000
22161.000000,20315.000000,11270.000000,46577.000000
22137.000000,20040.000000,11265.000000,46551.000000
22120.000000,20041.000000,11257.000000,46543.000000
22158.000000,20055.000000,11271.000000,46529.000000
22139.000000,20275.000000,11280.000000,46535.000000
22116.000000,20300.000000,11248.000000,46564.000000
22139.000000,20293.000000,11274.000000,46543.000000
22100.000000,20033.000000,11243.000000,46536.000000
22097.000000,19996.000000,11247.000000,46521.000000
22078.000000,20008.000000,11229.000000,46495.000000
22076.000000,20264.000000,11207.000000,46520.000000
22080.000000,20017.000000,11196.000000,46497.000000
22067.000000,20257.000000,11202.000000,46503.000000
22065.000000,19985.000000,11178.000000,46503.000000
22064.000000,20007.000000,11150.000000,46488.000000
22044.000000,20252.000000,11205.000000,46525.000000
22051.000000,19999.000000,11182.000000,46521.000000
22028.000000,19995.000000,11207.000000,46503.000000
22045.000000,19991.000000,11188.000000,46475.000000
22006.000000,19977.000000,11169.000000,46475.000000
22039.000000,19974.000000,11151.000000,46497.000000
22036.000000,19937.000000,11115.000000,46469.000000
22028.000000,19959.000000,11149.000000,46476.000000
22022.000000,19960.000000,11120.000000,46467.000000
22030.000000,19931.000000,11111.000000,46480.000000
22006.000000,19940.000000,11113.000000,46491.000000
21988.000000,19947.000000,11100.000000,46479.000000
22012.000000,19931.000000,11090.000000,46459.000000
22003.000000,19955.000000,11074.000000,46456.000000
21988.000000,19907.000000,11085.000000,46451.000000
21962.000000,19939.000000,11069.000000,46483.000000
21967.000000,19931.000000,11065.000000,46428.000000
21955.000000,19901.000000,11100.000000,46433.000000
21962.000000,19900.000000,11065.000000,46439.000000
21944.000000,19896.000000,11022.000000,46424.000000
21955.000000,19864.000000,11006.000000,46403.000000
21921.000000,19882.000000,11014.000000,46399.000000
21883.000000,19849.000000,11006.000000,46439.000000
21891.000000,19867.000000,10981.000000,46411.000000
21901.000000,19875.000000,11001.000000,46399.000000
21911.000000,19855.000000,10984.000000,46381.000000
21889.000000,19891.000000,10954.000000,46379.000000
21900.000000,19840.000000,10957.000000,46411.000000
21881.000000,19856.000000,10951.000000,46377.000000
21888.000000,19859.000000,10944.000000,46405.000000
21861.000000,19823.000000,10953.000000,46381.000000
21861.000000,19828.000000,10979.000000,46396.000000
21866.000000,19828.000000,10956.000000,46404.000000
21875.000000,19824.000000,10931.000000,46375.000000
21911.000000,19837.000000,10924.000000,46380.000000
21863.000000,19784.000000,10923.000000,46352.000000
21821.000000,19831.000000,10912.000000,46348.000000
21818.000000,19788.000000,10878.000000,46333.000000
21831.000000,19791.000000,10893.000000,46343.000000
21831.000000,19779.000000,10893.000000,46335.000000
21821.000000,19767.000000,10882.000000,46344.000000
21807.000000,19791.000000,10876.000000,46338.000000
21796.000000,19791.000000,10879.000000,46363.000000
21772.000000,19767.000000,10865.000000,46314.000000
21795.000000,19735.000000,10848.000000,46302.000000
21779.000000,19743.000000,10857.000000,46335.000000
21802.000000,19759.000000,10844.000000,46318.000000
21747.000000,19733.000000,10801.000000,46304.000000
21743.000000,19729.000000,10781.000000,46320.000000
21701.000000,19721.000000,10803.000000,46285.000000
21683.000000,19719.000000,10802.000000,46266.000000
21705.000000,19695.000000,10756.000000,46285.000000
21660.000000,19678.000000,10747.000000,46277.000000
21661.000000,19667.000000,10740.000000,46259.000000
21650.000000,19656.000000,10697.000000,46244.000000
21605.000000,19652.000000,10660.000000,46224.000000
21580.000000,19624.000000,10670.000000,46225.000000
21580.000000,19633.000000,10650.000000,46233.000000
21582.000000,19620.000000,10653.000000,46220.000000
21547.000000,19603.000000,10649.000000,46212.000000
21547.000000,19615.000000,10634.000000,46222.000000
21551.000000,19617.000000,10622.000000,46180.000000
21534.000000,19586.000000,10605.000000,46161.000000
21546.000000,19567.000000,10607.000000,46186.000000
21539.000000,19599.000000,10601.000000,46176.000000
21544.000000,19587.000000,10584.000000,46166.000000
21550.000000,19595.000000,10591.000000,46189.000000
21555.000000,19595.000000,10594.000000,46233.000000
21553.000000,19604.000000,10606.000000,46199.000000
21520.000000,19589.000000,10622.000000,46181.000000
21534.000000,19591.000000,10618.000000,46182.000000
21542.000000,19580.000000,10589.000000,46184.000000
21587.000000,19611.000000,10609.000000,46182.000000
21575.000000,19571.000000,10620.000000,46217.000000
21567.000000,19634.000000,10632.000000,46249.000000
21570.000000,19625.000000,10637.000000,46224.000000
21589.000000,19622.000000,10660.000000,46226.000000
21633.000000,19637.000000,10642.000000,46244.000000
21655.000000,19657.000000,10662.000000,46238.000000
21672.000000,19657.000000,10692.000000,46232.000000
21664.000000,19708.000000,10722.000000,46247.000000
21659.000000,19651.000000,10752.000000,46261.000000
21692.000000,19719.000000,10752.000000,46259.000000
21742.000000,19747.000000,10801.000000,46296.000000
21769.000000,19755.000000,10833.000000,46311.000000
21785.000000,19764.000000,10834.000000,46348.000000
21807.000000,19783.000000,10907.000000,46332.000000
21873.000000,19800.000000,10951.000000,46399.000000
21920.000000,19853.000000,10969.000000,46378.000000
21924.000000,19873.000000,11031.000000,46437.000000
21987.000000,19921.000000,11052.000000,46448.000000
22008.000000,19937.000000,11111.000000,46485.000000
22048.000000,20239.000000,11175.000000,46499.000000
22129.000000,20248.000000,11204.000000,46540.000000
22140.000000,20046.000000,11259.000000,46555.000000
22195.000000,20057.000000,11348.000000,46586.000000
22219.000000,20106.000000,11376.000000,46617.000000
22259.000000,20388.000000,11395.000000,46642.000000
22267.000000,20152.000000,11453.000000,46634.000000
22280.000000,20172.000000,11439.000000,46663.000000
22311.000000,20441.000000,11483.000000,46707.000000
22312.000000,20423.000000,11471.000000,46674.000000
22341.000000,20225.000000,11491.000000,46700.000000
22291.000000,20169.000000,11491.000000,46685.000000
22292.000000,20408.000000,11484.000000,46657.000000
22313.000000,20181.000000,11445.000000,46678.000000
22298.000000,20157.000000,11438.000000,46668.000000
22275.000000,20167.000000,11461.000000,46664.000000
22260.000000,20163.000000,11458.000000,46637.000000
22287.000000,20146.000000,11465.000000,46664.000000
22272.000000,20184.000000,11437.000000,46636.000000
22237.000000,20415.000000,11418.000000,46645.000000
22231.000000,20130.000000,11393.000000,46657.000000
22224.000000,20137.000000,11407.000000,46622.000000
22215.000000,20108.000000,11394.000000,46613.000000
22206.000000,20360.000000,11399.000000,46625.000000
22258.000000,20135.000000,11409.000000,46635.000000
22199.000000,20126.000000,11373.000000,46655.000000
22240.000000,20125.000000,11424.000000,46634.000000
22228.000000,20383.000000,11396.000000,46638.000000
22211.000000,20353.000000,11384.000000,46619.000000
22189.000000,20111.000000,11366.000000,46614.000000
22205.000000,20081.000000,11373.000000,46630.000000
22195.000000,20078.000000,11362.000000,46608.000000
22193.000000,20325.000000,11348.000000,46608.000000
22161.000000,20087.000000,11368.000000,46599.000000
22185.000000,20097.000000,11377.000000,46611.000000
22179.000000,20356.000000,11355.000000,46605.000000
22194.000000,20074.000000,11359.000000,46620.000000
22165.000000,20099.000000,11352.000000,46612.000000
22151.000000,20333.000000,11316.000000,46615.000000
22151.000000,20315.000000,11327.000000,46598.000000
22129.000000,20311.000000,11319.000000,46587.000000
22143.000000,20077.000000,11343.000000,46605.000000
22140.000000,20312.000000,11301.000000,46585.000000
22122.000000,20060.000000,11327.000000,46599.000000
22144.000000,20055.000000,11276.000000,46591.000000
22114.000000,20285.000000,11273.000000,46576.000000
22091.000000,20304.000000,11285.000000,46562.000000
22103.000000,20041.000000,11284.000000,46567.000000
22081.000000,20284.000000,11246.000000,46570.000000
22084.000000,20025.000000,11265.000000,46560.000000
22060.000000,20006.000000,11256.000000,46555.000000
22055.000000,20017.000000,11267.000000,46493.000000
22081.000000,20009.000000,11261.000000,46540.000000
22044.000000,20027.000000,11260.000000,46561.000000
22063.000000,20279.000000,11237.000000,46532.000000
22054.000000,20014.000000,11225.000000,46509.000000
22035.000000,20261.000000,11222.000000,46531.000000
22052.000000,19959.000000,11224.000000,46537.000000
22041.000000,20022.000000,11211.000000,46507.000000
21997.000000,19977.000000,11216.000000,46527.000000
21991.000000,19965.000000,11196.000000,46475.000000
22038.000000,19983.000000,11193.000000,46527.000000
21989.000000,19967.000000,11192.000000,46515.000000
22015.000000,19948.000000,11179.000000,46488.000000
21976.000000,19912.000000,11198.000000,46495.000000
21969.000000,19919.000000,11158.000000,46487.000000
21959.000000,19925.000000,11136.000000,46480.000000
21984.000000,19911.000000,11116.000000,46475.000000
21951.000000,19924.000000,11133.000000,46507.000000
21950.000000,19895.000000,11125.000000,46475.000000
21907.000000,19915.000000,11113.000000,46492.000000
21891.000000,19903.000000,11140.000000,46477.000000
21919.000000,19928.000000,11118.000000,46476.000000
21900.000000,19933.000000,11093.000000,46479.000000
21904.000000,19883.000000,11089.000000,46464.000000
21913.000000,19895.000000,11083.000000,46454.000000
21868.000000,19864.000000,11067.000000,46439.000000
21880.000000,19864.000000,11041.000000,46447.000000
21811.000000,19865.000000,11072.000000,46412.000000
21866.000000,19883.000000,11055.000000,46430.000000
21857.000000,19867.000000,11050.000000,46455.000000
21884.000000,19865.000000,11058.000000,46419.000000
21860.000000,19884.000000,11071.000000,46456.000000
21855.000000,19852.000000,11051.000000,46443.000000
21880.000000,19875.000000,11062.000000,46431.000000
21842.000000,19847.000000,10984.000000,46400.000000
21849.000000,19823.000000,11039.000000,46399.000000
21853.000000,19840.000000,11026.000000,46447.000000
21845.000000,19840.000000,11009.000000,46422.000000
21825.000000,19845.000000,11051.000000,46433.000000
21836.000000,19851.000000,11025.000000,46403.000000
21841.000000,19841.000000,11021.000000,46426.000000
21847.000000,19847.000000,10981.000000,46427.000000
21813.000000,19839.000000,11027.000000,46424.000000
21797.000000,19823.000000,10998.000000,46388.000000
21799.000000,19835.000000,10994.000000,46389.000000
21824.000000,19816.000000,10959.000000,46421.000000
21799.000000,19804.000000,10980.000000,46383.000000
21783.000000,19799.000000,10989.000000,46397.000000
21742.000000,19825.000000,10947.000000,46379.000000
21747.000000,19795.000000,10953.000000,46376.000000
21772.000000,19799.000000,10916.000000,46352.000000
21723.000000,19772.000000,10928.000000,46357.000000
21716.000000,19755.000000,10913.000000,46363.000000
21696.000000,19749.000000,10872.000000,46339.000000
21670.000000,19715.000000,10852.000000,46331.000000
21673.000000,19715.000000,10845.000000,46317.000000
21667.000000,19686.000000,10831.000000,46317.000000
21646.000000,19686.000000,10836.000000,46295.000000
21601.000000,19669.000000,10802.000000,46293.000000
21605.000000,19684.000000,10764.000000,46290.000000
21605.000000,19651.000000,10738.000000,46256.000000
21579.000000,19638.000000,10744.000000,46272.000000
21556.000000,19652.000000,10746.000000,46266.000000
21585.000000,19657.000000,10751.000000,46282.000000
21536.000000,19615.000000,10727.000000,46277.000000
21540.000000,19635.000000,10705.000000,46265.000000
21511.000000,19640.000000,10683.000000,46241.000000
21497.000000,19617.000000,10721.000000,46253.000000
21523.000000,19593.000000,10699.000000,46268.000000
21512.000000,19622.000000,10735.000000,46279.000000
21533.000000,19599.000000,10716.000000,46243.000000
21541.000000,19609.000000,10717.000000,46261.000000
21526.000000,19588.000000,10740.000000,46246.000000
21586.000000,19651.000000,10695.000000,46247.000000
21538.000000,19647.000000,10742.000000,46272.000000
21537.000000,19628.000000,10736.000000,46270.000000
21577.000000,19689.000000,10744.000000,46299.000000
21562.000000,19659.000000,10756.000000,46268.000000
21566.000000,19647.000000,10774.000000,46280.000000
21577.000000,19656.000000,10787.000000,46278.000000
21578.000000,19694.000000,10809.000000,46293.000000
21608.000000,19698.000000,10817.000000,46286.000000
21617.000000,19723.000000,10829.000000,46316.000000
21619.000000,19716.000000,10887.000000,46340.000000
21683.000000,19764.000000,10912.000000,46343.000000
21710.000000,19727.000000,10934.000000,46339.000000
21737.000000,19784.000000,10933.000000,46383.000000
21754.000000,19820.000000,10999.000000,46379.000000
21781.000000,19841.000000,11040.000000,46432.000000
21822.000000,19879.000000,11083.000000,46450.000000
21860.000000,19867.000000,11129.000000,46472.000000
21873.000000,19927.000000,11175.000000,46508.000000
21965.000000,19955.000000,11186.000000,46539.000000
21986.000000,20241.000000,11219.000000,46541.000000
22042.000000,20025.000000,11301.000000,46579.000000
22056.000000,20320.000000,11385.000000,46621.000000
22146.000000,20085.000000,11413.000000,46639.000000
22164.000000,20136.000000,11473.000000,46666.000000
22220.000000,20172.000000,11504.000000,46709.000000
22244.000000,20437.000000,11554.000000,46709.000000
22287.000000,20241.000000,11565.000000,46746.000000
22283.000000,20440.000000,11590.000000,46734.000000
22287.000000,20210.000000,11574.000000,46739.000000
22316.000000,20267.000000,11607.000000,46769.000000
22287.000000,20471.000000,11600.000000,46988.000000
22303.000000,20231.000000,11608.000000,46739.000000
22313.000000,20231.000000,11602.000000,46735.000000
22301.000000,20177.000000,11564.000000,46754.000000
22300.000000,20157.000000,11547.000000,46735.000000
22252.000000,20173.000000,11535.000000,46735.000000
22222.000000,20411.000000,11542.000000,46714.000000
22279.000000,20437.000000,11540.000000,46717.000000
22254.000000,20179.000000,11539.000000,46710.000000
22230.000000,20431.000000,11518.000000,46695.000000
22232.000000,20451.000000,11510.000000,46714.000000
22230.000000,20192.000000,11524.000000,46703.000000
22240.000000,20168.000000,11505.000000,46717.000000
22199.000000,20184.000000,11489.000000,46690.000000
22214.000000,20152.000000,11471.000000,46695.000000
22192.000000,20160.000000,11497.000000,46698.000000
22199.000000,20383.000000,11474.000000,46674.000000
22221.000000,20119.000000,11479.000000,46666.000000
22236.000000,20146.000000,11494.000000,46705.000000
22220.000000,20136.000000,11449.000000,46698.000000
22188.000000,20123.000000,11458.000000,46670.000000
22157.000000,20113.000000,11441.000000,46664.000000
22151.000000,20407.000000,11414.000000,46671.000000
22181.000000,20103.000000,11469.000000,46646.000000
22161.000000,20112.000000,11416.000000,46650.000000
22180.000000,20122.000000,11433.000000,46694.000000
22168.000000,20360.000000,11416.000000,46655.000000
22161.000000,20090.000000,11450.000000,46647.000000
22172.000000,20104.000000,11426.000000,46667.000000
22163.000000,20103.000000,11404.000000,46662.000000
22170.000000,20088.000000,11409.000000,46640.000000
22135.000000,20091.000000,11405.000000,46654.000000
22127.000000,20080.000000,11387.000000,46650.000000
22149.000000,20056.000000,11395.000000,46654.000000
22127.000000,20361.000000,11385.000000,46653.000000
22109.000000,20351.000000,11369.000000,46624.000000
22126.000000,20352.000000,11367.000000,46611.000000
22081.000000,20323.000000,11344.000000,46630.000000
22087.000000,20280.000000,11347.000000,46609.000000
22071.000000,20320.000000,11344.000000,46609.000000
22093.000000,20075.000000,11351.000000,46600.000000
22094.000000,20043.000000,11351.000000,46628.000000
22107.000000,20303.000000,11357.000000,46600.000000
22064.000000,20291.000000,11320.000000,46595.000000
22042.000000,20033.000000,11337.000000,46613.000000
22052.000000,20283.000000,11300.000000,46616.000000
22056.000000,20012.000000,11308.000000,46597.000000
22048.000000,20032.000000,11252.000000,46584.000000
22295.000000,19999.000000,11311.000000,46573.000000
22025.000000,19984.000000,11283.000000,46569.000000
22045.000000,19995.000000,11240.000000,46586.000000
22015.000000,19989.000000,11277.000000,46563.000000
22015.000000,19971.000000,11256.000000,46585.000000
22012.000000,19995.000000,11266.000000,46559.000000
21950.000000,19959.000000,11248.000000,46545.000000
21985.000000,20231.000000,11246.000000,46552.000000
21943.000000,19963.000000,11219.000000,46575.000000
21983.000000,19943.000000,11202.000000,46547.000000
21954.000000,19961.000000,11210.000000,46556.000000
21949.000000,19963.000000,11174.000000,46497.000000
21943.000000,19947.000000,11181.000000,46535.000000
21924.000000,19953.000000,11168.000000,46549.000000
21947.000000,19940.000000,11168.000000,46532.000000
21907.000000,19925.000000,11203.000000,46536.000000
21877.000000,19932.000000,11172.000000,46506.000000
21933.000000,19921.000000,11157.000000,46485.000000
21903.000000,19908.000000,11167.000000,46511.000000
21853.000000,19908.000000,11153.000000,46503.000000
21883.000000,19899.000000,11134.000000,46516.000000
21865.000000,19911.000000,11125.000000,46496.000000
21842.000000,19840.000000,11091.000000,46487.000000
21827.000000,19863.000000,11115.000000,46463.000000
21841.000000,19867.000000,11097.000000,46470.000000
21829.000000,19863.000000,11070.000000,46451.000000
21791.000000,19875.000000,11084.000000,46463.000000
21815.000000,19857.000000,11054.000000,46443.000000
21803.000000,19881.000000,11080.000000,46469.000000
21780.000000,19853.000000,11039.000000,46463.000000
21801.000000,19835.000000,11055.000000,46428.000000
21780.000000,19849.000000,11077.000000,46428.000000
21786.000000,19812.000000,11052.000000,46444.000000
21777.000000,19835.000000,11020.000000,46453.000000
21811.000000,19827.000000,11046.000000,46452.000000
21750.000000,19837.000000,11017.000000,46457.000000
21763.000000,19825.000000,11014.000000,46424.000000
21714.000000,19787.000000,10995.000000,46420.000000
21740.000000,19799.000000,11003.000000,46435.000000
21753.000000,19792.000000,10999.000000,46445.000000
21730.000000,19803.000000,11000.000000,46428.000000
21701.000000,19799.000000,11004.000000,46411.000000
21722.000000,19787.000000,10988.000000,46463.000000
21713.000000,19781.000000,10956.000000,46407.000000
21678.000000,19745.000000,10955.000000,46387.000000
21679.000000,19744.000000,10944.000000,46413.000000
21635.000000,19769.000000,10921.000000,46369.000000
21640.000000,19713.000000,10912.000000,46377.000000
21646.000000,19727.000000,10903.000000,46353.000000
21605.000000,19708.000000,10871.000000,46335.000000
21587.000000,19659.000000,10854.000000,46351.000000
21550.000000,19656.000000,10845.000000,46294.000000
21555.000000,19623.000000,10817.000000,46327.000000
21571.000000,19680.000000,10807.000000,46330.000000
21563.000000,19675.000000,10803.000000,46311.000000
21535.000000,19645.000000,10777.000000,46284.000000
21545.000000,19635.000000,10800.000000,46300.000000
21491.000000,19657.000000,10763.000000,46292.000000
21525.000000,19639.000000,10760.000000,46286.000000
21534.000000,19642.000000,10773.000000,46289.000000
21505.000000,19668.000000,10785.000000,46287.000000
21470.000000,19661.000000,10789.000000,46285.000000
21505.000000,19611.000000,10782.000000,46302.000000
21498.000000,19612.000000,10759.000000,46296.000000
21481.000000,19644.000000,10772.000000,46270.000000
21502.000000,19632.000000,10771.000000,46276.000000
21524.000000,19660.000000,10786.000000,46316.000000
21550.000000,19645.000000,10816.000000,46326.000000
21541.000000,19708.000000,10796.000000,46344.000000
21582.000000,19679.000000,10850.000000,46343.000000
21551.000000,19679.000000,10819.000000,46337.000000
21566.000000,19708.000000,11101.000000,46351.000000
21617.000000,19704.000000,10902.000000,46357.000000
21629.000000,19743.000000,10892.000000,46373.000000
21666.000000,19736.000000,10936.000000,46411.000000
21644.000000,19745.000000,10935.000000,46395.000000
21665.000000,19799.000000,10943.000000,46415.000000
21697.000000,19781.000000,10986.000000,46451.000000
21720.000000,19791.000000,11002.000000,46413.000000
21759.000000,19836.000000,11073.000000,46459.000000
21792.000000,19873.000000,11133.000000,46483.000000
21849.000000,19896.000000,11155.000000,46519.000000
21860.000000,19911.000000,11163.000000,46517.000000
21906.000000,19919.000000,11235.000000,46517.000000
21960.000000,19972.000000,11275.000000,46577.000000
21990.000000,20004.000000,11312.000000,46599.000000
22015.000000,20297.000000,11395.000000,46654.000000
22073.000000,20055.000000,11415.000000,46699.000000
22079.000000,20076.000000,11455.000000,46683.000000
22133.000000,20401.000000,11498.000000,46690.000000
22141.000000,20125.000000,11520.000000,46699.000000
22168.000000,20165.000000,11544.000000,46721.000000
22182.000000,20436.000000,11570.000000,46741.000000
22186.000000,20176.000000,11580.000000,46749.000000
22197.000000,20419.000000,11600.000000,46752.000000
22217.000000,20190.000000,11611.000000,46725.000000
22186.000000,20179.000000,11598.000000,46741.000000
22192.000000,20178.000000,11569.000000,46760.000000
22164.000000,20209.000000,11577.000000,46774.000000
22192.000000,20165.000000,11604.000000,46743.000000
22200.000000,20445.000000,11577.000000,46755.000000
22160.000000,20180.000000,11547.000000,46732.000000
22162.000000,20403.000000,11526.000000,46728.000000
22120.000000,20135.000000,11518.000000,46762.000000
22136.000000,20154.000000,11499.000000,46732.000000
22166.000000,20129.000000,11532.000000,46713.000000
22144.000000,20127.000000,11533.000000,46714.000000
22137.000000,20127.000000,11495.000000,46702.000000
22146.000000,20383.000000,11510.000000,46727.000000
22159.000000,20100.000000,11512.000000,46740.000000
22423.000000,20072.000000,11508.000000,46717.000000
22173.000000,20142.000000,11522.000000,46743.000000
22154.000000,20107.000000,11503.000000,46714.000000
22123.000000,20120.000000,11495.000000,46707.000000
22139.000000,20111.000000,11459.000000,46681.000000
22108.000000,20083.000000,11469.000000,46692.000000
22106.000000,20359.000000,11474.000000,46714.000000
22100.000000,20107.000000,11480.000000,46712.000000
22119.000000,20125.000000,11472.000000,46687.000000
22096.000000,20088.000000,11478.000000,46692.000000
22114.000000,20095.000000,11429.000000,46659.000000
22071.000000,20324.000000,11431.000000,46685.000000
22083.000000,20074.000000,11463.000000,46686.000000
22071.000000,20373.000000,11436.000000,46704.000000
22094.000000,20077.000000,11415.000000,46669.000000
22053.000000,20079.000000,11438.000000,46700.000000
22057.000000,20068.000000,11407.000000,46667.000000
22041.000000,20051.000000,11411.000000,46915.000000
22043.000000,20303.000000,11420.000000,46651.000000
22040.000000,20053.000000,11385.000000,46667.000000
22036.000000,20059.000000,11386.000000,46658.000000
22039.000000,20076.000000,11412.000000,46640.000000
22051.000000,20065.000000,11382.000000,46634.000000
22031.000000,20263.000000,11374.000000,46644.000000
21994.000000,20024.000000,11360.000000,46645.000000
22007.000000,20023.000000,11361.000000,46631.000000
22015.000000,20033.000000,11405.000000,46638.000000
21989.000000,20048.000000,11369.000000,46622.000000
21976.000000,20015.000000,11326.000000,46627.000000
21885.000000,20000.000000,11319.000000,46636.000000
21970.000000,20277.000000,11365.000000,46627.000000
21956.000000,20022.000000,11310.000000,46624.000000
21975.000000,20012.000000,11319.000000,46635.000000
21941.000000,19979.000000,11301.000000,46609.000000
21954.000000,19974.000000,11309.000000,46608.000000
21928.000000,20240.000000,11312.000000,46612.000000
21932.000000,19985.000000,11286.000000,46576.000000
21936.000000,20010.000000,11295.000000,46604.000000
21892.000000,19937.000000,11273.000000,46605.000000
21886.000000,19939.000000,11249.000000,46603.000000
21888.000000,19933.000000,11273.000000,46588.000000
21855.000000,19963.000000,11262.000000,46585.000000
21897.000000,19951.000000,11268.000000,46572.000000
21871.000000,19932.000000,11218.000000,46568.000000
21829.000000,19941.000000,11230.000000,46573.000000
21813.000000,19920.000000,11200.000000,46579.000000
21842.000000,19927.000000,11218.000000,46547.000000
21835.000000,19919.000000,11211.000000,46525.000000
21831.000000,19925.000000,11215.000000,46555.000000
21835.000000,19915.000000,11212.000000,46531.000000
21800.000000,19907.000000,11196.000000,46531.000000
21812.000000,19935.000000,11197.000000,46539.000000
21808.000000,19879.000000,11211.000000,46519.000000
21787.000000,19863.000000,11149.000000,46513.000000
21785.000000,19893.000000,11174.000000,46521.000000
21798.000000,19868.000000,11156.000000,46492.000000
21775.000000,19867.000000,11180.000000,46519.000000
21756.000000,19879.000000,11124.000000,46521.000000
21750.000000,19871.000000,11149.000000,46537.000000
21745.000000,19849.000000,11136.000000,46479.000000
21725.000000,19828.000000,11102.000000,46511.000000
21733.000000,19865.000000,11094.000000,46511.000000
21728.000000,19851.000000,11112.000000,46495.000000
21700.000000,19824.000000,11099.000000,46468.000000
21725.000000,19835.000000,11114.000000,46507.000000
21735.000000,19829.000000,11081.000000,46487.000000
21728.000000,19839.000000,11098.000000,46467.000000
21716.000000,19801.000000,11077.000000,46495.000000
21682.000000,19825.000000,11082.000000,46477.000000
21661.000000,19839.000000,11090.000000,46451.000000
21658.000000,19819.000000,11077.000000,46473.000000
21662.000000,19820.000000,11031.000000,46467.000000
21648.000000,19781.000000,11041.000000,46463.000000
21641.000000,19764.000000,11052.000000,46471.000000
21653.000000,19807.000000,10994.000000,46422.000000
21661.000000,19787.000000,11030.000000,46443.000000
21657.000000,19799.000000,10999.000000,46431.000000
21622.000000,19767.000000,10972.000000,46423.000000
21602.000000,19735.000000,10975.000000,46415.000000
21615.000000,19739.000000,10982.000000,46409.000000
21573.000000,19729.000000,10949.000000,46395.000000
21579.000000,19737.000000,10928.000000,46403.000000
21565.000000,19705.000000,10935.000000,46400.000000
21526.000000,19703.000000,10918.000000,46400.000000
21533.000000,19699.000000,10891.000000,46355.000000
21489.000000,19709.000000,10852.000000,46373.000000
21476.000000,19644.000000,10848.000000,46361.000000
21466.000000,19669.000000,10847.000000,46349.000000
21443.000000,19650.000000,10806.000000,46312.000000
21420.000000,19642.000000,10818.000000,46306.000000
21408.000000,19634.000000,10804.000000,46328.000000
21422.000000,19639.000000,10818.000000,46317.000000
21417.000000,19609.000000,10814.000000,46295.000000
21418.000000,19579.000000,10787.000000,46293.000000
21371.000000,19594.000000,10788.000000,46297.000000
21386.000000,19597.000000,10759.000000,46317.000000
21361.000000,19598.000000,10769.000000,46301.000000
21376.000000,19621.000000,10766.000000,46335.000000
21376.000000,19634.000000,10797.000000,46296.000000
21359.000000,19581.000000,10765.000000,46283.000000
21365.000000,19597.000000,10772.000000,46278.000000
21385.000000,19601.000000,10769.000000,46284.000000
21383.000000,19632.000000,10772.000000,46313.000000
21437.000000,19643.000000,10814.000000,46330.000000
21409.000000,19648.000000,10817.000000,46337.000000
21437.000000,19623.000000,10822.000000,46339.000000
21490.000000,19677.000000,10875.000000,46359.000000
21490.000000,19658.000000,10863.000000,46356.000000
21509.000000,19701.000000,10920.000000,46373.000000
21552.000000,19701.000000,10932.000000,46387.000000
21569.000000,19757.000000,10948.000000,46372.000000
21596.000000,19757.000000,10997.000000,46417.000000
21599.000000,19792.000000,11023.000000,46411.000000
21625.000000,19807.000000,11035.000000,46438.000000
21669.000000,19832.000000,11086.000000,46475.000000
21728.000000,19823.000000,11117.000000,46499.000000
21749.000000,19867.000000,11168.000000,46536.000000
21767.000000,19923.000000,11224.000000,46545.000000
21843.000000,19928.000000,11232.000000,46563.000000
21884.000000,19977.000000,11285.000000,46612.000000
21920.000000,20001.000000,11370.000000,46641.000000
21953.000000,20283.000000,11381.000000,46651.000000
22019.000000,20352.000000,11466.000000,46726.000000
22071.000000,20364.000000,11518.000000,46731.000000
22128.000000,20149.000000,11564.000000,46744.000000
22109.000000,20144.000000,11563.000000,46751.000000
22132.000000,20157.000000,11580.000000,46775.000000
22376.000000,20174.000000,11588.000000,46764.000000
22152.000000,20163.000000,11593.000000,46755.000000
22150.000000,20164.000000,11595.000000,46781.000000
22184.000000,20192.000000,11636.000000,46798.000000
22148.000000,20423.000000,11592.000000,46775.000000
22161.000000,20157.000000,11615.000000,46810.000000
22170.000000,20146.000000,11575.000000,46756.000000
22134.000000,20151.000000,11552.000000,46732.000000
22107.000000,20407.000000,11573.000000,46769.000000
22126.000000,20124.000000,11590.000000,46782.000000
22346.000000,20387.000000,11575.000000,46742.000000
22116.000000,20120.000000,11546.000000,46752.000000
22091.000000,20123.000000,11515.000000,46711.000000
22057.000000,20113.000000,11543.000000,46722.000000
22078.000000,20371.000000,11528.000000,46757.000000
22055.000000,20108.000000,11547.000000,46765.000000
22105.000000,20359.000000,11538.000000,46707.000000
22059.000000,20365.000000,11505.000000,46719.000000
22067.000000,20339.000000,11502.000000,46713.000000
22050.000000,20096.000000,11521.000000,46749.000000
22051.000000,20343.000000,11491.000000,46723.000000
22063.000000,20116.000000,11517.000000,46735.000000
22081.000000,20091.000000,11493.000000,46743.000000
22046.000000,20353.000000,11506.000000,46709.000000
22037.000000,20072.000000,11471.000000,46716.000000
22051.000000,20085.000000,11464.000000,46695.000000
22012.000000,20071.000000,11423.000000,46691.000000
22023.000000,20081.000000,11449.000000,46705.000000
22009.000000,20080.000000,11477.000000,46690.000000
21976.000000,20068.000000,11454.000000,46705.000000
22017.000000,20319.000000,11461.000000,46695.000000
22000.000000,20073.000000,11411.000000,46670.000000
22008.000000,20031.000000,11424.000000,46673.000000
21969.000000,20033.000000,11451.000000,46666.000000
21939.000000,19995.000000,11422.000000,46677.000000
21956.000000,20274.000000,11416.000000,46664.000000
21965.000000,20283.000000,11390.000000,46655.000000
21954.000000,20047.000000,11397.000000,46682.000000
21960.000000,20296.000000,11381.000000,46673.000000
21977.000000,20295.000000,11369.000000,46662.000000
21925.000000,20028.000000,11362.000000,46666.000000
21917.000000,20003.000000,11330.000000,46639.000000
21911.000000,20019.000000,11373.000000,46666.000000
21900.000000,20007.000000,11345.000000,46644.000000
21869.000000,19987.000000,11330.000000,46647.000000
21908.000000,20014.000000,11328.000000,46628.000000
21873.000000,20249.000000,11296.000000,46627.000000
21915.000000,19991.000000,11310.000000,46613.000000
21883.000000,19967.000000,11315.000000,46610.000000
21832.000000,19955.000000,11315.000000,46615.000000
21843.000000,20259.000000,11273.000000,46638.000000
21877.000000,19997.000000,11288.000000,46588.000000
21843.000000,19939.000000,11301.000000,46604.000000
21887.000000,19955.000000,11291.000000,46615.000000
21843.000000,19961.000000,11261.000000,46576.000000
21811.000000,19931.000000,11256.000000,46572.000000
21834.000000,19931.000000,11273.000000,46573.000000
21815.000000,19931.000000,11259.000000,46585.000000
21849.000000,19913.000000,11247.000000,46589.000000
21806.000000,19947.000000,11236.000000,46602.000000
21812.000000,19937.000000,11215.000000,46575.000000
21775.000000,19905.000000,11203.000000,46592.000000
21788.000000,19941.000000,11248.000000,46564.000000
21793.000000,19916.000000,11221.000000,46575.000000
21748.000000,19917.000000,11189.000000,46577.000000
21740.000000,19873.000000,11194.000000,46540.000000
21739.000000,19863.000000,11180.000000,46537.000000
21733.000000,19869.000000,11156.000000,46536.000000
21700.000000,19855.000000,11125.000000,46527.000000
21694.000000,19836.000000,11122.000000,46527.000000
21696.000000,19840.000000,11125.000000,46539.000000
21676.000000,19835.000000,11139.000000,46527.000000
21665.000000,19820.000000,11121.000000,46512.000000
21697.000000,19856.000000,11121.000000,46505.000000
21698.000000,19861.000000,11084.000000,46500.000000
21658.000000,19827.000000,11111.000000,46513.000000
21677.000000,19807.000000,11096.000000,46512.000000
21637.000000,19803.000000,11086.000000,46493.000000
21631.000000,19775.000000,11070.000000,46481.000000
21609.000000,19814.000000,11091.000000,46472.000000
21614.000000,19793.000000,11090.000000,46483.000000
21603.000000,19783.000000,11062.000000,46489.000000
21622.000000,19800.000000,11082.000000,46463.000000
21586.000000,19804.000000,11071.000000,46490.000000
21578.000000,19791.000000,11074.000000,46475.000000
21569.000000,19741.000000,11012.000000,46452.000000
21579.000000,19780.000000,11000.000000,46436.000000
21552.000000,19743.000000,11034.000000,46444.000000
21553.000000,19731.000000,11028.000000,46456.000000
21505.000000,19751.000000,10984.000000,46441.000000
21519.000000,19767.000000,11002.000000,46439.000000
21476.000000,19733.000000,10978.000000,46415.000000
21478.000000,19724.000000,10939.000000,46432.000000
21471.000000,19681.000000,10945.000000,46392.000000
21461.000000,19696.000000,10905.000000,46390.000000
21421.000000,19657.000000,10920.000000,46375.000000
21415.000000,19640.000000,10914.000000,46383.000000
21397.000000,19666.000000,10866.000000,46370.000000
21348.000000,19629.000000,10854.000000,46363.000000
21399.000000,19652.000000,10862.000000,46343.000000
21318.000000,19641.000000,10806.000000,46339.000000
21321.000000,19601.000000,10795.000000,46325.000000
21307.000000,19608.000000,10810.000000,46310.000000
21299.000000,19556.000000,10797.000000,46285.000000
21320.000000,19588.000000,10788.000000,46314.000000
21329.000000,19588.000000,10780.000000,46317.000000
21294.000000,19593.000000,10763.000000,46334.000000
21271.000000,19567.000000,10775.000000,46294.000000
21280.000000,19594.000000,10763.000000,46313.000000
21273.000000,19589.000000,10781.000000,46269.000000
21299.000000,19564.000000,10744.000000,46258.000000
21274.000000,19579.000000,10735.000000,46294.000000
21238.000000,19557.000000,10727.000000,46291.000000
21263.000000,19567.000000,10749.000000,46292.000000
21276.000000,19560.000000,10755.000000,46290.000000
21283.000000,19589.000000,10759.000000,46315.000000
21318.000000,19614.000000,10743.000000,46343.000000
21303.000000,19583.000000,10799.000000,46299.000000
21352.000000,19594.000000,10786.000000,46319.000000
21343.000000,19596.000000,10794.000000,46304.000000
21387.000000,19612.000000,10813.000000,46321.000000
21379.000000,19610.000000,10826.000000,46301.000000
21404.000000,19629.000000,10849.000000,46320.000000
21433.000000,19675.000000,10876.000000,46368.000000
21443.000000,19672.000000,10891.000000,46405.000000
21481.000000,19715.000000,10930.000000,46405.000000
21489.000000,19717.000000,10940.000000,46404.000000
21547.000000,19737.000000,10954.000000,46439.000000
21565.000000,19749.000000,11018.000000,46447.000000
21589.000000,19804.000000,11030.000000,46475.000000
21603.000000,19813.000000,11085.000000,46485.000000
21673.000000,19831.000000,11111.000000,46513.000000
21684.000000,19831.000000,11168.000000,46553.000000
21716.000000,19939.000000,11218.000000,46551.000000
21747.000000,19931.000000,11234.000000,46578.000000
21823.000000,19965.000000,11312.000000,46608.000000
21866.000000,20000.000000,11335.000000,46640.000000
21916.000000,20032.000000,11386.000000,46655.000000
21955.000000,20056.000000,11467.000000,46726.000000
21993.000000,20083.000000,11487.000000,46745.000000
22039.000000,20107.000000,11527.000000,46742.000000
22075.000000,20372.000000,11540.000000,46741.000000
22056.000000,20160.000000,11576.000000,46756.000000
22090.000000,20407.000000,11576.000000,46767.000000
22087.000000,20375.000000,11549.000000,46772.000000
22064.000000,20141.000000,11566.000000,46799.000000
22054.000000,20137.000000,11562.000000,46754.000000
22056.000000,20141.000000,11564.000000,46740.000000
22053.000000,20380.000000,11534.000000,46767.000000
22035.000000,20395.000000,11538.000000,46740.000000
