660nm,730nm,850nm,940nm
7338.000000,8310.000000,111.000000,42045.000000
7376.000000,8348.000000,176.000000,42104.000000
7378.000000,8363.000000,219.000000,42123.000000
7429.000000,8359.000000,249.000000,42121.000000
7505.000000,8436.000000,312.000000,42140.000000
7487.000000,8447.000000,381.000000,42226.000000
7504.000000,8480.000000,412.000000,42220.000000
7570.000000,8547.000000,526.000000,42271.000000
7605.000000,8545.000000,555.000000,42307.000000
7627.000000,8627.000000,631.000000,42373.000000
7706.000000,8647.000000,704.000000,42363.000000
7791.000000,8687.000000,808.000000,42452.000000
7871.000000,9044.000000,874.000000,42481.000000
7932.000000,9120.000000,1011.000000,42812.000000
8008.000000,8952.000000,1138.000000,42628.000000
8143.000000,9019.000000,1212.000000,42693.000000
8223.000000,9099.000000,1357.000000,42979.000000
8336.000000,9175.000000,1457.000000,42791.000000
8385.000000,9227.000000,1515.000000,42833.000000
8472.000000,9303.000000,1637.000000,42897.000000
8521.000000,9311.000000,1975.000000,42903.000000
8591.000000,9379.000000,1726.000000,42967.000000
8623.000000,9411.000000,1771.000000,42959.000000
8637.000000,9403.000000,1811.000000,43008.000000
8640.000000,9415.000000,1789.000000,42967.000000
8610.000000,9431.000000,1795.000000,42996.000000
8667.000000,9441.000000,1800.000000,42993.000000
8652.000000,9437.000000,1770.000000,42953.000000
8663.000000,9447.000000,1791.000000,42967.000000
8651.000000,9412.000000,1764.000000,42963.000000
8608.000000,9416.000000,1780.000000,42985.000000
8593.000000,9385.000000,1780.000000,42959.000000
8602.000000,9381.000000,1735.000000,42923.000000
8595.000000,9350.000000,1747.000000,42939.000000
8577.000000,9376.000000,1692.000000,42908.000000
8541.000000,9349.000000,1646.000000,42917.000000
8556.000000,9367.000000,1656.000000,42917.000000
8544.000000,9351.000000,1691.000000,42895.000000
8537.000000,9343.000000,1645.000000,42904.000000
8537.000000,9327.000000,1657.000000,42907.000000
8527.000000,9323.000000,1657.000000,42883.000000
8515.000000,9297.000000,1631.000000,42899.000000
8499.000000,9365.000000,1628.000000,42875.000000
8456.000000,9295.000000,1582.000000,42879.000000
8460.000000,9292.000000,1568.000000,42859.000000
8459.000000,9291.000000,1568.000000,42863.000000
8452.000000,9304.000000,1538.000000,42863.000000
8434.000000,9263.000000,1539.000000,42809.000000
8393.000000,9259.000000,1516.000000,42807.000000
8414.000000,9240.000000,1511.000000,42831.000000
8361.000000,9209.000000,1507.000000,42815.000000
8359.000000,9253.000000,1479.000000,42777.000000
8347.000000,9207.000000,1447.000000,42785.000000
8295.000000,9204.000000,1433.000000,42787.000000
8317.000000,9212.000000,1445.000000,42743.000000
8304.000000,9177.000000,1376.000000,42768.000000
8260.000000,9161.000000,1383.000000,42749.000000
8280.000000,9164.000000,1363.000000,42746.000000
8254.000000,9135.000000,1347.000000,42737.000000
8280.000000,9183.000000,1311.000000,42971.000000
8275.000000,9139.000000,1337.000000,42710.000000
8248.000000,9099.000000,1308.000000,42711.000000
8235.000000,9108.000000,1304.000000,42985.000000
8230.000000,9100.000000,1287.000000,42991.000000
8203.000000,9064.000000,1275.000000,42679.000000
8187.000000,9075.000000,1237.000000,42675.000000
8183.000000,9031.000000,1243.000000,42670.000000
8179.000000,9039.000000,1205.000000,42660.000000
8165.000000,9047.000000,1205.000000,42644.000000
8111.000000,8987.000000,1184.000000,42627.000000
8095.000000,9065.000000,1160.000000,42643.000000
8077.000000,9015.000000,1112.000000,42631.000000
8073.000000,9001.000000,1137.000000,42632.000000
8065.000000,8971.000000,1106.000000,42602.000000
8025.000000,8979.000000,1073.000000,42597.000000
8025.000000,9189.000000,1075.000000,42832.000000
7993.000000,8932.000000,1050.000000,42548.000000
8000.000000,8956.000000,1019.000000,42539.000000
7983.000000,9171.000000,1011.000000,42781.000000
7945.000000,9141.000000,984.000000,42529.000000
7936.000000,9127.000000,978.000000,42526.000000
7916.000000,9100.000000,944.000000,42511.000000
7924.000000,8853.000000,919.000000,42530.000000
7886.000000,9088.000000,903.000000,42771.000000
8156.000000,8809.000000,855.000000,42448.000000
7881.000000,9083.000000,873.000000,42481.000000
7842.000000,8796.000000,823.000000,42468.000000
7805.000000,8771.000000,830.000000,42432.000000
7799.000000,9015.000000,791.000000,42429.000000
7828.000000,8795.000000,789.000000,42423.000000
7801.000000,8687.000000,762.000000,42416.000000
7797.000000,8760.000000,720.000000,42381.000000
7718.000000,8979.000000,715.000000,42388.000000
7763.000000,8688.000000,669.000000,42353.000000
7708.000000,8703.000000,633.000000,42352.000000
7681.000000,8643.000000,613.000000,42335.000000
7677.000000,8609.000000,619.000000,42319.000000
7659.000000,8647.000000,577.000000,42343.000000
7635.000000,8613.000000,591.000000,42349.000000
7643.000000,8597.000000,582.000000,42307.000000
7609.000000,8591.000000,541.000000,42328.000000
7613.000000,8573.000000,792.000000,42297.000000
7596.000000,8580.000000,477.000000,42269.000000
7587.000000,8537.000000,473.000000,42247.000000
7555.000000,8548.000000,471.000000,42295.000000
7543.000000,8551.000000,482.000000,42268.000000
7546.000000,8521.000000,445.000000,42275.000000
7541.000000,8515.000000,471.000000,42259.000000
7517.000000,8480.000000,416.000000,42256.000000
7499.000000,8483.000000,437.000000,42237.000000
7505.000000,8483.000000,421.000000,42233.000000
7460.000000,8483.000000,430.000000,42215.000000
7475.000000,8447.000000,371.000000,42219.000000
7446.000000,8451.000000,375.000000,42215.000000
7472.000000,8444.000000,384.000000,42223.000000
7440.000000,8442.000000,369.000000,42215.000000
7413.000000,8428.000000,383.000000,42197.000000
7439.000000,8404.000000,384.000000,42222.000000
7412.000000,8395.000000,314.000000,42203.000000
7410.000000,8445.000000,365.000000,42204.000000
7372.000000,8397.000000,331.000000,42167.000000
7387.000000,8399.000000,328.000000,42181.000000
7379.000000,8407.000000,276.000000,42161.000000
7367.000000,8423.000000,328.000000,42182.000000
7343.000000,8359.000000,297.000000,42166.000000
7338.000000,8373.000000,266.000000,42181.000000
7304.000000,8329.000000,222.000000,42160.000000
7296.000000,8317.000000,220.000000,42128.000000
7263.000000,8301.000000,197.000000,42113.000000
7269.000000,8295.000000,224.000000,42139.000000
7252.000000,8285.000000,205.000000,42138.000000
7244.000000,8278.000000,197.000000,42095.000000
7198.000000,8287.000000,157.000000,42105.000000
7200.000000,8251.000000,130.000000,42068.000000
7187.000000,8250.000000,135.000000,42048.000000
7165.000000,8251.000000,89.000000,42076.000000
7155.000000,8232.000000,116.000000,42077.000000
7099.000000,8216.000000,69.000000,42071.000000
7143.000000,8197.000000,63.000000,42056.000000
7103.000000,8211.000000,33.000000,42047.000000
7096.000000,8196.000000,83.000000,42086.000000
7085.000000,8225.000000,49.000000,42059.000000
7071.000000,8167.000000,86.000000,42055.000000
7124.000000,8236.000000,93.000000,42061.000000
7044.000000,8197.000000,133.000000,42075.000000
7092.000000,8225.000000,100.000000,42100.000000
7112.000000,8208.000000,129.000000,42073.000000
7136.000000,8203.000000,139.000000,42124.000000
7103.000000,8249.000000,159.000000,42112.000000
7116.000000,8253.000000,182.000000,42107.000000
7114.000000,8247.000000,215.000000,42129.000000
7153.000000,8288.000000,256.000000,42169.000000
7149.000000,8307.000000,272.000000,42187.000000
7160.000000,8299.000000,311.000000,42196.000000
7165.000000,8317.000000,345.000000,42195.000000
7205.000000,8272.000000,370.000000,42245.000000
7218.000000,8381.000000,395.000000,42259.000000
7292.000000,8427.000000,427.000000,42271.000000
7263.000000,8435.000000,483.000000,42285.000000
7303.000000,8428.000000,499.000000,42316.000000
7327.000000,8449.000000,566.000000,42319.000000
7341.000000,8501.000000,621.000000,42356.000000
7400.000000,8531.000000,634.000000,42397.000000
7429.000000,8575.000000,731.000000,42436.000000
7433.000000,8591.000000,768.000000,42452.000000
7471.000000,8628.000000,807.000000,42483.000000
7503.000000,8679.000000,879.000000,42787.000000
7583.000000,9007.000000,963.000000,42551.000000
7647.000000,9012.000000,1024.000000,42591.000000
7713.000000,9120.000000,1129.000000,42657.000000
7783.000000,9147.000000,1211.000000,42733.000000
7898.000000,8975.000000,1352.000000,42781.000000
8011.000000,9032.000000,1461.000000,42889.000000
8075.000000,9125.000000,1613.000000,42897.000000
8201.000000,9195.000000,1688.000000,42995.000000
8298.000000,9295.000000,1805.000000,43031.000000
8395.000000,9336.000000,1869.000000,43099.000000
8458.000000,9423.000000,2015.000000,43150.000000
8511.000000,9460.000000,2043.000000,43200.000000
8581.000000,9535.000000,2091.000000,43196.000000
8607.000000,9536.000000,2101.000000,43182.000000
8663.000000,9575.000000,2182.000000,43229.000000
8665.000000,9519.000000,2153.000000,43240.000000
8641.000000,9572.000000,2174.000000,43235.000000
8676.000000,9536.000000,2152.000000,43229.000000
8637.000000,9541.000000,2120.000000,43248.000000
8641.000000,9563.000000,2134.000000,43231.000000
8639.000000,9533.000000,2112.000000,43231.000000
8636.000000,9529.000000,2121.000000,43232.000000
8625.000000,9507.000000,2073.000000,43184.000000
8597.000000,9503.000000,2072.000000,43177.000000
8569.000000,9501.000000,2083.000000,43177.000000
8577.000000,9484.000000,2033.000000,43163.000000
8555.000000,9493.000000,2010.000000,43181.000000
8519.000000,9440.000000,1993.000000,43148.000000
8507.000000,9427.000000,1943.000000,43168.000000
8492.000000,9424.000000,1951.000000,43145.000000
8495.000000,9399.000000,1921.000000,43117.000000
8477.000000,9396.000000,1908.000000,43112.000000
8466.000000,9414.000000,1891.000000,43110.000000
8463.000000,9364.000000,1899.000000,43128.000000
8463.000000,9377.000000,1884.000000,43131.000000
8461.000000,9369.000000,1856.000000,43093.000000
8471.000000,9352.000000,1844.000000,43096.000000
8425.000000,9313.000000,1801.000000,43042.000000
8438.000000,9311.000000,1791.000000,43054.000000
8421.000000,9332.000000,1789.000000,43071.000000
8393.000000,9344.000000,1776.000000,43058.000000
8367.000000,9307.000000,1726.000000,43037.000000
8338.000000,9281.000000,1697.000000,43039.000000
8338.000000,9248.000000,1670.000000,43008.000000
8346.000000,9223.000000,1662.000000,42983.000000
8327.000000,9247.000000,1629.000000,42983.000000
8326.000000,9227.000000,1658.000000,42987.000000
8310.000000,9235.000000,1616.000000,42985.000000
8263.000000,9185.000000,1585.000000,42975.000000
8272.000000,9156.000000,1569.000000,42988.000000
8243.000000,9147.000000,1552.000000,42931.000000
8218.000000,9181.000000,1511.000000,42912.000000
8231.000000,9143.000000,1509.000000,42921.000000
8230.000000,9153.000000,1481.000000,42901.000000
8191.000000,9151.000000,1488.000000,42888.000000
8147.000000,9083.000000,1479.000000,42867.000000
8177.000000,9101.000000,1413.000000,42861.000000
8108.000000,9083.000000,1432.000000,42867.000000
8123.000000,9069.000000,1400.000000,42823.000000
8072.000000,9093.000000,1375.000000,42848.000000
8059.000000,9053.000000,1351.000000,42816.000000
8007.000000,9057.000000,1339.000000,42783.000000
8004.000000,8997.000000,1304.000000,42780.000000
8031.000000,9003.000000,1308.000000,42805.000000
7987.000000,8987.000000,1269.000000,42775.000000
7937.000000,8971.000000,1275.000000,42799.000000
7911.000000,8980.000000,1224.000000,42767.000000
7907.000000,9203.000000,1214.000000,42740.000000
7906.000000,9183.000000,1180.000000,42969.000000
7892.000000,8951.000000,1217.000000,42735.000000
7896.000000,9172.000000,1176.000000,42707.000000
7881.000000,9193.000000,1171.000000,42698.000000
7876.000000,8913.000000,1145.000000,42707.000000
7833.000000,9144.000000,1130.000000,42701.000000
7817.000000,8876.000000,1123.000000,42663.000000
7806.000000,9128.000000,1123.000000,42683.000000
7819.000000,9119.000000,1056.000000,42653.000000
7773.000000,9128.000000,1071.000000,42647.000000
7766.000000,9084.000000,1058.000000,42624.000000
7719.000000,9099.000000,1066.000000,42639.000000
7750.000000,9099.000000,1007.000000,42618.000000
7694.000000,8799.000000,992.000000,42613.000000
7704.000000,9079.000000,955.000000,42596.000000
7659.000000,9045.000000,983.000000,42609.000000
7639.000000,9051.000000,999.000000,42579.000000
7656.000000,9019.000000,954.000000,42562.000000
7647.000000,9011.000000,925.000000,42578.000000
7584.000000,9007.000000,879.000000,42817.000000
7583.000000,8996.000000,855.000000,42541.000000
7544.000000,8723.000000,851.000000,42547.000000
7519.000000,8743.000000,863.000000,42534.000000
7559.000000,8699.000000,879.000000,42523.000000
7544.000000,8661.000000,849.000000,42499.000000
7480.000000,8657.000000,799.000000,42535.000000
7479.000000,8657.000000,831.000000,42492.000000
7488.000000,8699.000000,803.000000,42513.000000
7451.000000,8672.000000,807.000000,42479.000000
7449.000000,8671.000000,784.000000,42481.000000
7441.000000,8648.000000,771.000000,42500.000000
7455.000000,8587.000000,756.000000,42463.000000
7401.000000,8593.000000,714.000000,42461.000000
7443.000000,8599.000000,736.000000,42467.000000
7406.000000,8593.000000,729.000000,42459.000000
7412.000000,8608.000000,700.000000,42460.000000
7368.000000,8561.000000,732.000000,42431.000000
7367.000000,8563.000000,663.000000,42449.000000
7393.000000,8563.000000,677.000000,42469.000000
7392.000000,8541.000000,679.000000,42439.000000
7344.000000,8572.000000,694.000000,42423.000000
7350.000000,8552.000000,698.000000,42433.000000
7384.000000,8520.000000,708.000000,42451.000000
7381.000000,8568.000000,662.000000,42427.000000
7374.000000,8531.000000,678.000000,42437.000000
7356.000000,8548.000000,684.000000,42411.000000
7332.000000,8575.000000,718.000000,42427.000000
7308.000000,8583.000000,693.000000,42425.000000
7318.000000,8532.000000,672.000000,42405.000000
7299.000000,8555.000000,656.000000,42407.000000
7260.000000,8559.000000,648.000000,42390.000000
7266.000000,8528.000000,613.000000,42403.000000
7200.000000,8528.000000,606.000000,42391.000000
7210.000000,8515.000000,602.000000,42385.000000
7181.000000,8467.000000,542.000000,42363.000000
7174.000000,8473.000000,542.000000,42353.000000
7131.000000,8441.000000,532.000000,42327.000000
7097.000000,8459.000000,512.000000,42319.000000
7107.000000,8392.000000,492.000000,42289.000000
7055.000000,8437.000000,459.000000,42331.000000
7024.000000,8369.000000,435.000000,42320.000000
7039.000000,8373.000000,402.000000,42297.000000
7000.000000,8389.000000,423.000000,42265.000000
7009.000000,8383.000000,409.000000,42281.000000
6996.000000,8387.000000,403.000000,42283.000000
6956.000000,8361.000000,411.000000,42295.000000
6945.000000,8343.000000,383.000000,42291.000000
6932.000000,8361.000000,387.000000,42244.000000
6985.000000,8340.000000,384.000000,42289.000000
6955.000000,8349.000000,425.000000,42269.000000
6975.000000,8343.000000,440.000000,42276.000000
6959.000000,8352.000000,429.000000,42297.000000
6960.000000,8393.000000,496.000000,42315.000000
7005.000000,8387.000000,475.000000,42313.000000
7013.000000,8407.000000,459.000000,42303.000000
7029.000000,8427.000000,519.000000,42363.000000
7004.000000,8428.000000,523.000000,42347.000000
7051.000000,8423.000000,599.000000,42371.000000
7076.000000,8467.000000,579.000000,42380.000000
7086.000000,8461.000000,628.000000,42420.000000
7113.000000,8488.000000,618.000000,42413.000000
7089.000000,8521.000000,677.000000,42441.000000
7137.000000,8557.000000,703.000000,42456.000000
7163.000000,8560.000000,753.000000,42479.000000
7164.000000,8595.000000,831.000000,42488.000000
7188.000000,8595.000000,839.000000,42522.000000
7229.000000,8619.000000,876.000000,42529.000000
7251.000000,8651.000000,927.000000,42575.000000
7300.000000,8655.000000,949.000000,42581.000000
7333.000000,8980.000000,1011.000000,42648.000000
7396.000000,9027.000000,1080.000000,42932.000000
7442.000000,9089.000000,1165.000000,42734.000000
7511.000000,9087.000000,1226.000000,42752.000000
7567.000000,9165.000000,1325.000000,42844.000000
7653.000000,8984.000000,1449.000000,42867.000000
7694.000000,9033.000000,1500.000000,42909.000000
7802.000000,9087.000000,1622.000000,42996.000000
7914.000000,9171.000000,1730.000000,43041.000000
7983.000000,9259.000000,1851.000000,43109.000000
8071.000000,9319.000000,1927.000000,43153.000000
8145.000000,9345.000000,1996.000000,43189.000000
8231.000000,9415.000000,2066.000000,43248.000000
8293.000000,9447.000000,2135.000000,43247.000000
8330.000000,9505.000000,2142.000000,43235.000000
8330.000000,9467.000000,2181.000000,43283.000000
8372.000000,9516.000000,2205.000000,43271.000000
8381.000000,9497.000000,2219.000000,43313.000000
8349.000000,9487.000000,2216.000000,43283.000000
8379.000000,9499.000000,2215.000000,43303.000000
8379.000000,9501.000000,2239.000000,43277.000000
8345.000000,9462.000000,2185.000000,43268.000000
8351.000000,9515.000000,2202.000000,43307.000000
8379.000000,9528.000000,2186.000000,43281.000000
8342.000000,9507.000000,2177.000000,43267.000000
8312.000000,9484.000000,2135.000000,43280.000000
8315.000000,9469.000000,2147.000000,43247.000000
8294.000000,9455.000000,2110.000000,43217.000000
8292.000000,9429.000000,2166.000000,43192.000000
8267.000000,9424.000000,2132.000000,43220.000000
8298.000000,9456.000000,2109.000000,43222.000000
8261.000000,9428.000000,2095.000000,43191.000000
8283.000000,9455.000000,2071.000000,43211.000000
8242.000000,9387.000000,2065.000000,43232.000000
8221.000000,9388.000000,2047.000000,43208.000000
8218.000000,9395.000000,2012.000000,43199.000000
8238.000000,9392.000000,2011.000000,43147.000000
8223.000000,9385.000000,1991.000000,43175.000000
8199.000000,9365.000000,1968.000000,43159.000000
8184.000000,9359.000000,1959.000000,43151.000000
8185.000000,9351.000000,1959.000000,43147.000000
8175.000000,9361.000000,1942.000000,43167.000000
8136.000000,9329.000000,1959.000000,43138.000000
8141.000000,9307.000000,1903.000000,43136.000000
8092.000000,9304.000000,1889.000000,43111.000000
8141.000000,9283.000000,1869.000000,43111.000000
8091.000000,9311.000000,1871.000000,43111.000000
8111.000000,9309.000000,1839.000000,43101.000000
8064.000000,9287.000000,1831.000000,43041.000000
8047.000000,9287.000000,1840.000000,43091.000000
8013.000000,9248.000000,1773.000000,43063.000000
8007.000000,9245.000000,1769.000000,43047.000000
7978.000000,9244.000000,1780.000000,43037.000000
7992.000000,9224.000000,1745.000000,43018.000000
7967.000000,9195.000000,1733.000000,43003.000000
7977.000000,9217.000000,1750.000000,43039.000000
7915.000000,9179.000000,1706.000000,43011.000000
7912.000000,9192.000000,1674.000000,42953.000000
7905.000000,9132.000000,1638.000000,42992.000000
7867.000000,9171.000000,1620.000000,42937.000000
7868.000000,9132.000000,1590.000000,42965.000000
7868.000000,9117.000000,1601.000000,42977.000000
7840.000000,9105.000000,1571.000000,42908.000000
7820.000000,9076.000000,1538.000000,42940.000000
7811.000000,9084.000000,1539.000000,42929.000000
7784.000000,9059.000000,1509.000000,42911.000000
7745.000000,9019.000000,1465.000000,42855.000000
7749.000000,9059.000000,1439.000000,42853.000000
7730.000000,9015.000000,1417.000000,42844.000000
7694.000000,8999.000000,1435.000000,42844.000000
7656.000000,8989.000000,1414.000000,42873.000000
7671.000000,8995.000000,1369.000000,42831.000000
7645.000000,8961.000000,1368.000000,42833.000000
7624.000000,9200.000000,1323.000000,42807.000000
7576.000000,9163.000000,1297.000000,42797.000000
7617.000000,8925.000000,1295.000000,42801.000000
7568.000000,9164.000000,1300.000000,42809.000000
7552.000000,9157.000000,1269.000000,42776.000000
7536.000000,8879.000000,1260.000000,42789.000000
7575.000000,8817.000000,1240.000000,42779.000000
7511.000000,9119.000000,1206.000000,42743.000000
7499.000000,8837.000000,1182.000000,42742.000000
7488.000000,9112.000000,1192.000000,42769.000000
7480.000000,8805.000000,1194.000000,42727.000000
7451.000000,8815.000000,1156.000000,42939.000000
7471.000000,9059.000000,1153.000000,42697.000000
7452.000000,8787.000000,1136.000000,42716.000000
7421.000000,9023.000000,1090.000000,42693.000000
7409.000000,9024.000000,1094.000000,42674.000000
7407.000000,8763.000000,1101.000000,42647.000000
7355.000000,9032.000000,1059.000000,42640.000000
7330.000000,8729.000000,1043.000000,42895.000000
7322.000000,8972.000000,1013.000000,42613.000000
7311.000000,8719.000000,1015.000000,42632.000000
7285.000000,8996.000000,1003.000000,42621.000000
7247.000000,8699.000000,972.000000,42587.000000
7215.000000,8960.000000,965.000000,42851.000000
7226.000000,8696.000000,972.000000,42559.000000
7191.000000,8659.000000,960.000000,42597.000000
7173.000000,8644.000000,930.000000,42580.000000
7114.000000,8619.000000,936.000000,42525.000000
7160.000000,8632.000000,857.000000,42771.000000
7092.000000,8609.000000,861.000000,42508.000000
7076.000000,8575.000000,883.000000,42524.000000
7069.000000,8591.000000,845.000000,42520.000000
7063.000000,8589.000000,828.000000,42505.000000
7021.000000,8553.000000,799.000000,42472.000000
7007.000000,8544.000000,772.000000,42495.000000
6997.000000,8543.000000,756.000000,42498.000000
7001.000000,8509.000000,734.000000,42436.000000
6965.000000,8499.000000,752.000000,42439.000000
6935.000000,8491.000000,714.000000,42459.000000
6930.000000,8481.000000,718.000000,42436.000000
6893.000000,8468.000000,703.000000,42449.000000
6929.000000,8426.000000,627.000000,42424.000000
6923.000000,8447.000000,651.000000,42408.000000
6898.000000,8436.000000,637.000000,42395.000000
6879.000000,8399.000000,607.000000,42387.000000
6848.000000,8423.000000,620.000000,42403.000000
6878.000000,8420.000000,624.000000,42415.000000
6845.000000,8416.000000,574.000000,42371.000000
6823.000000,8376.000000,598.000000,42383.000000
6799.000000,8399.000000,563.000000,42392.000000
7081.000000,8380.000000,541.000000,42365.000000
6788.000000,8364.000000,569.000000,42379.000000
6808.000000,8383.000000,564.000000,42337.000000
6730.000000,8351.000000,587.000000,42368.000000
6983.000000,8339.000000,499.000000,42339.000000
6750.000000,8355.000000,538.000000,42351.000000
6745.000000,8332.000000,489.000000,42333.000000
6693.000000,8348.000000,498.000000,42339.000000
6683.000000,8335.000000,516.000000,42344.000000
6665.000000,8323.000000,488.000000,42315.000000
6645.000000,8284.000000,444.000000,42305.000000
6611.000000,8293.000000,445.000000,42300.000000
6619.000000,8307.000000,424.000000,42303.000000
6611.000000,8291.000000,453.000000,42312.000000
6626.000000,8331.000000,445.000000,42307.000000
6599.000000,8280.000000,472.000000,42319.000000
6579.000000,8307.000000,460.000000,42299.000000
6517.000000,8331.000000,460.000000,42311.000000
6527.000000,8333.000000,479.000000,42300.000000
6525.000000,8317.000000,491.000000,42307.000000
6544.000000,8365.000000,520.000000,42299.000000
6507.000000,8355.000000,523.000000,42331.000000
6518.000000,8344.000000,535.000000,42327.000000
6525.000000,8348.000000,534.000000,42319.000000
6539.000000,8374.000000,537.000000,42300.000000
6561.000000,8396.000000,582.000000,42359.000000
6577.000000,8351.000000,622.000000,42371.000000
6585.000000,8367.000000,638.000000,42403.000000
6580.000000,8399.000000,646.000000,42407.000000
6643.000000,8409.000000,641.000000,42409.000000
6639.000000,8435.000000,681.000000,42427.000000
6656.000000,8469.000000,739.000000,42431.000000
6696.000000,8495.000000,792.000000,42479.000000
6738.000000,8519.000000,813.000000,42779.000000
6715.000000,8563.000000,853.000000,42512.000000
6801.000000,8580.000000,911.000000,42541.000000
6758.000000,8579.000000,912.000000,42553.000000
6830.000000,8647.000000,983.000000,42873.000000
6861.000000,8627.000000,1061.000000,42625.000000
6908.000000,8643.000000,1064.000000,42633.000000
6915.000000,8697.000000,1153.000000,42979.000000
6987.000000,8729.000000,1192.000000,42701.000000
7029.000000,9041.000000,1240.000000,42751.000000
7069.000000,8853.000000,1323.000000,42803.000000
7083.000000,9108.000000,1362.000000,42827.000000
7155.000000,9136.000000,1448.000000,42852.000000
7228.000000,8973.000000,1541.000000,42925.000000
7318.000000,9007.000000,1626.000000,42964.000000
7417.000000,9103.000000,1764.000000,43047.000000
7491.000000,9195.000000,1847.000000,43116.000000
7589.000000,9211.000000,1960.000000,43151.000000
7680.000000,9292.000000,2048.000000,43219.000000
7747.000000,9344.000000,2143.000000,43281.000000
7858.000000,9448.000000,2248.000000,43347.000000
7963.000000,9504.000000,2353.000000,43380.000000
8015.000000,9564.000000,2463.000000,43447.000000
8064.000000,9605.000000,2519.000000,43443.000000
8116.000000,9620.000000,2553.000000,43461.000000
8186.000000,9673.000000,2595.000000,43467.000000
8216.000000,9683.000000,2605.000000,43522.000000
8215.000000,9705.000000,2615.000000,43536.000000
8229.000000,9725.000000,2673.000000,43803.000000
8195.000000,9705.000000,2606.000000,43544.000000
8250.000000,9688.000000,2626.000000,43783.000000
8233.000000,9727.000000,2657.000000,43516.000000
8215.000000,9687.000000,2656.000000,43545.000000
8199.000000,9699.000000,2651.000000,43511.000000
8203.000000,9675.000000,2601.000000,43489.000000
8199.000000,9675.000000,2622.000000,43508.000000
8175.000000,9659.000000,2607.000000,43487.000000
8172.000000,9701.000000,2623.000000,43499.000000
8189.000000,9696.000000,2582.000000,43513.000000
8189.000000,9691.000000,2585.000000,43513.000000
8163.000000,9661.000000,2587.000000,43471.000000
8145.000000,9687.000000,2561.000000,43479.000000
8141.000000,9663.000000,2587.000000,43472.000000
8143.000000,9669.000000,2547.000000,43499.000000
8144.000000,9649.000000,2552.000000,43449.000000
8132.000000,9701.000000,2535.000000,43463.000000
8113.000000,9639.000000,2542.000000,43456.000000
8084.000000,9652.000000,2523.000000,43473.000000
8084.000000,9659.000000,2513.000000,43461.000000
8091.000000,9647.000000,2498.000000,43437.000000
8096.000000,9639.000000,2503.000000,43421.000000
8085.000000,9645.000000,2508.000000,43443.000000
8080.000000,9633.000000,2492.000000,43413.000000
8083.000000,9620.000000,2501.000000,43420.000000
8043.000000,9595.000000,2462.000000,43388.000000
8076.000000,9611.000000,2455.000000,43397.000000
8075.000000,9613.000000,2474.000000,43397.000000
8082.000000,9616.000000,2468.000000,43420.000000
8049.000000,9620.000000,2459.000000,43416.000000
8075.000000,9580.000000,2421.000000,43415.000000
8072.000000,9587.000000,2401.000000,43400.000000
8043.000000,9564.000000,2379.000000,43387.000000
8039.000000,9560.000000,2399.000000,43389.000000
8044.000000,9577.000000,2407.000000,43383.000000
8020.000000,9563.000000,2411.000000,43389.000000
8022.000000,9559.000000,2353.000000,43347.000000
7999.000000,9551.000000,2366.000000,43373.000000
8012.000000,9572.000000,2356.000000,43356.000000
7952.000000,9543.000000,2349.000000,43327.000000
7981.000000,9581.000000,2383.000000,43375.000000
7972.000000,9567.000000,2344.000000,43376.000000
7928.000000,9579.000000,2329.000000,43343.000000
8160.000000,9523.000000,2303.000000,43309.000000
7917.000000,9545.000000,2325.000000,43321.000000
7906.000000,9513.000000,2297.000000,43291.000000
7893.000000,9515.000000,2265.000000,43317.000000
7869.000000,9515.000000,2260.000000,43333.000000
7873.000000,9524.000000,2293.000000,43267.000000
7874.000000,9523.000000,2243.000000,43279.000000
7856.000000,9531.000000,2233.000000,43271.000000
7838.000000,9491.000000,2208.000000,43263.000000
7836.000000,9536.000000,2223.000000,43248.000000
7839.000000,9491.000000,2223.000000,43263.000000
7815.000000,9501.000000,2164.000000,43246.000000
7811.000000,9504.000000,2220.000000,43263.000000
7798.000000,9557.000000,2189.000000,43215.000000
7785.000000,9523.000000,2200.000000,43229.000000
7760.000000,9559.000000,2222.000000,43229.000000
7788.000000,9588.000000,2226.000000,43226.000000
7753.000000,9584.000000,2213.000000,43222.000000
7762.000000,9571.000000,2220.000000,43184.000000
7697.000000,9631.000000,2234.000000,43202.000000
7709.000000,9592.000000,2204.000000,43167.000000
7667.000000,9627.000000,2193.000000,43161.000000
7663.000000,9631.000000,2208.000000,43177.000000
7643.000000,9607.000000,2179.000000,43135.000000
7595.000000,9591.000000,2155.000000,43119.000000
7604.000000,9596.000000,2121.000000,43106.000000
7609.000000,9583.000000,2141.000000,43087.000000
7578.000000,9595.000000,2088.000000,43119.000000
7535.000000,9579.000000,2089.000000,43072.000000
7521.000000,9583.000000,2096.000000,43083.000000
7463.000000,9536.000000,2041.000000,43054.000000
7481.000000,9531.000000,2016.000000,43041.000000
7491.000000,9528.000000,2025.000000,43036.000000
7460.000000,9556.000000,2000.000000,43015.000000
7422.000000,9493.000000,1963.000000,42999.000000
7399.000000,9491.000000,1978.000000,43030.000000
7390.000000,9455.000000,1957.000000,42993.000000
7393.000000,9457.000000,1919.000000,42975.000000
7344.000000,9436.000000,1880.000000,42988.000000
7376.000000,9427.000000,1886.000000,42983.000000
7363.000000,9431.000000,1873.000000,42980.000000
7328.000000,9427.000000,1869.000000,42979.000000
7307.000000,9400.000000,1823.000000,42963.000000
7301.000000,9383.000000,1827.000000,42935.000000
7287.000000,9408.000000,1839.000000,42927.000000
7289.000000,9373.000000,1847.000000,42927.000000
7298.000000,9389.000000,1824.000000,42956.000000
7247.000000,9375.000000,1771.000000,42944.000000
7240.000000,9361.000000,1737.000000,42903.000000
7220.000000,9341.000000,1739.000000,42927.000000
7226.000000,9305.000000,1747.000000,42872.000000
7227.000000,9344.000000,1695.000000,42884.000000
7213.000000,9300.000000,1726.000000,42899.000000
7198.000000,9319.000000,1683.000000,42875.000000
7154.000000,9279.000000,1916.000000,42859.000000
7194.000000,9303.000000,1666.000000,42873.000000
7174.000000,9259.000000,1701.000000,42867.000000
7185.000000,9296.000000,1635.000000,42855.000000
7160.000000,9244.000000,1636.000000,42863.000000
7192.000000,9277.000000,1640.000000,42863.000000
7127.000000,9239.000000,1583.000000,42823.000000
7172.000000,9255.000000,1601.000000,42831.000000
7160.000000,9236.000000,1596.000000,42847.000000
7133.000000,9195.000000,1568.000000,42815.000000
7118.000000,9233.000000,1561.000000,42811.000000
7103.000000,9205.000000,1548.000000,42795.000000
7064.000000,9229.000000,1499.000000,42775.000000
7059.000000,9211.000000,1499.000000,42780.000000
7065.000000,9195.000000,1463.000000,42783.000000
7041.000000,9135.000000,1459.000000,42759.000000
7011.000000,9125.000000,1432.000000,42736.000000
6989.000000,9136.000000,1432.000000,42989.000000
6995.000000,9111.000000,1405.000000,42707.000000
6966.000000,9117.000000,1414.000000,42703.000000
6923.000000,9092.000000,1369.000000,42699.000000
6898.000000,9073.000000,1347.000000,42659.000000
6898.000000,9081.000000,1343.000000,42688.000000
6902.000000,9091.000000,1313.000000,42694.000000
6858.000000,9088.000000,1304.000000,42698.000000
6868.000000,9064.000000,1367.000000,42649.000000
6867.000000,9057.000000,1313.000000,42660.000000
6867.000000,9079.000000,1331.000000,42685.000000
6854.000000,9067.000000,1379.000000,42683.000000
6883.000000,9107.000000,1375.000000,42719.000000
6879.000000,9055.000000,1353.000000,42693.000000
6884.000000,9109.000000,1387.000000,42725.000000
6913.000000,9119.000000,1419.000000,42997.000000
6902.000000,9144.000000,1456.000000,42740.000000
6916.000000,9175.000000,1497.000000,42769.000000
6935.000000,9151.000000,1506.000000,42807.000000
6943.000000,9151.000000,1526.000000,42819.000000
6987.000000,9155.000000,1545.000000,42815.000000
6988.000000,9207.000000,1554.000000,42811.000000
7023.000000,9235.000000,1628.000000,42880.000000
7060.000000,9261.000000,1635.000000,42908.000000
7067.000000,9277.000000,1698.000000,42951.000000
7105.000000,9287.000000,1726.000000,42939.000000
7162.000000,9304.000000,1775.000000,42959.000000
7183.000000,9377.000000,1847.000000,43008.000000
7206.000000,9387.000000,1896.000000,43021.000000
7261.000000,9427.000000,1937.000000,43057.000000
7291.000000,9455.000000,2005.000000,43112.000000
7323.000000,9507.000000,2060.000000,43120.000000
7415.000000,9584.000000,2147.000000,43163.000000
7509.000000,9623.000000,2258.000000,43231.000000
7531.000000,9661.000000,2319.000000,43297.000000
7577.000000,9703.000000,2431.000000,43313.000000
7622.000000,9753.000000,2492.000000,43363.000000
7719.000000,10079.000000,2596.000000,43397.000000
7789.000000,10136.000000,2645.000000,43456.000000
7835.000000,10235.000000,2768.000000,43519.000000
7892.000000,10227.000000,2821.000000,43803.000000
7980.000000,9997.000000,2907.000000,43568.000000
8003.000000,10067.000000,2961.000000,43900.000000
8135.000000,10133.000000,3065.000000,43664.000000
8221.000000,10187.000000,3164.000000,43708.000000
8251.000000,10250.000000,3208.000000,43750.000000
8334.000000,10240.000000,3283.000000,43805.000000
8349.000000,10247.000000,3314.000000,43809.000000
8408.000000,10332.000000,3351.000000,43848.000000
8496.000000,10405.000000,3424.000000,43888.000000
8476.000000,10365.000000,3419.000000,43911.000000
8467.000000,10347.000000,3454.000000,43879.000000
8497.000000,10387.000000,3467.000000,43891.000000
8472.000000,10357.000000,3463.000000,43876.000000
8484.000000,10384.000000,3455.000000,43888.000000
8501.000000,10433.000000,3487.000000,43857.000000
8468.000000,10423.000000,3489.000000,43856.000000
8432.000000,10411.000000,3451.000000,43907.000000
8463.000000,10444.000000,3464.000000,43873.000000
8448.000000,10424.000000,3487.000000,43851.000000
8441.000000,10451.000000,3492.000000,43843.000000
8467.000000,10463.000000,3503.000000,43863.000000
8442.000000,10491.000000,3504.000000,43873.000000
8464.000000,10503.000000,3514.000000,43888.000000
8428.000000,10445.000000,3487.000000,43867.000000
8443.000000,10465.000000,3455.000000,43851.000000
8431.000000,10497.000000,3519.000000,43844.000000
8423.000000,10511.000000,3502.000000,43827.000000
8431.000000,10501.000000,3515.000000,43875.000000
8371.000000,10472.000000,3473.000000,43831.000000
8443.000000,10539.000000,3505.000000,43839.000000
8495.000000,10515.000000,3497.000000,43831.000000
8455.000000,10549.000000,3503.000000,43811.000000
8409.000000,10517.000000,3503.000000,43827.000000
8412.000000,10524.000000,3512.000000,43827.000000
8434.000000,10535.000000,3516.000000,43811.000000
8416.000000,10551.000000,3513.000000,43799.000000
8445.000000,10571.000000,3537.000000,43817.000000
8416.000000,10587.000000,3543.000000,43808.000000
8402.000000,10587.000000,3545.000000,43836.000000
8392.000000,10592.000000,3533.000000,43837.000000
8405.000000,10593.000000,3570.000000,43820.000000
8394.000000,10611.000000,3531.000000,43833.000000
8403.000000,10625.000000,3531.000000,43839.000000
8367.000000,10596.000000,3555.000000,43817.000000
8362.000000,10623.000000,3518.000000,43779.000000
8385.000000,10623.000000,3558.000000,43795.000000
8404.000000,10628.000000,3597.000000,43803.000000
8391.000000,10669.000000,3560.000000,43799.000000
8381.000000,10635.000000,3563.000000,43784.000000
8386.000000,10623.000000,3585.000000,43762.000000
8396.000000,10679.000000,3555.000000,44031.000000
8386.000000,10692.000000,3575.000000,43801.000000
8371.000000,10663.000000,3559.000000,43792.000000
8371.000000,10679.000000,3547.000000,43799.000000
8365.000000,10647.000000,3557.000000,43775.000000
8326.000000,10660.000000,3551.000000,43785.000000
8357.000000,10673.000000,3560.000000,43807.000000
8340.000000,10639.000000,3541.000000,43787.000000
8334.000000,10667.000000,3506.000000,43779.000000
8325.000000,10633.000000,3521.000000,43764.000000
8341.000000,10652.000000,3487.000000,43766.000000
8334.000000,10617.000000,3507.000000,43749.000000
8345.000000,10673.000000,3495.000000,43754.000000
8318.000000,10651.000000,3535.000000,43753.000000
8339.000000,10648.000000,3519.000000,44001.000000
8307.000000,10644.000000,3481.000000,43722.000000
8296.000000,10623.000000,3501.000000,43745.000000
8318.000000,10645.000000,3498.000000,43715.000000
8312.000000,10657.000000,3499.000000,43742.000000
8324.000000,10633.000000,3503.000000,43738.000000
8299.000000,10639.000000,3501.000000,43763.000000
8311.000000,10643.000000,3493.000000,43735.000000
8303.000000,10651.000000,3465.000000,43740.000000
8285.000000,10640.000000,3447.000000,43727.000000
8306.000000,10660.000000,3487.000000,43732.000000
8296.000000,10647.000000,3471.000000,43717.000000
8278.000000,10647.000000,3468.000000,43975.000000
8281.000000,10631.000000,3491.000000,43730.000000
8279.000000,10708.000000,3469.000000,43744.000000
8275.000000,10648.000000,3448.000000,43693.000000
8258.000000,10643.000000,3433.000000,43711.000000
8248.000000,10656.000000,3428.000000,43712.000000
8231.000000,10639.000000,3487.000000,43708.000000
8257.000000,10655.000000,3396.000000,43691.000000
8215.000000,10623.000000,3427.000000,43681.000000
8222.000000,10673.000000,3453.000000,43695.000000
8217.000000,10659.000000,3413.000000,43692.000000
8208.000000,10656.000000,3423.000000,43647.000000
8180.000000,10647.000000,3417.000000,43634.000000
8195.000000,10653.000000,3448.000000,43933.000000
8208.000000,10635.000000,3411.000000,43641.000000
8167.000000,10625.000000,3431.000000,43927.000000
8161.000000,10617.000000,3397.000000,43627.000000
8173.000000,10629.000000,3356.000000,43630.000000
8152.000000,10647.000000,3365.000000,43643.000000
8177.000000,10621.000000,3351.000000,43647.000000
8147.000000,10647.000000,3347.000000,43644.000000
8149.000000,10616.000000,3353.000000,43632.000000
8137.000000,10627.000000,3349.000000,43620.000000
8143.000000,10603.000000,3354.000000,43608.000000
8121.000000,10600.000000,3312.000000,43597.000000
8127.000000,10612.000000,3325.000000,43871.000000
8146.000000,10619.000000,3308.000000,43595.000000
8125.000000,10623.000000,3321.000000,43608.000000
8113.000000,10587.000000,3290.000000,43575.000000
8090.000000,10641.000000,3291.000000,43585.000000
8098.000000,10623.000000,3327.000000,43577.000000
8100.000000,10588.000000,3267.000000,43819.000000
8011.000000,10565.000000,3264.000000,43544.000000
8047.000000,10567.000000,3229.000000,43540.000000
8019.000000,10556.000000,3243.000000,43563.000000
7983.000000,10571.000000,3222.000000,43539.000000
7999.000000,10573.000000,3199.000000,43527.000000
7976.000000,10520.000000,3193.000000,43515.000000
7947.000000,10540.000000,3162.000000,43489.000000
8184.000000,10527.000000,3124.000000,43488.000000
7949.000000,10512.000000,3158.000000,43511.000000
7892.000000,10471.000000,3118.000000,43483.000000
7861.000000,10476.000000,3083.000000,43453.000000
7866.000000,10463.000000,3078.000000,43468.000000
7836.000000,10435.000000,3078.000000,43487.000000
7873.000000,10477.000000,3065.000000,43447.000000
7836.000000,10475.000000,3083.000000,43460.000000
7827.000000,10463.000000,3045.000000,43461.000000
7849.000000,10442.000000,3039.000000,43416.000000
7849.000000,10435.000000,3059.000000,43463.000000
7818.000000,10451.000000,3069.000000,43447.000000
7862.000000,10466.000000,3071.000000,43471.000000
7869.000000,10461.000000,3055.000000,43500.000000
7884.000000,10484.000000,3112.000000,43505.000000
7884.000000,10475.000000,3113.000000,43515.000000
7919.000000,10537.000000,3127.000000,43516.000000
8171.000000,10531.000000,3157.000000,43525.000000
7925.000000,10543.000000,3188.000000,43517.000000
7943.000000,10535.000000,3225.000000,43569.000000
7991.000000,10549.000000,3244.000000,43571.000000
7939.000000,10571.000000,3222.000000,43555.000000
8009.000000,10604.000000,3275.000000,43842.000000
7995.000000,10607.000000,3294.000000,43599.000000
8027.000000,10651.000000,3355.000000,43611.000000
8047.000000,10669.000000,3371.000000,43627.000000
8060.000000,10673.000000,3385.000000,43655.000000
8085.000000,10677.000000,3419.000000,43686.000000
8081.000000,10683.000000,3429.000000,43674.000000
8128.000000,10705.000000,3467.000000,43709.000000
8136.000000,10712.000000,3454.000000,43681.000000
8151.000000,10743.000000,3516.000000,43740.000000
8179.000000,10744.000000,3535.000000,43758.000000
8205.000000,10785.000000,3579.000000,43758.000000
8244.000000,10792.000000,3583.000000,43763.000000
8266.000000,10819.000000,3668.000000,43801.000000
8264.000000,11068.000000,3695.000000,43835.000000
8316.000000,10836.000000,3718.000000,43821.000000
8338.000000,11131.000000,3734.000000,43852.000000
8382.000000,11153.000000,3792.000000,43869.000000
8428.000000,10963.000000,3877.000000,43917.000000
8463.000000,11235.000000,3923.000000,43947.000000
8519.000000,11035.000000,3975.000000,43985.000000
8589.000000,11067.000000,4017.000000,44051.000000
8635.000000,11081.000000,4060.000000,44035.000000
8675.000000,11125.000000,4115.000000,44064.000000
8710.000000,11084.000000,4124.000000,44069.000000
8744.000000,11139.000000,4180.000000,44077.000000
8781.000000,11175.000000,4233.000000,44159.000000
8793.000000,11195.000000,4260.000000,44117.000000
8828.000000,11237.000000,4279.000000,44157.000000
8835.000000,11207.000000,4291.000000,44145.000000
8841.000000,11231.000000,4265.000000,44143.000000
8873.000000,11211.000000,4315.000000,44135.000000
8888.000000,11199.000000,4293.000000,44194.000000
8851.000000,11227.000000,4289.000000,44153.000000
8849.000000,11209.000000,4289.000000,44158.000000
8861.000000,11219.000000,4295.000000,44128.000000
8874.000000,11225.000000,4321.000000,44178.000000
8850.000000,11212.000000,4276.000000,44156.000000
8874.000000,11236.000000,4307.000000,44173.000000
8868.000000,11231.000000,4261.000000,44172.000000
8860.000000,11215.000000,4321.000000,44132.000000
8847.000000,11193.000000,4280.000000,44143.000000
8876.000000,11247.000000,4272.000000,44125.000000
8846.000000,11205.000000,4286.000000,44137.000000
8852.000000,11223.000000,4255.000000,44141.000000
8847.000000,11231.000000,4308.000000,44175.000000
8860.000000,11213.000000,4276.000000,44159.000000
8827.000000,11219.000000,4272.000000,44120.000000
8859.000000,11227.000000,4279.000000,44149.000000
8846.000000,11223.000000,4227.000000,44136.000000
8860.000000,11256.000000,4250.000000,44105.000000
8871.000000,11259.000000,4271.000000,44143.000000
8835.000000,11249.000000,4264.000000,44141.000000
8842.000000,11239.000000,4249.000000,44131.000000
8820.000000,11219.000000,4214.000000,44135.000000
8805.000000,11231.000000,4259.000000,44105.000000
8833.000000,11223.000000,4267.000000,44108.000000
8846.000000,11208.000000,4235.000000,44115.000000
8861.000000,11223.000000,4276.000000,44148.000000
8857.000000,11251.000000,4288.000000,44143.000000
8871.000000,11200.000000,4265.000000,44110.000000
8859.000000,11219.000000,4266.000000,44128.000000
8821.000000,11223.000000,4208.000000,44109.000000
8808.000000,11229.000000,4221.000000,44093.000000
8852.000000,11239.000000,4243.000000,44112.000000
8837.000000,11225.000000,4250.000000,44138.000000
8834.000000,11249.000000,4231.000000,44093.000000
8826.000000,11235.000000,4226.000000,44110.000000
8860.000000,11211.000000,4213.000000,44093.000000
8822.000000,11236.000000,4220.000000,44104.000000
8850.000000,11237.000000,4194.000000,44106.000000
8822.000000,11261.000000,4246.000000,44092.000000
8815.000000,11231.000000,4221.000000,44071.000000
8845.000000,11245.000000,4227.000000,44076.000000
8811.000000,11251.000000,4237.000000,44095.000000
8867.000000,11253.000000,4261.000000,44116.000000
8824.000000,11211.000000,4255.000000,44096.000000
8803.000000,11268.000000,4217.000000,44105.000000
8807.000000,11232.000000,4208.000000,44072.000000
8748.000000,11273.000000,4196.000000,44076.000000
8798.000000,11235.000000,4234.000000,44072.000000
8776.000000,11256.000000,4203.000000,44068.000000
8809.000000,11291.000000,4263.000000,44079.000000
8785.000000,11285.000000,4216.000000,44060.000000
8768.000000,11272.000000,4213.000000,44067.000000
8758.000000,11297.000000,4218.000000,44072.000000
8754.000000,11335.000000,4240.000000,44067.000000
8765.000000,11317.000000,4218.000000,44079.000000
8717.000000,11305.000000,4251.000000,44042.000000
8740.000000,11309.000000,4223.000000,44078.000000
8749.000000,11323.000000,4232.000000,44063.000000
8717.000000,11255.000000,4231.000000,44069.000000
8728.000000,11320.000000,4227.000000,44034.000000
8734.000000,11329.000000,4205.000000,44039.000000
8740.000000,11322.000000,4262.000000,44058.000000
8734.000000,11332.000000,4246.000000,44048.000000
8742.000000,11355.000000,4240.000000,44060.000000
8713.000000,11327.000000,4209.000000,44044.000000
8712.000000,11327.000000,4233.000000,44017.000000
8748.000000,11297.000000,4214.000000,44025.000000
8725.000000,11291.000000,4233.000000,44015.000000
8716.000000,11339.000000,4211.000000,44040.000000
8692.000000,11363.000000,4199.000000,44037.000000
8703.000000,11315.000000,4204.000000,44038.000000
8701.000000,11301.000000,4202.000000,44031.000000
8686.000000,11269.000000,4201.000000,44039.000000
8681.000000,11300.000000,4179.000000,44019.000000
8675.000000,11283.000000,4176.000000,44027.000000
8660.000000,11281.000000,4180.000000,43983.000000
8685.000000,11260.000000,4188.000000,44037.000000
8651.000000,11275.000000,4175.000000,44025.000000
8667.000000,11247.000000,4119.000000,44011.000000
8661.000000,11243.000000,4108.000000,44028.000000
8653.000000,11229.000000,4102.000000,43983.000000
8647.000000,11244.000000,4095.000000,44008.000000
8635.000000,11228.000000,4110.000000,43979.000000
8648.000000,11177.000000,4103.000000,43991.000000
8660.000000,11168.000000,4071.000000,43995.000000
8629.000000,11211.000000,4055.000000,43999.000000
8633.000000,11133.000000,4050.000000,43983.000000
8571.000000,11151.000000,4004.000000,43967.000000
8608.000000,11105.000000,3996.000000,43972.000000
8596.000000,11112.000000,4004.000000,43975.000000
8601.000000,11095.000000,4003.000000,43987.000000
8596.000000,11059.000000,3979.000000,43992.000000
8588.000000,11067.000000,3962.000000,44001.000000
8561.000000,11037.000000,3937.000000,43987.000000
8559.000000,11052.000000,3959.000000,43959.000000
8575.000000,11011.000000,3932.000000,43976.000000
8553.000000,11240.000000,3927.000000,43960.000000
8533.000000,11241.000000,3898.000000,43904.000000
8507.000000,11209.000000,3879.000000,43931.000000
8509.000000,11219.000000,3892.000000,43941.000000
8508.000000,11215.000000,3844.000000,43959.000000
8474.000000,10955.000000,4084.000000,43927.000000
8464.000000,11179.000000,3855.000000,43939.000000
8464.000000,11143.000000,3855.000000,43935.000000
8462.000000,11172.000000,3851.000000,43943.000000
8412.000000,11135.000000,3800.000000,43912.000000
8413.000000,11059.000000,3770.000000,43935.000000
8410.000000,10739.000000,4023.000000,43920.000000
8371.000000,10633.000000,3682.000000,43907.000000
8353.000000,10579.000000,3675.000000,43904.000000
8348.000000,10556.000000,3657.000000,43883.000000
8376.000000,10579.000000,3687.000000,43907.000000
8377.000000,10567.000000,3673.000000,43865.000000
8364.000000,10571.000000,3646.000000,43911.000000
8359.000000,10555.000000,3640.000000,43921.000000
8392.000000,10532.000000,3670.000000,43923.000000
8382.000000,10537.000000,3655.000000,43911.000000
8360.000000,10547.000000,3646.000000,43887.000000
8387.000000,10519.000000,3680.000000,43896.000000
8404.000000,10563.000000,3639.000000,43896.000000
8407.000000,10535.000000,3719.000000,43897.000000
8420.000000,10579.000000,3740.000000,43940.000000
8463.000000,10548.000000,3724.000000,43928.000000
8431.000000,10615.000000,3726.000000,43952.000000
8433.000000,10559.000000,3735.000000,43943.000000
8434.000000,10587.000000,3727.000000,43945.000000
8442.000000,10576.000000,3745.000000,43972.000000
8481.000000,10583.000000,3754.000000,43923.000000
8492.000000,10576.000000,3767.000000,43963.000000
8505.000000,10577.000000,3768.000000,43965.000000
8524.000000,10612.000000,3783.000000,44008.000000
8529.000000,10641.000000,3781.000000,44001.000000
8521.000000,10612.000000,3799.000000,44005.000000
8568.000000,10639.000000,3810.000000,43996.000000
8573.000000,10643.000000,3794.000000,44016.000000
8608.000000,10628.000000,4063.000000,44019.000000
8627.000000,10669.000000,3867.000000,44041.000000
8640.000000,10681.000000,3904.000000,44032.000000
8671.000000,10680.000000,3915.000000,44040.000000
8679.000000,10727.000000,3927.000000,44069.000000
8693.000000,10713.000000,3935.000000,44092.000000
8696.000000,10727.000000,3955.000000,44098.000000
8713.000000,10731.000000,3961.000000,44081.000000
8711.000000,10705.000000,3929.000000,44095.000000
8750.000000,10739.000000,3964.000000,44096.000000
8756.000000,10743.000000,3963.000000,44072.000000
8760.000000,11008.000000,3990.000000,44071.000000
8745.000000,10693.000000,3973.000000,44111.000000
8761.000000,10747.000000,3950.000000,44105.000000
8778.000000,10731.000000,3968.000000,44113.000000
8798.000000,10703.000000,3974.000000,44079.000000
8815.000000,11015.000000,3996.000000,44113.000000
9028.000000,11013.000000,3957.000000,44068.000000
8760.000000,10728.000000,3978.000000,44096.000000
8755.000000,10709.000000,3967.000000,44095.000000
8778.000000,10737.000000,3974.000000,44087.000000
8717.000000,10715.000000,3928.000000,44074.000000
8749.000000,10720.000000,3955.000000,44098.000000
8751.000000,10701.000000,3965.000000,44075.000000
8727.000000,10719.000000,3947.000000,44076.000000
8734.000000,10739.000000,3945.000000,44111.000000
8747.000000,10732.000000,3955.000000,44060.000000
8720.000000,10731.000000,3936.000000,44075.000000
8715.000000,10724.000000,3928.000000,44096.000000
8717.000000,10723.000000,3931.000000,44095.000000
8729.000000,10735.000000,3939.000000,44068.000000
8739.000000,10707.000000,3933.000000,44087.000000
8711.000000,10713.000000,3912.000000,44072.000000
8745.000000,10708.000000,3970.000000,44107.000000
9019.000000,10743.000000,3944.000000,44044.000000
8754.000000,10719.000000,3915.000000,44090.000000
8740.000000,10700.000000,3904.000000,44059.000000
8733.000000,10723.000000,3913.000000,44069.000000
8723.000000,10717.000000,3905.000000,44069.000000
8768.000000,10711.000000,3896.000000,44093.000000
8731.000000,10727.000000,3892.000000,44043.000000
8742.000000,10675.000000,3925.000000,44073.000000
8739.000000,10684.000000,3911.000000,44066.000000
8739.000000,10667.000000,3905.000000,44056.000000
8713.000000,10669.000000,3889.000000,44041.000000
8741.000000,10691.000000,3875.000000,44055.000000
8703.000000,10692.000000,3895.000000,44037.000000
8747.000000,10715.000000,3908.000000,44057.000000
8701.000000,10683.000000,3883.000000,44019.000000
8714.000000,10699.000000,3903.000000,44063.000000
8703.000000,10680.000000,3871.000000,44057.000000
8676.000000,10661.000000,3880.000000,44037.000000
8689.000000,10685.000000,3872.000000,44049.000000
8703.000000,10684.000000,3845.000000,44053.000000
8717.000000,10676.000000,3859.000000,44031.000000
8680.000000,10711.000000,3837.000000,44015.000000
8717.000000,10697.000000,3846.000000,44027.000000
8706.000000,10675.000000,3839.000000,44008.000000
8710.000000,10687.000000,3840.000000,44055.000000
8704.000000,10647.000000,3827.000000,43985.000000
8697.000000,10643.000000,3816.000000,44007.000000
8700.000000,10673.000000,3804.000000,43988.000000
8684.000000,10655.000000,3815.000000,44016.000000
8718.000000,10641.000000,3831.000000,44012.000000
8695.000000,10687.000000,3815.000000,44021.000000
8687.000000,10667.000000,3796.000000,44003.000000
8679.000000,10681.000000,3798.000000,44011.000000
8680.000000,10665.000000,3829.000000,44008.000000
8665.000000,10629.000000,4047.000000,44027.000000
8673.000000,10603.000000,3785.000000,44003.000000
8724.000000,10664.000000,3801.000000,44027.000000
8669.000000,10659.000000,3810.000000,44017.000000
8646.000000,10649.000000,3830.000000,44015.000000
8682.000000,10652.000000,3785.000000,44027.000000
8647.000000,10617.000000,3784.000000,43999.000000
8631.000000,10637.000000,3800.000000,43995.000000
8655.000000,10612.000000,3761.000000,43992.000000
8645.000000,10623.000000,3776.000000,43981.000000
8643.000000,10609.000000,3729.000000,43935.000000
8676.000000,10623.000000,3734.000000,43992.000000
8652.000000,10644.000000,3744.000000,43991.000000
8652.000000,10601.000000,3754.000000,43983.000000
8616.000000,10579.000000,3741.000000,43977.000000
8612.000000,10617.000000,3717.000000,43999.000000
8646.000000,10603.000000,3714.000000,43967.000000
8652.000000,10593.000000,3964.000000,43957.000000
8648.000000,10619.000000,3686.000000,43972.000000
8662.000000,10629.000000,3696.000000,43980.000000
8627.000000,10580.000000,3731.000000,43933.000000
8605.000000,10556.000000,3696.000000,43976.000000
8600.000000,10575.000000,3679.000000,43944.000000
8591.000000,10592.000000,3658.000000,43971.000000
8612.000000,10559.000000,3663.000000,43903.000000
8615.000000,10575.000000,3665.000000,43937.000000
8648.000000,10609.000000,3709.000000,43951.000000
8593.000000,10611.000000,3658.000000,43923.000000
8632.000000,10572.000000,3663.000000,43911.000000
8592.000000,10567.000000,3637.000000,43921.000000
8579.000000,10545.000000,3637.000000,43913.000000
8563.000000,10573.000000,3624.000000,43927.000000
8588.000000,10541.000000,3623.000000,43904.000000
8564.000000,10531.000000,3622.000000,43912.000000
8584.000000,10494.000000,3583.000000,43908.000000
8552.000000,10475.000000,3622.000000,43895.000000
8562.000000,10516.000000,3602.000000,43903.000000
8567.000000,10517.000000,3595.000000,43917.000000
8532.000000,10511.000000,3548.000000,43884.000000
8551.000000,10447.000000,3535.000000,43863.000000
8535.000000,10481.000000,3552.000000,43879.000000
8531.000000,10472.000000,3535.000000,43844.000000
8491.000000,10463.000000,3506.000000,43839.000000
8521.000000,10479.000000,3481.000000,43851.000000
8501.000000,10415.000000,3484.000000,43867.000000
8465.000000,10449.000000,3475.000000,43841.000000
8412.000000,10403.000000,3423.000000,43805.000000
8394.000000,10392.000000,3383.000000,43817.000000
8410.000000,10360.000000,3368.000000,43779.000000
8365.000000,10364.000000,3364.000000,43772.000000
8336.000000,10355.000000,3344.000000,43760.000000
8357.000000,10410.000000,3355.000000,43759.000000
8330.000000,10339.000000,3328.000000,43748.000000
8312.000000,10351.000000,3291.000000,43752.000000
8296.000000,10332.000000,3287.000000,43740.000000
8292.000000,10307.000000,3289.000000,43701.000000
8297.000000,10288.000000,3290.000000,43727.000000
8285.000000,10291.000000,3279.000000,43729.000000
8265.000000,10327.000000,3287.000000,43717.000000
8307.000000,10311.000000,3305.000000,43717.000000
8299.000000,10331.000000,3300.000000,43733.000000
8282.000000,10335.000000,3325.000000,43762.000000
8271.000000,10328.000000,3308.000000,43750.000000
8304.000000,10315.000000,3331.000000,43749.000000
8295.000000,10319.000000,3292.000000,43749.000000
8347.000000,10366.000000,3303.000000,43749.000000
8330.000000,10319.000000,3337.000000,43767.000000
8337.000000,10341.000000,3345.000000,43795.000000
8355.000000,10362.000000,3395.000000,43807.000000
8375.000000,10368.000000,3413.000000,43801.000000
8365.000000,10359.000000,3431.000000,43828.000000
8363.000000,10380.000000,3404.000000,43820.000000
8433.000000,10407.000000,3427.000000,43823.000000
8376.000000,10411.000000,3447.000000,43831.000000
8443.000000,10424.000000,3480.000000,43843.000000
8465.000000,10443.000000,3464.000000,43867.000000
8488.000000,10425.000000,3512.000000,43884.000000
8483.000000,10505.000000,3573.000000,43917.000000
8477.000000,10489.000000,3578.000000,43935.000000
8573.000000,10521.000000,3592.000000,43925.000000
8569.000000,10507.000000,3608.000000,43945.000000
8583.000000,10540.000000,3664.000000,43959.000000
8623.000000,10563.000000,3674.000000,43965.000000
8686.000000,10616.000000,3698.000000,43984.000000
8816.000000,10653.000000,3804.000000,44074.000000
8792.000000,10707.000000,3850.000000,44116.000000
8853.000000,10683.000000,3911.000000,44088.000000
8866.000000,10729.000000,3859.000000,44084.000000
8905.000000,10745.000000,3939.000000,44131.000000
8932.000000,11011.000000,3955.000000,44120.000000
8941.000000,11016.000000,3971.000000,44121.000000
8951.000000,11036.000000,4011.000000,44163.000000
8966.000000,11027.000000,3999.000000,44165.000000
8942.000000,10704.000000,4003.000000,44152.000000
8993.000000,10748.000000,3975.000000,44143.000000
8965.000000,10801.000000,4016.000000,44150.000000
8984.000000,11031.000000,4007.000000,44160.000000
8975.000000,11075.000000,3999.000000,44151.000000
9049.000000,11040.000000,4025.000000,44182.000000
9001.000000,11039.000000,4004.000000,44153.000000
9027.000000,11051.000000,4013.000000,44172.000000
8987.000000,11043.000000,3999.000000,44148.000000
8992.000000,11024.000000,3995.000000,44127.000000
8994.000000,11036.000000,3977.000000,44138.000000
8985.000000,11047.000000,3981.000000,44129.000000
8991.000000,11017.000000,3994.000000,44152.000000
8961.000000,11041.000000,3987.000000,44170.000000
8983.000000,11032.000000,3988.000000,44133.000000
8977.000000,11013.000000,3975.000000,44140.000000
8987.000000,10755.000000,3969.000000,44154.000000
8979.000000,11032.000000,3971.000000,44143.000000
8960.000000,11039.000000,3933.000000,44110.000000
8948.000000,11027.000000,3959.000000,44142.000000
8987.000000,11031.000000,3976.000000,44124.000000
8972.000000,11035.000000,4006.000000,44105.000000
8992.000000,11019.000000,3981.000000,44138.000000
8979.000000,10743.000000,3949.000000,44110.000000
8945.000000,11043.000000,3963.000000,44104.000000
8961.000000,10743.000000,3956.000000,44102.000000
8971.000000,10751.000000,3931.000000,44119.000000
8951.000000,11017.000000,3907.000000,44122.000000
8954.000000,10735.000000,3932.000000,44103.000000
8961.000000,11012.000000,3930.000000,44114.000000
8947.000000,11013.000000,3921.000000,44121.000000
8948.000000,10715.000000,3939.000000,44101.000000
8951.000000,11011.000000,3952.000000,44119.000000
8930.000000,10745.000000,3923.000000,44107.000000
8961.000000,10731.000000,3911.000000,44115.000000
8915.000000,10756.000000,3896.000000,44109.000000
8927.000000,10735.000000,3903.000000,44100.000000
8967.000000,10733.000000,3902.000000,44105.000000
8951.000000,10739.000000,3932.000000,44092.000000
8936.000000,10741.000000,3915.000000,44119.000000
8934.000000,10732.000000,3915.000000,44079.000000
8947.000000,10707.000000,3913.000000,44115.000000
8929.000000,10720.000000,3907.000000,44097.000000
8931.000000,10720.000000,3892.000000,44074.000000
8928.000000,10716.000000,3863.000000,44086.000000
8898.000000,10731.000000,3871.000000,44107.000000
9201.000000,10733.000000,3891.000000,44062.000000
8929.000000,10705.000000,3897.000000,44083.000000
8923.000000,10692.000000,3855.000000,44059.000000
8915.000000,10705.000000,3869.000000,44077.000000
8924.000000,10693.000000,3868.000000,44078.000000
8915.000000,10713.000000,3841.000000,44084.000000
8892.000000,10705.000000,3825.000000,44043.000000
8919.000000,10723.000000,3844.000000,44031.000000
8875.000000,10699.000000,3811.000000,44041.000000
8898.000000,10691.000000,3812.000000,44058.000000
8907.000000,10677.000000,3852.000000,44036.000000
8882.000000,10717.000000,3839.000000,44052.000000
8901.000000,10703.000000,3792.000000,44068.000000
8909.000000,10705.000000,3792.000000,44040.000000
8873.000000,10707.000000,3786.000000,44036.000000
8857.000000,10671.000000,3781.000000,44040.000000
8910.000000,10669.000000,3787.000000,44039.000000
8862.000000,10671.000000,3812.000000,44048.000000
8865.000000,10656.000000,3786.000000,44051.000000
8862.000000,10667.000000,3771.000000,44027.000000
8851.000000,10647.000000,3750.000000,44031.000000
8880.000000,10660.000000,3773.000000,44035.000000
8878.000000,10660.000000,3775.000000,44036.000000
8854.000000,10649.000000,3759.000000,44003.000000
8876.000000,10648.000000,3732.000000,43997.000000
8834.000000,10660.000000,3738.000000,44039.000000
8867.000000,10632.000000,3711.000000,44040.000000
8827.000000,10623.000000,3758.000000,44020.000000
8816.000000,10612.000000,3734.000000,44003.000000
8821.000000,10623.000000,3718.000000,44012.000000
8828.000000,10645.000000,3728.000000,43979.000000
8805.000000,10639.000000,3731.000000,43999.000000
8825.000000,10633.000000,3979.000000,43956.000000
8804.000000,10612.000000,3710.000000,43995.000000
8822.000000,10620.000000,3708.000000,43985.000000
8796.000000,10587.000000,3680.000000,43985.000000
8771.000000,10580.000000,3673.000000,43985.000000
8803.000000,10631.000000,3688.000000,43951.000000
8799.000000,10607.000000,3654.000000,43967.000000
8799.000000,10584.000000,3648.000000,43979.000000
8751.000000,10608.000000,3639.000000,43964.000000
8749.000000,10607.000000,3649.000000,43957.000000
8755.000000,10579.000000,3642.000000,43935.000000
8775.000000,10556.000000,3621.000000,43981.000000
8744.000000,10561.000000,3620.000000,43935.000000
8764.000000,10587.000000,3594.000000,43919.000000
8753.000000,10545.000000,3630.000000,43919.000000
8749.000000,10593.000000,3587.000000,43955.000000
8721.000000,10560.000000,3589.000000,43919.000000
8693.000000,10523.000000,3592.000000,43913.000000
8688.000000,10524.000000,3548.000000,43908.000000
8687.000000,10479.000000,3533.000000,43900.000000
8643.000000,10483.000000,3495.000000,43879.000000
8654.000000,10487.000000,3523.000000,43891.000000
8628.000000,10497.000000,3506.000000,43881.000000
8619.000000,10475.000000,3484.000000,43844.000000
8619.000000,10480.000000,3458.000000,43849.000000
8569.000000,10443.000000,3431.000000,43820.000000
8556.000000,10463.000000,3452.000000,43859.000000
8529.000000,10384.000000,3409.000000,43819.000000
8493.000000,10408.000000,3393.000000,43787.000000
8457.000000,10391.000000,3347.000000,43795.000000
8471.000000,10376.000000,3356.000000,43769.000000
8461.000000,10385.000000,3354.000000,43776.000000
8460.000000,10372.000000,3352.000000,43770.000000
8432.000000,10395.000000,3318.000000,43757.000000
8419.000000,10367.000000,3302.000000,43746.000000
8446.000000,10352.000000,3339.000000,43763.000000
8419.000000,10357.000000,3292.000000,44009.000000
8421.000000,10369.000000,3276.000000,43751.000000
8475.000000,10321.000000,3323.000000,43733.000000
8471.000000,10392.000000,3328.000000,43799.000000
8448.000000,10359.000000,3309.000000,44008.000000
8453.000000,10365.000000,3297.000000,43757.000000
8440.000000,10375.000000,3323.000000,43783.000000
8434.000000,10377.000000,3313.000000,43785.000000
8444.000000,10399.000000,3329.000000,43800.000000
8440.000000,10353.000000,3317.000000,43766.000000
8463.000000,10380.000000,3335.000000,43770.000000
8489.000000,10379.000000,3359.000000,43792.000000
8504.000000,10417.000000,3363.000000,43795.000000
8528.000000,10418.000000,3344.000000,43809.000000
8527.000000,10399.000000,3405.000000,43848.000000
8492.000000,10429.000000,3440.000000,43817.000000
8556.000000,10461.000000,3412.000000,43833.000000
8563.000000,10435.000000,3435.000000,43817.000000
8558.000000,10428.000000,3412.000000,43864.000000
8617.000000,10446.000000,3465.000000,43841.000000
8639.000000,10503.000000,3498.000000,43889.000000
8652.000000,10507.000000,3523.000000,43900.000000
8677.000000,10535.000000,3580.000000,43927.000000
8723.000000,10551.000000,3579.000000,43963.000000
8738.000000,10589.000000,3622.000000,43979.000000
8816.000000,10592.000000,3667.000000,44000.000000
8864.000000,10619.000000,3735.000000,44012.000000
8907.000000,10643.000000,3763.000000,44028.000000
8943.000000,10669.000000,3817.000000,44046.000000
8999.000000,10728.000000,3864.000000,44095.000000
9040.000000,11012.000000,3897.000000,44099.000000
9085.000000,11021.000000,3911.000000,44141.000000
9075.000000,11043.000000,3924.000000,44151.000000
9114.000000,11049.000000,3958.000000,44154.000000
9156.000000,10805.000000,3993.000000,44153.000000
9168.000000,11039.000000,4007.000000,44200.000000
9168.000000,11079.000000,3989.000000,44167.000000
9167.000000,11103.000000,4040.000000,44159.000000
9203.000000,10839.000000,4043.000000,44197.000000
9195.000000,11084.000000,4019.000000,44191.000000
9196.000000,11131.000000,4031.000000,44182.000000
9169.000000,11144.000000,4024.000000,44214.000000
9137.000000,11079.000000,4011.000000,44192.000000
9195.000000,10839.000000,4009.000000,44181.000000
9165.000000,11080.000000,3995.000000,44199.000000
9179.000000,11072.000000,3985.000000,44166.000000
9189.000000,11067.000000,3967.000000,44148.000000
9171.000000,11117.000000,3991.000000,44203.000000
9204.000000,11093.000000,4039.000000,44143.000000
9227.000000,11081.000000,3988.000000,44164.000000
9149.000000,11100.000000,3981.000000,44153.000000
9135.000000,11043.000000,3983.000000,44172.000000
9151.000000,11071.000000,3975.000000,44136.000000
9144.000000,10789.000000,3949.000000,44133.000000
9191.000000,11059.000000,3969.000000,44128.000000
9128.000000,11076.000000,3965.000000,44135.000000
9167.000000,11039.000000,3967.000000,44165.000000
9159.000000,11068.000000,3963.000000,44154.000000
9132.000000,11095.000000,3979.000000,44144.000000
9120.000000,11059.000000,3971.000000,44165.000000
9119.000000,10807.000000,3961.000000,44143.000000
9098.000000,11043.000000,3952.000000,44150.000000
9099.000000,11029.000000,3955.000000,44131.000000
9104.000000,10787.000000,3938.000000,44113.000000
9088.000000,11039.000000,3960.000000,44114.000000
9091.000000,11063.000000,3939.000000,44098.000000
9108.000000,11061.000000,3936.000000,44148.000000
9111.000000,10827.000000,3960.000000,44128.000000
9097.000000,10800.000000,3939.000000,44096.000000
9079.000000,11063.000000,3935.000000,44123.000000
9079.000000,11036.000000,3911.000000,44113.000000
9115.000000,11043.000000,3910.000000,44143.000000
9096.000000,10783.000000,3915.000000,44112.000000
9101.000000,11049.000000,3904.000000,44091.000000
9103.000000,11059.000000,3941.000000,44146.000000
9084.000000,10799.000000,3933.000000,44127.000000
9079.000000,11071.000000,3925.000000,44117.000000
9075.000000,10768.000000,3892.000000,44133.000000
9076.000000,11017.000000,3900.000000,44071.000000
9091.000000,11029.000000,3924.000000,44091.000000
9116.000000,10759.000000,3880.000000,44099.000000
9071.000000,11043.000000,3881.000000,44108.000000
9104.000000,11021.000000,3899.000000,44083.000000
9080.000000,10779.000000,3903.000000,44101.000000
9087.000000,11043.000000,3871.000000,44091.000000
9064.000000,11039.000000,3888.000000,44093.000000
9050.000000,11015.000000,3841.000000,44087.000000
9088.000000,11032.000000,3837.000000,44062.000000
9057.000000,10763.000000,3839.000000,44052.000000
9051.000000,10753.000000,3827.000000,44085.000000
9032.000000,10732.000000,3834.000000,44096.000000
9049.000000,10743.000000,3856.000000,44069.000000
9061.000000,10731.000000,3851.000000,44061.000000
9053.000000,10739.000000,3819.000000,44059.000000
9044.000000,10723.000000,3831.000000,44059.000000
9031.000000,10735.000000,3822.000000,44015.000000
9036.000000,10729.000000,3802.000000,44075.000000
9051.000000,10755.000000,3828.000000,44049.000000
9041.000000,10735.000000,4062.000000,44061.000000
9051.000000,10735.000000,3796.000000,44055.000000
9024.000000,10691.000000,3753.000000,44029.000000
9008.000000,10700.000000,3775.000000,43997.000000
9013.000000,10712.000000,3771.000000,44029.000000
9039.000000,10701.000000,3761.000000,44011.000000
9015.000000,10736.000000,3784.000000,44048.000000
8987.000000,10707.000000,3787.000000,44027.000000
8991.000000,10687.000000,3762.000000,44031.000000
8995.000000,10671.000000,3744.000000,44021.000000
8965.000000,10719.000000,3725.000000,43997.000000
8957.000000,10675.000000,3705.000000,43976.000000
8933.000000,10667.000000,3707.000000,43995.000000
8959.000000,10711.000000,3729.000000,43999.000000
8948.000000,10677.000000,3729.000000,43992.000000
8930.000000,10712.000000,3732.000000,43991.000000
8926.000000,10643.000000,3726.000000,43981.000000
8959.000000,10683.000000,3711.000000,43997.000000
8936.000000,10660.000000,3663.000000,43979.000000
9175.000000,10653.000000,3667.000000,43976.000000
8905.000000,10681.000000,3689.000000,43981.000000
8932.000000,10635.000000,3699.000000,43969.000000
8944.000000,10628.000000,3678.000000,43968.000000
8927.000000,10675.000000,3652.000000,43987.000000
8891.000000,10647.000000,3643.000000,43949.000000
8865.000000,10640.000000,3633.000000,43972.000000
8876.000000,10600.000000,3613.000000,43924.000000
8849.000000,10619.000000,3615.000000,43944.000000
8853.000000,10585.000000,3585.000000,43931.000000
8814.000000,10627.000000,3626.000000,43916.000000
8825.000000,10592.000000,3590.000000,43940.000000
8817.000000,10579.000000,3556.000000,43917.000000
8770.000000,10572.000000,3521.000000,43869.000000
8753.000000,10543.000000,3526.000000,43865.000000
8767.000000,10540.000000,3515.000000,43831.000000
8710.000000,10551.000000,3465.000000,43867.000000
8700.000000,10495.000000,3429.000000,43843.000000
8674.000000,10485.000000,3432.000000,43823.000000
8635.000000,10480.000000,3395.000000,43820.000000
8632.000000,10483.000000,3373.000000,43793.000000
8615.000000,10459.000000,3387.000000,43788.000000
8602.000000,10444.000000,3360.000000,43785.000000
8601.000000,10433.000000,3389.000000,43797.000000
8572.000000,10435.000000,3352.000000,43763.000000
8607.000000,10428.000000,3326.000000,43779.000000
8588.000000,10383.000000,3356.000000,43763.000000
8563.000000,10415.000000,3332.000000,43789.000000
8590.000000,10355.000000,3321.000000,43785.000000
8623.000000,10427.000000,3333.000000,43797.000000
8577.000000,10423.000000,3361.000000,43783.000000
8595.000000,10435.000000,3370.000000,43779.000000
8565.000000,10427.000000,3329.000000,43800.000000
8603.000000,10407.000000,3335.000000,43799.000000
8575.000000,10405.000000,3375.000000,43763.000000
8623.000000,10407.000000,3349.000000,43795.000000
8640.000000,10476.000000,3367.000000,43787.000000
8634.000000,10456.000000,3409.000000,43807.000000
8656.000000,10456.000000,3408.000000,43797.000000
8639.000000,10477.000000,3420.000000,43841.000000
8705.000000,10495.000000,3427.000000,43847.000000
8675.000000,10511.000000,3443.000000,43879.000000
8727.000000,10525.000000,3499.000000,43879.000000
8734.000000,10537.000000,3471.000000,43876.000000
8728.000000,10549.000000,3512.000000,43859.000000
8748.000000,10573.000000,3533.000000,43903.000000
8791.000000,10567.000000,3535.000000,43931.000000
8770.000000,10581.000000,3566.000000,43933.000000
8793.000000,10601.000000,3596.000000,43959.000000
8818.000000,10595.000000,3635.000000,43983.000000
8875.000000,10612.000000,3618.000000,43952.000000
8879.000000,10643.000000,3716.000000,44015.000000
8935.000000,10648.000000,3691.000000,44003.000000
9003.000000,10697.000000,3775.000000,44051.000000
9035.000000,10747.000000,3827.000000,44065.000000
9104.000000,11043.000000,3867.000000,44105.000000
9128.000000,11035.000000,3903.000000,44137.000000
9197.000000,11083.000000,3935.000000,44164.000000
9224.000000,11095.000000,3980.000000,44169.000000
9285.000000,11129.000000,4011.000000,44188.000000
9338.000000,11135.000000,4039.000000,44215.000000
9352.000000,11164.000000,4070.000000,44225.000000
9380.000000,11197.000000,4097.000000,44240.000000
9364.000000,11179.000000,4106.000000,44256.000000
9368.000000,11197.000000,4122.000000,44271.000000
9428.000000,11203.000000,4114.000000,44251.000000
9397.000000,11196.000000,4125.000000,44260.000000
9430.000000,10933.000000,4173.000000,44257.000000
9439.000000,11221.000000,4165.000000,44270.000000
9452.000000,11211.000000,4165.000000,44273.000000
9443.000000,10971.000000,4176.000000,44247.000000
9422.000000,11219.000000,4140.000000,44295.000000
9440.000000,11228.000000,4149.000000,44287.000000
9480.000000,10963.000000,4134.000000,44252.000000
9455.000000,10943.000000,4130.000000,44241.000000
9454.000000,11199.000000,4114.000000,44236.000000
9463.000000,11231.000000,4171.000000,44229.000000
9468.000000,10981.000000,4140.000000,44280.000000
9446.000000,10931.000000,4130.000000,44289.000000
9438.000000,11159.000000,4115.000000,44261.000000
9428.000000,11172.000000,4071.000000,44220.000000
9441.000000,11184.000000,4102.000000,44240.000000
9437.000000,11195.000000,4093.000000,44238.000000
9475.000000,11192.000000,4127.000000,44272.000000
9454.000000,11213.000000,4134.000000,44287.000000
9458.000000,11191.000000,4102.000000,44241.000000
9405.000000,10948.000000,4072.000000,44251.000000
9440.000000,11207.000000,4117.000000,44252.000000
9445.000000,11185.000000,4112.000000,44239.000000
9440.000000,11219.000000,4131.000000,44223.000000
9434.000000,11207.000000,4113.000000,44237.000000
9459.000000,11188.000000,4101.000000,44247.000000
9439.000000,11231.000000,4125.000000,44278.000000
9410.000000,11208.000000,4107.000000,44263.000000
9439.000000,11200.000000,4106.000000,44240.000000
9421.000000,11231.000000,4073.000000,44228.000000
9394.000000,11211.000000,4080.000000,44227.000000
9424.000000,11195.000000,4070.000000,44212.000000
9437.000000,10949.000000,4072.000000,44216.000000
9437.000000,10959.000000,4091.000000,44225.000000
9429.000000,11239.000000,4119.000000,44210.000000
9407.000000,11239.000000,4089.000000,44232.000000
9467.000000,11239.000000,4120.000000,44252.000000
9409.000000,11208.000000,4104.000000,44232.000000
9407.000000,11221.000000,4072.000000,44211.000000
9439.000000,10954.000000,4069.000000,44176.000000
9435.000000,11223.000000,4093.000000,44226.000000
9404.000000,11199.000000,4111.000000,44237.000000
9423.000000,10977.000000,4083.000000,44219.000000
9379.000000,11215.000000,4079.000000,44211.000000
9387.000000,11195.000000,4055.000000,44187.000000
9381.000000,11212.000000,4063.000000,44185.000000
9365.000000,11211.000000,4042.000000,44184.000000
9410.000000,11163.000000,4064.000000,44185.000000
9400.000000,11229.000000,4056.000000,44204.000000
9388.000000,11199.000000,4049.000000,44212.000000
9381.000000,11199.000000,4059.000000,44192.000000
9394.000000,11203.000000,4044.000000,44180.000000
9356.000000,11192.000000,4017.000000,44185.000000
9394.000000,11179.000000,4010.000000,44201.000000
9385.000000,11188.000000,4043.000000,44179.000000
9382.000000,10939.000000,4020.000000,44193.000000
9374.000000,11188.000000,4017.000000,44199.000000
9375.000000,11155.000000,4025.000000,44167.000000
9405.000000,11195.000000,4025.000000,44198.000000
9360.000000,11189.000000,4015.000000,44150.000000
9384.000000,10923.000000,4015.000000,44165.000000
9386.000000,11140.000000,4012.000000,44174.000000
9373.000000,11155.000000,4017.000000,44182.000000
9344.000000,11183.000000,3961.000000,44141.000000
9372.000000,11152.000000,3987.000000,44161.000000
9347.000000,11161.000000,3975.000000,44141.000000
9332.000000,10884.000000,3981.000000,44168.000000
9361.000000,11167.000000,3980.000000,44167.000000
9334.000000,10861.000000,3964.000000,44150.000000
9343.000000,11119.000000,3949.000000,44134.000000
9355.000000,11143.000000,3927.000000,44114.000000
9342.000000,11135.000000,3932.000000,44115.000000
9371.000000,11121.000000,3939.000000,44143.000000
9351.000000,11149.000000,3941.000000,44152.000000
9357.000000,11093.000000,3922.000000,44109.000000
9329.000000,11111.000000,3927.000000,44095.000000
9335.000000,11132.000000,3939.000000,44151.000000
9320.000000,11084.000000,3908.000000,44133.000000
9313.000000,11123.000000,3889.000000,44115.000000
9331.000000,11143.000000,3904.000000,44115.000000
9321.000000,11075.000000,3891.000000,44111.000000
9329.000000,11115.000000,3863.000000,44085.000000
9317.000000,11104.000000,3895.000000,44119.000000
9334.000000,10896.000000,3926.000000,44149.000000
9301.000000,11123.000000,3867.000000,44127.000000
9320.000000,11096.000000,3885.000000,44114.000000
9321.000000,11111.000000,3903.000000,44121.000000
9338.000000,11101.000000,3904.000000,44092.000000
9315.000000,11131.000000,3899.000000,44077.000000
9322.000000,11129.000000,3913.000000,44089.000000
9337.000000,10886.000000,3947.000000,44128.000000
9315.000000,11159.000000,3951.000000,44111.000000
9292.000000,11151.000000,3924.000000,44122.000000
9281.000000,11091.000000,3921.000000,44108.000000
9284.000000,11132.000000,3932.000000,44057.000000
9274.000000,11151.000000,3949.000000,44103.000000
9277.000000,11188.000000,3919.000000,44114.000000
9254.000000,11129.000000,3871.000000,44095.000000
9201.000000,10877.000000,3876.000000,44053.000000
9159.000000,11113.000000,3863.000000,44037.000000
9223.000000,11135.000000,3883.000000,44056.000000
9187.000000,10845.000000,3859.000000,44054.000000
9173.000000,11115.000000,3857.000000,44041.000000
9123.000000,11091.000000,3810.000000,44034.000000
9092.000000,11108.000000,3814.000000,43992.000000
9109.000000,11076.000000,3804.000000,43984.000000
9079.000000,11059.000000,3749.000000,43976.000000
9083.000000,10798.000000,3776.000000,43993.000000
9059.000000,10803.000000,3757.000000,43976.000000
9052.000000,11057.000000,3735.000000,43985.000000
9051.000000,11057.000000,3750.000000,43992.000000
9027.000000,11121.000000,3761.000000,43988.000000
9044.000000,11051.000000,3746.000000,43951.000000
9011.000000,10799.000000,3753.000000,43968.000000
9053.000000,11099.000000,3773.000000,44005.000000
9076.000000,11063.000000,3766.000000,43972.000000
9072.000000,10807.000000,3781.000000,43987.000000
9084.000000,11080.000000,3806.000000,43979.000000
9077.000000,11088.000000,3817.000000,43996.000000
9075.000000,11075.000000,3778.000000,43992.000000
9079.000000,11079.000000,3765.000000,44001.000000
9087.000000,11099.000000,3843.000000,44020.000000
9116.000000,11108.000000,3841.000000,44025.000000
9125.000000,10845.000000,3852.000000,44031.000000
9147.000000,10867.000000,3847.000000,44023.000000
9107.000000,10864.000000,3869.000000,44059.000000
9161.000000,11155.000000,3860.000000,44063.000000
9171.000000,10886.000000,3915.000000,44054.000000
9196.000000,11160.000000,3908.000000,44083.000000
9215.000000,10918.000000,3956.000000,44121.000000
9239.000000,11163.000000,3959.000000,44081.000000
9245.000000,11175.000000,3980.000000,44079.000000
9245.000000,11220.000000,3992.000000,44108.000000
9266.000000,11221.000000,4029.000000,44153.000000
9288.000000,11247.000000,4077.000000,44152.000000
9300.000000,11012.000000,4071.000000,44159.000000
9308.000000,11259.000000,4145.000000,44175.000000
9370.000000,11079.000000,4150.000000,44215.000000
9421.000000,11067.000000,4201.000000,44221.000000
9428.000000,11055.000000,4217.000000,44233.000000
9479.000000,11125.000000,4232.000000,44239.000000
9507.000000,11153.000000,4268.000000,44259.000000
9547.000000,11175.000000,4292.000000,44303.000000
9575.000000,11175.000000,4314.000000,44295.000000
9573.000000,11179.000000,4333.000000,44311.000000
9635.000000,11215.000000,4354.000000,44333.000000
9667.000000,11213.000000,4373.000000,44328.000000
9704.000000,11227.000000,4438.000000,44355.000000
9756.000000,11259.000000,4439.000000,44379.000000
9742.000000,11283.000000,4499.000000,44395.000000
9764.000000,11311.000000,4493.000000,44415.000000
9777.000000,11277.000000,4522.000000,44411.000000
9784.000000,11296.000000,4508.000000,44411.000000
9796.000000,11283.000000,4511.000000,44432.000000
9816.000000,11285.000000,4510.000000,44379.000000
9791.000000,11298.000000,4534.000000,44388.000000
9799.000000,11299.000000,4533.000000,44443.000000
9824.000000,11361.000000,4544.000000,44431.000000
9830.000000,11357.000000,4543.000000,44427.000000
9766.000000,11283.000000,4518.000000,44424.000000
9816.000000,11323.000000,4499.000000,44407.000000
9786.000000,11295.000000,4523.000000,44425.000000
9795.000000,11332.000000,4504.000000,44428.000000
9790.000000,11323.000000,4499.000000,44391.000000
9771.000000,11289.000000,4509.000000,44411.000000
9807.000000,11340.000000,4510.000000,44416.000000
9833.000000,11317.000000,4551.000000,44401.000000
9811.000000,11324.000000,4531.000000,44423.000000
9782.000000,11319.000000,4504.000000,44407.000000
9776.000000,11296.000000,4505.000000,44405.000000
9794.000000,11324.000000,4497.000000,44399.000000
9811.000000,11317.000000,4504.000000,44380.000000
9769.000000,11292.000000,4491.000000,44392.000000
9819.000000,11315.000000,4489.000000,44403.000000
9765.000000,11291.000000,4535.000000,44412.000000
9771.000000,11329.000000,4508.000000,44427.000000
9766.000000,11323.000000,4496.000000,44399.000000
9800.000000,11296.000000,4516.000000,44401.000000
9802.000000,11303.000000,4490.000000,44375.000000
9781.000000,11329.000000,4521.000000,44375.000000
9768.000000,11324.000000,4567.000000,44399.000000
9787.000000,11355.000000,4530.000000,44423.000000
9801.000000,11327.000000,4511.000000,44433.000000
9793.000000,11344.000000,4496.000000,44420.000000
9760.000000,11312.000000,4483.000000,44396.000000
9789.000000,11339.000000,4512.000000,44381.000000
10055.000000,11330.000000,4511.000000,44393.000000
9809.000000,11315.000000,4502.000000,44340.000000
9805.000000,11313.000000,4502.000000,44356.000000
9779.000000,11339.000000,4481.000000,44407.000000
9787.000000,11343.000000,4531.000000,44417.000000
9790.000000,11343.000000,4495.000000,44392.000000
9777.000000,11351.000000,4535.000000,44387.000000
10047.000000,11312.000000,4532.000000,44365.000000
9786.000000,11336.000000,4521.000000,44356.000000
9763.000000,11342.000000,4503.000000,44348.000000
9771.000000,11339.000000,4502.000000,44391.000000
9740.000000,11347.000000,4516.000000,44395.000000
9763.000000,11361.000000,4544.000000,44377.000000
9776.000000,11372.000000,4530.000000,44361.000000
9777.000000,11335.000000,4531.000000,44376.000000
9745.000000,11329.000000,4491.000000,44364.000000
9744.000000,11343.000000,4524.000000,44396.000000
9804.000000,11343.000000,4487.000000,44343.000000
9753.000000,11335.000000,4512.000000,44375.000000
9733.000000,11357.000000,4505.000000,44343.000000
9734.000000,11353.000000,4543.000000,44372.000000
9759.000000,11345.000000,4519.000000,44379.000000
9734.000000,11344.000000,4519.000000,44363.000000
9717.000000,11351.000000,4501.000000,44325.000000
9741.000000,11355.000000,4483.000000,44353.000000
9752.000000,11356.000000,4529.000000,44365.000000
9741.000000,11352.000000,4496.000000,44365.000000
9765.000000,11364.000000,4523.000000,44336.000000
9734.000000,11364.000000,4500.000000,44356.000000
9734.000000,11385.000000,4520.000000,44372.000000
9711.000000,11371.000000,4492.000000,44341.000000
9743.000000,11348.000000,4491.000000,44337.000000
9759.000000,11384.000000,4503.000000,44345.000000
9769.000000,11353.000000,4511.000000,44373.000000
9730.000000,11353.000000,4520.000000,44356.000000
9753.000000,11373.000000,4510.000000,44368.000000
9739.000000,11347.000000,4513.000000,44336.000000
9713.000000,11379.000000,4511.000000,44360.000000
9707.000000,11341.000000,4489.000000,44356.000000
9745.000000,11371.000000,4491.000000,44351.000000
9727.000000,11384.000000,4506.000000,44351.000000
9703.000000,11367.000000,4531.000000,44367.000000
9699.000000,11373.000000,4518.000000,44331.000000
9708.000000,11403.000000,4500.000000,44333.000000
9683.000000,11338.000000,4503.000000,44333.000000
9703.000000,11383.000000,4509.000000,44351.000000
9695.000000,11343.000000,4506.000000,44313.000000
9728.000000,11361.000000,4506.000000,44335.000000
9693.000000,11316.000000,4522.000000,44335.000000
9681.000000,11351.000000,4465.000000,44327.000000
9692.000000,11325.000000,4491.000000,44297.000000
9685.000000,11359.000000,4498.000000,44311.000000
9723.000000,11368.000000,4487.000000,44327.000000
9683.000000,11343.000000,4500.000000,44332.000000
9675.000000,11343.000000,4492.000000,44303.000000
9691.000000,11364.000000,4508.000000,44356.000000
9704.000000,11345.000000,4493.000000,44328.000000
9683.000000,11348.000000,4477.000000,44295.000000
9677.000000,11363.000000,4484.000000,44300.000000
9684.000000,11370.000000,4481.000000,44332.000000
9703.000000,11347.000000,4455.000000,44323.000000
9683.000000,11357.000000,4459.000000,44341.000000
9652.000000,11353.000000,4449.000000,44329.000000
9704.000000,11329.000000,4489.000000,44345.000000
9683.000000,11347.000000,4498.000000,44324.000000
9647.000000,11309.000000,4489.000000,44291.000000
9655.000000,11349.000000,4463.000000,44315.000000
9655.000000,11323.000000,4434.000000,44287.000000
9657.000000,11356.000000,4453.000000,44304.000000
9654.000000,11334.000000,4464.000000,44280.000000
9682.000000,11367.000000,4431.000000,44303.000000
9647.000000,11305.000000,4457.000000,44299.000000
9633.000000,11329.000000,4452.000000,44284.000000
9626.000000,11324.000000,4428.000000,44276.000000
9608.000000,11307.000000,4400.000000,44271.000000
9603.000000,11305.000000,4429.000000,44281.000000
9613.000000,11311.000000,4408.000000,44280.000000
9636.000000,11273.000000,4396.000000,44289.000000
9615.000000,11307.000000,4393.000000,44281.000000
9611.000000,11321.000000,4387.000000,44292.000000
9604.000000,11276.000000,4376.000000,44276.000000
9610.000000,11280.000000,4424.000000,44274.000000
9631.000000,11306.000000,4399.000000,44274.000000
9595.000000,11300.000000,4392.000000,44269.000000
9575.000000,11277.000000,4394.000000,44248.000000
9609.000000,11268.000000,4394.000000,44273.000000
9620.000000,11313.000000,4379.000000,44277.000000
9643.000000,11283.000000,4392.000000,44281.000000
9607.000000,11323.000000,4393.000000,44284.000000
9599.000000,11281.000000,4363.000000,44279.000000
9624.000000,11299.000000,4371.000000,44273.000000
9593.000000,11289.000000,4389.000000,44267.000000
9616.000000,11297.000000,4395.000000,44261.000000
9608.000000,11291.000000,4431.000000,44292.000000
9641.000000,11276.000000,4399.000000,44291.000000
9633.000000,11279.000000,4391.000000,44283.000000
9659.000000,11275.000000,4412.000000,44289.000000
9655.000000,11295.000000,4403.000000,44293.000000
9650.000000,11292.000000,4408.000000,44263.000000
9703.000000,11293.000000,4393.000000,44285.000000
9663.000000,11311.000000,4393.000000,44276.000000
9661.000000,11323.000000,4403.000000,44313.000000
9689.000000,11337.000000,4430.000000,44295.000000
9704.000000,11384.000000,4438.000000,44305.000000
9685.000000,11320.000000,4435.000000,44319.000000
9705.000000,11324.000000,4439.000000,44291.000000
9755.000000,11340.000000,4465.000000,44355.000000
9771.000000,11377.000000,4489.000000,44339.000000
9754.000000,11359.000000,4511.000000,44349.000000
9778.000000,11385.000000,4508.000000,44345.000000
9786.000000,11389.000000,4514.000000,44355.000000
9844.000000,11431.000000,4541.000000,44364.000000
9810.000000,11391.000000,4541.000000,44367.000000
9867.000000,11427.000000,4568.000000,44391.000000
9856.000000,11423.000000,4564.000000,44372.000000
9894.000000,11445.000000,4551.000000,44372.000000
9891.000000,11459.000000,4591.000000,44393.000000
9886.000000,11456.000000,4589.000000,44399.000000
9913.000000,11461.000000,4570.000000,44411.000000
9871.000000,11464.000000,4580.000000,44416.000000
9880.000000,11460.000000,4598.000000,44401.000000
9857.000000,11451.000000,4588.000000,44376.000000
9884.000000,11455.000000,4597.000000,44388.000000
9883.000000,11439.000000,4559.000000,44408.000000
9879.000000,11467.000000,4577.000000,44403.000000
9856.000000,11445.000000,4560.000000,44384.000000
9875.000000,11446.000000,4575.000000,44387.000000
9880.000000,11445.000000,4584.000000,44412.000000
10099.000000,11451.000000,4591.000000,44375.000000
9861.000000,11436.000000,4559.000000,44388.000000
9872.000000,11423.000000,4557.000000,44359.000000
9852.000000,11427.000000,4567.000000,44397.000000
9893.000000,11451.000000,4560.000000,44371.000000
9873.000000,11451.000000,4584.000000,44389.000000
9855.000000,11454.000000,4573.000000,44409.000000
9835.000000,11444.000000,4543.000000,44407.000000
9852.000000,11447.000000,4599.000000,44380.000000
9874.000000,11421.000000,4583.000000,44371.000000
9858.000000,11428.000000,4572.000000,44363.000000
9868.000000,11442.000000,4595.000000,44359.000000
9836.000000,11442.000000,4567.000000,44380.000000
9869.000000,11460.000000,4588.000000,44404.000000
9838.000000,11447.000000,4565.000000,44375.000000
9862.000000,11456.000000,4568.000000,44383.000000
9841.000000,11441.000000,4568.000000,44395.000000
10091.000000,11421.000000,4547.000000,44379.000000
9856.000000,11428.000000,4548.000000,44364.000000
9817.000000,11436.000000,4555.000000,44359.000000
9834.000000,11440.000000,4545.000000,44365.000000
9840.000000,11431.000000,4551.000000,44376.000000
9849.000000,11423.000000,4551.000000,44391.000000
9821.000000,11415.000000,4540.000000,44359.000000
9837.000000,11421.000000,4542.000000,44336.000000
9811.000000,11399.000000,4511.000000,44367.000000
9823.000000,11424.000000,4538.000000,44349.000000
9800.000000,11369.000000,4494.000000,44327.000000
9802.000000,11379.000000,4523.000000,44351.000000
9821.000000,11395.000000,4544.000000,44351.000000
9835.000000,11405.000000,4525.000000,44368.000000
9856.000000,11407.000000,4515.000000,44361.000000
9805.000000,11392.000000,4499.000000,44352.000000
9801.000000,11395.000000,4528.000000,44347.000000
10064.000000,11387.000000,4512.000000,44337.000000
9792.000000,11387.000000,4512.000000,44325.000000
9818.000000,11376.000000,4479.000000,44341.000000
9789.000000,11403.000000,4497.000000,44347.000000
9770.000000,11369.000000,4528.000000,44333.000000
9799.000000,11359.000000,4468.000000,44337.000000
9782.000000,11365.000000,4484.000000,44363.000000
9806.000000,11363.000000,4463.000000,44339.000000
9791.000000,11359.000000,4495.000000,44333.000000
9778.000000,11356.000000,4469.000000,44312.000000
9811.000000,11378.000000,4464.000000,44332.000000
9763.000000,11351.000000,4477.000000,44351.000000
9799.000000,11371.000000,4460.000000,44323.000000
9797.000000,11381.000000,4456.000000,44353.000000
9781.000000,11335.000000,4472.000000,44316.000000
9775.000000,11349.000000,4452.000000,44303.000000
9781.000000,11373.000000,4442.000000,44316.000000
10021.000000,11345.000000,4452.000000,44328.000000
9817.000000,11340.000000,4429.000000,44299.000000
9784.000000,11371.000000,4477.000000,44324.000000
9760.000000,11365.000000,4451.000000,44333.000000
9764.000000,11371.000000,4441.000000,44339.000000
9760.000000,11367.000000,4431.000000,44339.000000
9771.000000,11370.000000,4421.000000,44315.000000
9771.000000,11332.000000,4453.000000,44305.000000
9769.000000,11311.000000,4420.000000,44299.000000
9773.000000,11315.000000,4425.000000,44289.000000
9784.000000,11315.000000,4448.000000,44307.000000
9806.000000,11367.000000,4463.000000,44295.000000
9787.000000,11347.000000,4453.000000,44317.000000
9799.000000,11341.000000,4431.000000,44319.000000
9771.000000,11331.000000,4438.000000,44289.000000
9758.000000,11331.000000,4408.000000,44283.000000
9795.000000,11333.000000,4409.000000,44308.000000
10019.000000,11339.000000,4419.000000,44293.000000
9785.000000,11317.000000,4393.000000,44268.000000
9775.000000,11337.000000,4435.000000,44281.000000
9813.000000,11367.000000,4406.000000,44288.000000
9823.000000,11351.000000,4435.000000,44301.000000
9778.000000,11346.000000,4423.000000,44301.000000
9789.000000,11357.000000,4412.000000,44287.000000
9762.000000,11339.000000,4424.000000,44293.000000
9766.000000,11357.000000,4403.000000,44295.000000
9760.000000,11339.000000,4400.000000,44301.000000
9736.000000,11303.000000,4379.000000,44274.000000
9784.000000,11332.000000,4371.000000,44273.000000
9752.000000,11307.000000,4391.000000,44260.000000
9756.000000,11308.000000,4371.000000,44251.000000
9766.000000,11324.000000,4379.000000,44277.000000
9725.000000,11299.000000,4389.000000,44262.000000
9728.000000,11321.000000,4369.000000,44247.000000
10000.000000,11309.000000,4353.000000,44295.000000
9731.000000,11304.000000,4346.000000,44242.000000
9723.000000,11288.000000,4339.000000,44237.000000
9699.000000,11299.000000,4360.000000,44255.000000
9740.000000,11299.000000,4346.000000,44256.000000
9680.000000,11268.000000,4307.000000,44215.000000
9680.000000,11267.000000,4316.000000,44232.000000
9703.000000,11259.000000,4330.000000,44213.000000
9669.000000,11247.000000,4313.000000,44190.000000
9679.000000,11273.000000,4327.000000,44216.000000
9669.000000,11281.000000,4317.000000,44225.000000
9653.000000,11300.000000,4274.000000,44219.000000
9676.000000,11268.000000,4286.000000,44228.000000
9637.000000,11252.000000,4317.000000,44225.000000
9632.000000,11263.000000,4325.000000,44243.000000
9609.000000,11283.000000,4295.000000,44211.000000
9624.000000,11260.000000,4307.000000,44186.000000
9628.000000,11253.000000,4284.000000,44184.000000
9613.000000,11244.000000,4295.000000,44196.000000
9651.000000,11267.000000,4321.000000,44215.000000
9651.000000,11291.000000,4296.000000,44207.000000
9631.000000,11265.000000,4306.000000,44219.000000
9643.000000,11260.000000,4298.000000,44220.000000
9649.000000,11270.000000,4324.000000,44203.000000
9652.000000,11279.000000,4335.000000,44183.000000
9659.000000,11259.000000,4322.000000,44210.000000
9635.000000,11249.000000,4326.000000,44201.000000
9653.000000,11293.000000,4304.000000,44194.000000
9681.000000,11275.000000,4330.000000,44228.000000
9681.000000,11289.000000,4325.000000,44221.000000
9693.000000,11323.000000,4364.000000,44216.000000
9721.000000,11300.000000,4331.000000,44224.000000
9688.000000,11313.000000,4365.000000,44217.000000
9689.000000,11309.000000,4330.000000,44231.000000
9708.000000,11339.000000,4395.000000,44233.000000
9711.000000,11319.000000,4382.000000,44240.000000
9720.000000,11313.000000,4391.000000,44271.000000
9723.000000,11319.000000,4383.000000,44242.000000
9725.000000,11325.000000,4400.000000,44226.000000
9753.000000,11336.000000,4420.000000,44254.000000
9750.000000,11349.000000,4399.000000,44259.000000
9789.000000,11356.000000,4432.000000,44317.000000
9815.000000,11395.000000,4404.000000,44303.000000
9807.000000,11371.000000,4407.000000,44296.000000
9844.000000,11385.000000,4447.000000,44311.000000
9843.000000,11355.000000,4432.000000,44305.000000
9878.000000,11367.000000,4464.000000,44297.000000
9895.000000,11365.000000,4480.000000,44299.000000
9912.000000,11385.000000,4437.000000,44315.000000
10184.000000,11384.000000,4461.000000,44308.000000
9926.000000,11385.000000,4464.000000,44335.000000
9913.000000,11411.000000,4467.000000,44347.000000
9947.000000,11379.000000,4455.000000,44333.000000
9918.000000,11363.000000,4464.000000,44309.000000
9932.000000,11383.000000,4484.000000,44315.000000
9932.000000,11392.000000,4491.000000,44331.000000
10205.000000,11361.000000,4479.000000,44320.000000
9954.000000,11396.000000,4481.000000,44343.000000
9943.000000,11387.000000,4486.000000,44324.000000
9942.000000,11391.000000,4470.000000,44315.000000
9941.000000,11389.000000,4461.000000,44336.000000
9932.000000,11391.000000,4455.000000,44323.000000
9899.000000,11369.000000,4430.000000,44353.000000
9922.000000,11379.000000,4463.000000,44320.000000
9930.000000,11341.000000,4447.000000,44331.000000
9915.000000,11412.000000,4436.000000,44297.000000
9943.000000,11389.000000,4475.000000,44327.000000
9925.000000,11381.000000,4465.000000,44283.000000
10155.000000,11398.000000,4459.000000,44310.000000
9904.000000,11408.000000,4451.000000,44335.000000
9904.000000,11388.000000,4467.000000,44323.000000
9901.000000,11403.000000,4456.000000,44297.000000
9907.000000,11401.000000,4443.000000,44323.000000
9905.000000,11363.000000,4463.000000,44315.000000
9901.000000,11387.000000,4449.000000,44301.000000
9899.000000,11356.000000,4439.000000,44295.000000
9908.000000,11391.000000,4447.000000,44320.000000
9913.000000,11375.000000,4460.000000,44305.000000
9901.000000,11413.000000,4457.000000,44323.000000
9923.000000,11379.000000,4438.000000,44295.000000
9919.000000,11377.000000,4431.000000,44311.000000
9918.000000,11347.000000,4457.000000,44317.000000
9922.000000,11368.000000,4423.000000,44289.000000
9881.000000,11367.000000,4423.000000,44308.000000
9918.000000,11387.000000,4437.000000,44303.000000
9915.000000,11373.000000,4417.000000,44295.000000
9938.000000,11385.000000,4416.000000,44301.000000
9893.000000,11357.000000,4445.000000,44307.000000
9922.000000,11349.000000,4436.000000,44304.000000
9894.000000,11349.000000,4387.000000,44282.000000
9910.000000,11368.000000,4387.000000,44305.000000
9914.000000,11335.000000,4429.000000,44291.000000
9914.000000,11375.000000,4417.000000,44311.000000
9911.000000,11368.000000,4413.000000,44308.000000
9879.000000,11379.000000,4407.000000,44301.000000
9888.000000,11336.000000,4387.000000,44289.000000
9908.000000,11347.000000,4408.000000,44292.000000
9894.000000,11335.000000,4395.000000,44272.000000
9907.000000,11350.000000,4404.000000,44296.000000
9921.000000,11316.000000,4392.000000,44275.000000
9936.000000,11359.000000,4400.000000,44296.000000
9903.000000,11360.000000,4405.000000,44308.000000
9939.000000,11363.000000,4396.000000,44291.000000
9876.000000,11369.000000,4381.000000,44303.000000
9881.000000,11323.000000,4368.000000,44319.000000
9895.000000,11309.000000,4355.000000,44285.000000
9913.000000,11325.000000,4353.000000,44275.000000
9943.000000,11347.000000,4371.000000,44284.000000
9926.000000,11359.000000,4377.000000,44285.000000
9935.000000,11351.000000,4375.000000,44297.000000
9909.000000,11348.000000,4367.000000,44295.000000
10152.000000,11319.000000,4357.000000,44284.000000
9878.000000,11364.000000,4367.000000,44274.000000
9924.000000,11351.000000,4349.000000,44271.000000
9933.000000,11335.000000,4359.000000,44268.000000
9943.000000,11356.000000,4380.000000,44284.000000
9892.000000,11323.000000,4337.000000,44265.000000
9895.000000,11324.000000,4342.000000,44264.000000
9915.000000,11319.000000,4334.000000,44284.000000
9921.000000,11327.000000,4356.000000,44244.000000
9896.000000,11323.000000,4317.000000,44251.000000
9909.000000,11351.000000,4348.000000,44308.000000
9910.000000,11353.000000,4369.000000,44291.000000
9892.000000,11349.000000,4327.000000,44273.000000
9927.000000,11341.000000,4335.000000,44303.000000
9866.000000,11289.000000,4310.000000,44239.000000
9889.000000,11346.000000,4340.000000,44261.000000
9899.000000,11327.000000,4344.000000,44255.000000
9902.000000,11324.000000,4360.000000,44254.000000
9872.000000,11311.000000,4330.000000,44252.000000
9888.000000,11315.000000,4348.000000,44260.000000
9872.000000,11334.000000,4357.000000,44251.000000
9866.000000,11331.000000,4323.000000,44233.000000
9890.000000,11328.000000,4304.000000,44257.000000
9899.000000,11351.000000,4302.000000,44220.000000
9921.000000,11325.000000,4343.000000,44228.000000
9875.000000,11302.000000,4321.000000,44239.000000
9847.000000,11320.000000,4321.000000,44235.000000
9865.000000,11315.000000,4300.000000,44256.000000
9884.000000,11343.000000,4332.000000,44246.000000
9859.000000,11308.000000,4323.000000,44211.000000
9891.000000,11295.000000,4291.000000,44190.000000
9878.000000,11299.000000,4310.000000,44200.000000
9875.000000,11348.000000,4283.000000,44223.000000
9875.000000,11308.000000,4333.000000,44239.000000
9859.000000,11315.000000,4273.000000,44199.000000
9838.000000,11283.000000,4297.000000,44224.000000
9856.000000,11275.000000,4309.000000,44228.000000
9827.000000,11307.000000,4296.000000,44225.000000
9881.000000,11311.000000,4276.000000,44225.000000
9842.000000,11296.000000,4262.000000,44223.000000
9836.000000,11283.000000,4251.000000,44205.000000
9871.000000,11308.000000,4266.000000,44231.000000
9854.000000,11279.000000,4261.000000,44201.000000
9833.000000,11283.000000,4262.000000,44207.000000
9832.000000,11244.000000,4229.000000,44203.000000
9864.000000,11303.000000,4267.000000,44221.000000
9819.000000,11247.000000,4237.000000,44209.000000
9800.000000,11251.000000,4237.000000,44189.000000
9802.000000,11253.000000,4207.000000,44180.000000
9792.000000,11253.000000,4208.000000,44185.000000
9788.000000,11271.000000,4210.000000,44184.000000
9825.000000,11243.000000,4182.000000,44183.000000
9754.000000,11211.000000,4174.000000,44171.000000
9728.000000,11224.000000,4158.000000,44167.000000
9769.000000,11203.000000,4162.000000,44195.000000
9738.000000,11199.000000,4127.000000,44159.000000
9745.000000,11227.000000,4142.000000,44152.000000
9738.000000,11224.000000,4109.000000,44146.000000
9738.000000,11212.000000,4108.000000,44131.000000
9700.000000,11196.000000,4133.000000,44147.000000
9728.000000,11185.000000,4120.000000,44155.000000
9719.000000,11181.000000,4148.000000,44153.000000
10015.000000,11215.000000,4107.000000,44173.000000
9713.000000,11199.000000,4119.000000,44154.000000
9745.000000,11203.000000,4092.000000,44145.000000
9709.000000,11200.000000,4087.000000,44137.000000
9729.000000,11175.000000,4121.000000,44126.000000
9763.000000,11184.000000,4099.000000,44117.000000
9746.000000,11219.000000,4159.000000,44128.000000
9709.000000,11184.000000,4167.000000,44175.000000
9753.000000,11243.000000,4139.000000,44185.000000
9779.000000,11239.000000,4150.000000,44151.000000
9750.000000,11239.000000,4186.000000,44174.000000
9788.000000,11241.000000,4172.000000,44184.000000
9770.000000,11259.000000,4171.000000,44170.000000
9766.000000,11279.000000,4195.000000,44180.000000
9814.000000,11301.000000,4200.000000,44201.000000
9810.000000,11287.000000,4265.000000,44229.000000
9806.000000,11269.000000,4233.000000,44231.000000
10097.000000,11236.000000,4224.000000,44227.000000
9858.000000,11293.000000,4233.000000,44179.000000
9887.000000,11299.000000,4250.000000,44207.000000
9909.000000,11323.000000,4280.000000,44206.000000
9906.000000,11319.000000,4279.000000,44251.000000
9912.000000,11336.000000,4304.000000,44265.000000
9932.000000,11384.000000,4341.000000,44277.000000
9971.000000,11375.000000,4353.000000,44295.000000
9954.000000,11343.000000,4384.000000,44273.000000
10031.000000,11392.000000,4389.000000,44329.000000
10027.000000,11392.000000,4427.000000,44296.000000
10085.000000,11419.000000,4441.000000,44315.000000
10080.000000,11472.000000,4475.000000,44336.000000
10091.000000,11475.000000,4487.000000,44361.000000
10155.000000,11485.000000,4491.000000,44351.000000
10120.000000,11489.000000,4517.000000,44371.000000
10125.000000,11475.000000,4496.000000,44352.000000
10191.000000,11477.000000,4528.000000,44356.000000
10140.000000,11483.000000,4530.000000,44389.000000
10155.000000,11459.000000,4550.000000,44360.000000
10184.000000,11517.000000,4548.000000,44391.000000
10207.000000,11504.000000,4558.000000,44379.000000
10172.000000,11519.000000,4551.000000,44388.000000
10183.000000,11501.000000,4583.000000,44384.000000
10128.000000,11488.000000,4546.000000,44391.000000
10147.000000,11500.000000,4530.000000,44381.000000
10122.000000,11516.000000,4559.000000,44360.000000
10147.000000,11490.000000,4520.000000,44363.000000
10140.000000,11504.000000,4544.000000,44375.000000
10152.000000,11547.000000,4559.000000,44387.000000
10140.000000,11504.000000,4549.000000,44347.000000
10136.000000,11516.000000,4558.000000,44377.000000
10133.000000,11528.000000,4564.000000,44371.000000
10080.000000,11501.000000,4519.000000,44364.000000
10103.000000,11491.000000,4535.000000,44327.000000
10123.000000,11512.000000,4555.000000,44369.000000
10108.000000,11502.000000,4503.000000,44321.000000
10104.000000,11459.000000,4503.000000,44323.000000
10117.000000,11519.000000,4541.000000,44343.000000
10127.000000,11509.000000,4535.000000,44351.000000
10105.000000,11529.000000,4525.000000,44343.000000
10113.000000,11520.000000,4537.000000,44356.000000
10119.000000,11513.000000,4565.000000,44357.000000
10113.000000,11482.000000,4535.000000,44348.000000
10095.000000,11508.000000,4532.000000,44347.000000
10099.000000,11499.000000,4558.000000,44336.000000
10124.000000,11515.000000,4539.000000,44336.000000
10115.000000,11520.000000,4517.000000,44367.000000
10113.000000,11495.000000,4523.000000,44332.000000
10103.000000,11503.000000,4493.000000,44331.000000
10157.000000,11527.000000,4541.000000,44349.000000
10196.000000,11511.000000,4545.000000,44379.000000
10123.000000,11511.000000,4556.000000,44365.000000
10128.000000,11528.000000,4516.000000,44367.000000
10119.000000,11519.000000,4510.000000,44355.000000
10141.000000,11484.000000,4515.000000,44325.000000
10107.000000,11484.000000,4519.000000,44329.000000
10123.000000,11479.000000,4515.000000,44355.000000
10153.000000,11507.000000,4483.000000,44345.000000
10165.000000,11490.000000,4505.000000,44340.000000
10137.000000,11489.000000,4499.000000,44343.000000
10149.000000,11508.000000,4493.000000,44339.000000
10153.000000,11524.000000,4524.000000,44351.000000
10151.000000,11483.000000,4471.000000,44328.000000
10163.000000,11475.000000,4489.000000,44352.000000
10152.000000,11493.000000,4502.000000,44357.000000
10124.000000,11468.000000,4490.000000,44331.000000
10137.000000,11447.000000,4459.000000,44329.000000
10125.000000,11485.000000,4485.000000,44352.000000
10123.000000,11471.000000,4448.000000,44308.000000
10175.000000,11487.000000,4488.000000,44331.000000
10199.000000,11504.000000,4476.000000,44341.000000
10191.000000,11473.000000,4468.000000,44351.000000
10137.000000,11473.000000,4456.000000,44355.000000
10139.000000,11503.000000,4476.000000,44335.000000
10170.000000,11463.000000,4479.000000,44335.000000
10165.000000,11451.000000,4441.000000,44325.000000
10155.000000,11470.000000,4457.000000,44335.000000
10123.000000,11472.000000,4443.000000,44335.000000
10155.000000,11461.000000,4475.000000,44324.000000
10140.000000,11468.000000,4437.000000,44347.000000
10160.000000,11468.000000,4432.000000,44335.000000
10143.000000,11483.000000,4436.000000,44331.000000
10147.000000,11464.000000,4459.000000,44339.000000
10119.000000,11463.000000,4495.000000,44323.000000
10137.000000,11429.000000,4448.000000,44308.000000
10123.000000,11467.000000,4440.000000,44307.000000
10115.000000,11387.000000,4463.000000,44303.000000
10131.000000,11436.000000,4461.000000,44312.000000
10136.000000,11456.000000,4441.000000,44305.000000
10131.000000,11475.000000,4463.000000,44303.000000
10125.000000,11467.000000,4469.000000,44304.000000
10120.000000,11465.000000,4461.000000,44300.000000
10099.000000,11472.000000,4451.000000,44317.000000
10125.000000,11505.000000,4496.000000,44307.000000
10104.000000,11493.000000,4472.000000,44301.000000
10099.000000,11459.000000,4461.000000,44307.000000
10071.000000,11449.000000,4472.000000,44303.000000
10097.000000,11471.000000,4423.000000,44277.000000
10115.000000,11516.000000,4470.000000,44311.000000
10071.000000,11463.000000,4427.000000,44307.000000
10097.000000,11515.000000,4459.000000,44280.000000
10104.000000,11480.000000,4435.000000,44258.000000
10099.000000,11480.000000,4457.000000,44319.000000
10101.000000,11480.000000,4455.000000,44295.000000
10103.000000,11459.000000,4452.000000,44319.000000
10095.000000,11463.000000,4450.000000,44300.000000
10107.000000,11453.000000,4446.000000,44277.000000
10112.000000,11460.000000,4432.000000,44282.000000
10107.000000,11481.000000,4441.000000,44283.000000
10093.000000,11493.000000,4427.000000,44252.000000
10067.000000,11465.000000,4419.000000,44271.000000
10069.000000,11443.000000,4435.000000,44303.000000
10077.000000,11476.000000,4435.000000,44257.000000
10093.000000,11489.000000,4424.000000,44275.000000
10051.000000,11461.000000,4435.000000,44280.000000
10053.000000,11480.000000,4405.000000,44263.000000
10063.000000,11459.000000,4433.000000,44280.000000
10057.000000,11475.000000,4413.000000,44257.000000
10063.000000,11459.000000,4427.000000,44287.000000
10030.000000,11455.000000,4413.000000,44259.000000
10093.000000,11477.000000,4429.000000,44282.000000
10045.000000,11483.000000,4378.000000,44260.000000
10039.000000,11449.000000,4393.000000,44243.000000
10059.000000,11460.000000,4425.000000,44271.000000
10028.000000,11484.000000,4420.000000,44262.000000
10044.000000,11450.000000,4388.000000,44275.000000
10039.000000,11413.000000,4396.000000,44233.000000
10031.000000,11415.000000,4398.000000,44251.000000
10001.000000,11448.000000,4391.000000,44226.000000
10021.000000,11443.000000,4391.000000,44243.000000
10001.000000,11448.000000,4338.000000,44217.000000
10007.000000,11417.000000,4367.000000,44211.000000
9980.000000,11417.000000,4328.000000,44228.000000
10005.000000,11449.000000,4348.000000,44237.000000
9993.000000,11421.000000,4347.000000,44231.000000
9969.000000,11435.000000,4325.000000,44240.000000
9972.000000,11417.000000,4354.000000,44246.000000
9959.000000,11449.000000,4341.000000,44211.000000
9929.000000,11419.000000,4338.000000,44201.000000
9951.000000,11405.000000,4312.000000,44207.000000
9981.000000,11447.000000,4361.000000,44203.000000
9983.000000,11423.000000,4313.000000,44201.000000
9960.000000,11376.000000,4335.000000,44219.000000
9983.000000,11440.000000,4331.000000,44213.000000
9950.000000,11448.000000,4307.000000,44213.000000
9929.000000,11434.000000,4319.000000,44196.000000
9941.000000,11432.000000,4343.000000,44207.000000
9947.000000,11412.000000,4303.000000,44181.000000
9984.000000,11424.000000,4345.000000,44239.000000
9969.000000,11411.000000,4349.000000,44195.000000
9947.000000,11416.000000,4363.000000,44246.000000
9966.000000,11415.000000,4368.000000,44193.000000
9964.000000,11432.000000,4364.000000,44237.000000
9943.000000,11459.000000,4399.000000,44223.000000
9973.000000,11430.000000,4359.000000,44210.000000
9957.000000,11427.000000,4350.000000,44223.000000
10013.000000,11447.000000,4367.000000,44233.000000
10004.000000,11459.000000,4373.000000,44235.000000
10015.000000,11475.000000,4397.000000,44229.000000
10015.000000,11481.000000,4379.000000,44228.000000
10031.000000,11505.000000,4405.000000,44248.000000
10031.000000,11459.000000,4396.000000,44284.000000
10011.000000,11472.000000,4393.000000,44241.000000
10031.000000,11452.000000,4393.000000,44234.000000
10036.000000,11474.000000,4405.000000,44258.000000
10047.000000,11507.000000,4404.000000,44262.000000
10091.000000,11500.000000,4409.000000,44255.000000
10103.000000,11531.000000,4401.000000,44251.000000
10095.000000,11496.000000,4412.000000,44279.000000
10140.000000,11501.000000,4495.000000,44304.000000
10159.000000,11539.000000,4473.000000,44301.000000
10162.000000,11556.000000,4515.000000,44313.000000
10185.000000,11524.000000,4487.000000,44344.000000
10211.000000,11563.000000,4496.000000,44329.000000
10212.000000,11571.000000,4527.000000,44332.000000
10231.000000,11611.000000,4529.000000,44340.000000
10251.000000,11567.000000,4533.000000,44337.000000
10292.000000,11619.000000,4571.000000,44325.000000
10277.000000,11588.000000,4565.000000,44359.000000
10310.000000,11580.000000,4587.000000,44365.000000
10317.000000,11631.000000,4585.000000,44401.000000
10331.000000,11612.000000,4595.000000,44396.000000
10341.000000,11615.000000,4576.000000,44395.000000
10353.000000,11620.000000,4580.000000,44375.000000
10341.000000,11627.000000,4585.000000,44372.000000
10343.000000,11608.000000,4577.000000,44399.000000
10375.000000,11603.000000,4563.000000,44396.000000
10362.000000,11612.000000,4539.000000,44383.000000
10358.000000,11623.000000,4603.000000,44400.000000
10360.000000,11637.000000,4579.000000,44369.000000
10354.000000,11613.000000,4593.000000,44391.000000
10331.000000,11609.000000,4572.000000,44373.000000
10373.000000,11648.000000,4577.000000,44400.000000
10355.000000,11613.000000,4570.000000,44387.000000
10360.000000,11596.000000,4556.000000,44371.000000
10336.000000,11623.000000,4579.000000,44379.000000
10349.000000,11617.000000,4603.000000,44375.000000
10339.000000,11644.000000,4545.000000,44388.000000
10353.000000,11639.000000,4575.000000,44340.000000
10357.000000,11648.000000,4553.000000,44369.000000
10365.000000,11601.000000,4577.000000,44380.000000
10327.000000,11605.000000,4575.000000,44385.000000
10345.000000,11583.000000,4561.000000,44380.000000
10352.000000,11635.000000,4563.000000,44360.000000
10343.000000,11592.000000,4545.000000,44351.000000
10332.000000,11611.000000,4573.000000,44371.000000
10370.000000,11599.000000,4547.000000,44364.000000
10331.000000,11619.000000,4536.000000,44371.000000
10362.000000,11636.000000,4568.000000,44397.000000
10335.000000,11584.000000,4551.000000,44343.000000
10339.000000,11603.000000,4557.000000,44363.000000
10331.000000,11591.000000,4535.000000,44371.000000
10336.000000,11611.000000,4536.000000,44385.000000
10305.000000,11585.000000,4558.000000,44333.000000
10341.000000,11619.000000,4555.000000,44348.000000
10341.000000,11596.000000,4514.000000,44368.000000
10319.000000,11583.000000,4527.000000,44355.000000
10334.000000,11620.000000,4525.000000,44355.000000
10344.000000,11577.000000,4528.000000,44351.000000
10347.000000,11571.000000,4525.000000,44332.000000
10345.000000,11631.000000,4536.000000,44381.000000
10340.000000,11600.000000,4539.000000,44356.000000
10304.000000,11611.000000,4514.000000,44343.000000
10317.000000,11576.000000,4539.000000,44369.000000
10344.000000,11608.000000,4539.000000,44347.000000
10313.000000,11593.000000,4505.000000,44343.000000
10340.000000,11591.000000,4478.000000,44323.000000
10295.000000,11591.000000,4514.000000,44335.000000
10316.000000,11577.000000,4521.000000,44331.000000
10315.000000,11616.000000,4495.000000,44338.000000
10306.000000,11595.000000,4515.000000,44333.000000
10308.000000,11611.000000,4503.000000,44359.000000
10315.000000,11589.000000,4527.000000,44335.000000
10323.000000,11592.000000,4511.000000,44337.000000
10306.000000,11583.000000,4497.000000,44313.000000
10321.000000,11583.000000,4509.000000,44339.000000
10315.000000,11595.000000,4511.000000,44333.000000
10288.000000,11557.000000,4499.000000,44331.000000
10302.000000,11603.000000,4506.000000,44336.000000
10293.000000,11575.000000,4463.000000,44332.000000
10302.000000,11571.000000,4481.000000,44319.000000
10306.000000,11569.000000,4475.000000,44312.000000
10304.000000,11581.000000,4474.000000,44291.000000
10301.000000,11559.000000,4481.000000,44319.000000
10312.000000,11576.000000,4469.000000,44343.000000
10287.000000,11584.000000,4484.000000,44319.000000
10342.000000,11568.000000,4479.000000,44323.000000
10312.000000,11591.000000,4459.000000,44324.000000
10267.000000,11553.000000,4465.000000,44325.000000
10317.000000,11551.000000,4468.000000,44327.000000
10296.000000,11547.000000,4461.000000,44317.000000
10307.000000,11547.000000,4432.000000,44291.000000
10316.000000,11579.000000,4471.000000,44307.000000
10266.000000,11548.000000,4423.000000,44285.000000
10299.000000,11551.000000,4455.000000,44301.000000
10257.000000,11567.000000,4450.000000,44300.000000
10274.000000,11567.000000,4426.000000,44292.000000
10273.000000,11560.000000,4449.000000,44269.000000
10265.000000,11531.000000,4427.000000,44287.000000
10257.000000,11543.000000,4428.000000,44308.000000
10276.000000,11568.000000,4449.000000,44279.000000
10261.000000,11549.000000,4428.000000,44225.000000
10224.000000,11560.000000,4436.000000,44311.000000
10219.000000,11573.000000,4412.000000,44277.000000
10242.000000,11539.000000,4439.000000,44264.000000
10207.000000,11555.000000,4418.000000,44265.000000
10242.000000,11531.000000,4432.000000,44249.000000
10207.000000,11535.000000,4399.000000,44267.000000
10213.000000,11555.000000,4419.000000,44271.000000
10227.000000,11521.000000,4383.000000,44282.000000
10208.000000,11521.000000,4405.000000,44243.000000
10225.000000,11537.000000,4368.000000,44283.000000
10200.000000,11525.000000,4394.000000,44251.000000
10235.000000,11539.000000,4377.000000,44260.000000
10251.000000,11555.000000,4400.000000,44268.000000
10227.000000,11544.000000,4384.000000,44241.000000
10239.000000,11523.000000,4399.000000,44252.000000
10223.000000,11512.000000,4379.000000,44235.000000
10231.000000,11539.000000,4380.000000,44256.000000
10155.000000,11544.000000,4375.000000,44255.000000
10198.000000,11555.000000,4407.000000,44264.000000
10169.000000,11523.000000,4383.000000,44221.000000
10176.000000,11527.000000,4364.000000,44269.000000
10207.000000,11493.000000,4365.000000,44231.000000
10199.000000,11513.000000,4374.000000,44226.000000
10175.000000,11541.000000,4347.000000,44225.000000
10197.000000,11515.000000,4368.000000,44248.000000
10143.000000,11479.000000,4347.000000,44221.000000
10125.000000,11511.000000,4347.000000,44225.000000
10156.000000,11521.000000,4346.000000,44208.000000
10139.000000,11476.000000,4320.000000,44225.000000
10131.000000,11506.000000,4306.000000,44193.000000
10096.000000,11524.000000,4311.000000,44166.000000
10148.000000,11501.000000,4281.000000,44182.000000
10129.000000,11467.000000,4277.000000,44180.000000
10112.000000,11455.000000,4288.000000,44183.000000
10103.000000,11475.000000,4293.000000,44181.000000
10131.000000,11449.000000,4255.000000,44210.000000
10073.000000,11469.000000,4264.000000,44167.000000
10055.000000,11435.000000,4230.000000,44167.000000
10049.000000,11434.000000,4220.000000,44166.000000
10033.000000,11421.000000,4228.000000,44135.000000
10031.000000,11431.000000,4197.000000,44148.000000
10020.000000,11419.000000,4238.000000,44136.000000
10011.000000,11415.000000,4212.000000,44139.000000
10019.000000,11401.000000,4165.000000,44090.000000
9988.000000,11417.000000,4145.000000,44122.000000
9999.000000,11397.000000,4147.000000,44090.000000
9983.000000,11395.000000,4154.000000,44131.000000
10000.000000,11389.000000,4157.000000,44117.000000
9988.000000,11363.000000,4166.000000,44122.000000
10000.000000,11395.000000,4177.000000,44145.000000
9972.000000,11396.000000,4192.000000,44124.000000
10031.000000,11387.000000,4182.000000,44111.000000
10040.000000,11417.000000,4178.000000,44122.000000
9999.000000,11387.000000,4178.000000,44132.000000
9993.000000,11392.000000,4167.000000,44108.000000
9988.000000,11405.000000,4209.000000,44124.000000
10029.000000,11407.000000,4208.000000,44133.000000
10019.000000,11411.000000,4196.000000,44145.000000
10037.000000,11411.000000,4244.000000,44164.000000
10023.000000,11420.000000,4213.000000,44144.000000
10055.000000,11429.000000,4276.000000,44161.000000
10123.000000,11441.000000,4256.000000,44169.000000
10107.000000,11451.000000,4273.000000,44191.000000
10107.000000,11475.000000,4309.000000,44191.000000
10149.000000,11491.000000,4291.000000,44210.000000
10156.000000,11467.000000,4310.000000,44191.000000
10172.000000,11481.000000,4291.000000,44207.000000
10175.000000,11471.000000,4341.000000,44234.000000
10203.000000,11519.000000,4310.000000,44231.000000
10221.000000,11536.000000,4360.000000,44292.000000
10251.000000,11579.000000,4392.000000,44258.000000
10286.000000,11571.000000,4391.000000,44260.000000
10286.000000,11579.000000,4431.000000,44276.000000
10307.000000,11601.000000,4439.000000,44323.000000
10355.000000,11611.000000,4489.000000,44328.000000
10369.000000,11625.000000,4516.000000,44331.000000
10379.000000,11635.000000,4525.000000,44317.000000
10413.000000,11651.000000,4543.000000,44359.000000
10424.000000,11663.000000,4551.000000,44365.000000
10427.000000,11671.000000,4563.000000,44343.000000
10446.000000,11684.000000,4591.000000,44363.000000
10445.000000,11679.000000,4560.000000,44389.000000
10437.000000,11669.000000,4553.000000,44355.000000
10430.000000,11719.000000,4607.000000,44368.000000
10486.000000,11696.000000,4586.000000,44361.000000
10496.000000,11707.000000,4607.000000,44388.000000
10504.000000,11723.000000,4598.000000,44355.000000
10480.000000,11711.000000,4594.000000,44384.000000
10478.000000,11681.000000,4609.000000,44407.000000
10476.000000,11691.000000,4576.000000,44379.000000
10479.000000,11667.000000,4564.000000,44329.000000
10503.000000,11689.000000,4565.000000,44344.000000
10535.000000,11721.000000,4581.000000,44380.000000
10501.000000,11697.000000,4591.000000,44371.000000
10475.000000,11695.000000,4581.000000,44352.000000
10469.000000,11663.000000,4549.000000,44368.000000
10503.000000,11675.000000,4567.000000,44383.000000
10482.000000,11675.000000,4579.000000,44325.000000
10487.000000,11667.000000,4602.000000,44347.000000
10463.000000,11663.000000,4583.000000,44355.000000
10458.000000,11720.000000,4568.000000,44388.000000
10474.000000,11701.000000,4577.000000,44379.000000
10441.000000,11681.000000,4573.000000,44367.000000
10449.000000,11659.000000,4556.000000,44353.000000
10467.000000,11683.000000,4553.000000,44348.000000
10457.000000,11647.000000,4566.000000,44325.000000
10460.000000,11667.000000,4547.000000,44319.000000
10440.000000,11655.000000,4555.000000,44347.000000
10461.000000,11701.000000,4563.000000,44372.000000
10456.000000,11697.000000,4530.000000,44357.000000
10449.000000,11696.000000,4551.000000,44365.000000
10427.000000,11651.000000,4561.000000,44329.000000
10440.000000,11661.000000,4531.000000,44325.000000
10417.000000,11667.000000,4511.000000,44311.000000
10462.000000,11691.000000,4547.000000,44296.000000
10451.000000,11675.000000,4546.000000,44343.000000
10465.000000,11676.000000,4541.000000,44343.000000
10433.000000,11668.000000,4555.000000,44331.000000
10430.000000,11659.000000,4524.000000,44312.000000
10412.000000,11628.000000,4510.000000,44317.000000
10414.000000,11645.000000,4534.000000,44335.000000
10394.000000,11631.000000,4510.000000,44311.000000
10426.000000,11676.000000,4536.000000,44304.000000
10436.000000,11697.000000,4528.000000,44328.000000
10427.000000,11664.000000,4539.000000,44317.000000
10402.000000,11683.000000,4501.000000,44336.000000
10399.000000,11667.000000,4523.000000,44329.000000
10404.000000,11655.000000,4520.000000,44284.000000
10405.000000,11665.000000,4511.000000,44307.000000
10408.000000,11659.000000,4493.000000,44321.000000
10428.000000,11699.000000,4523.000000,44315.000000
