660nm,730nm,850nm,940nm
107.000000,4873.000000,3575.000000,43789.000000
124.000000,4854.000000,3604.000000,43815.000000
116.000000,4832.000000,3626.000000,43811.000000
165.000000,4919.000000,3624.000000,43823.000000
159.000000,4897.000000,3641.000000,43834.000000
161.000000,4899.000000,3662.000000,43843.000000
192.000000,4903.000000,3672.000000,43854.000000
229.000000,4944.000000,3690.000000,43850.000000
249.000000,4958.000000,3704.000000,43895.000000
237.000000,4980.000000,3717.000000,43890.000000
252.000000,4952.000000,3759.000000,43932.000000
284.000000,4983.000000,3770.000000,43918.000000
307.000000,4985.000000,3781.000000,43944.000000
316.000000,4991.000000,3789.000000,43940.000000
296.000000,5028.000000,3813.000000,43931.000000
374.000000,5007.000000,3808.000000,43955.000000
366.000000,5039.000000,3826.000000,43978.000000
393.000000,5028.000000,3876.000000,43938.000000
395.000000,5057.000000,3895.000000,43991.000000
403.000000,5068.000000,3893.000000,44009.000000
466.000000,5096.000000,3912.000000,44015.000000
455.000000,5081.000000,3936.000000,43995.000000
462.000000,5138.000000,3942.000000,44054.000000
471.000000,5085.000000,3944.000000,44033.000000
487.000000,5097.000000,3962.000000,44055.000000
462.000000,5114.000000,3973.000000,44025.000000
449.000000,5092.000000,3976.000000,44047.000000
491.000000,5123.000000,3967.000000,44017.000000
469.000000,5131.000000,3994.000000,44055.000000
464.000000,5105.000000,3966.000000,44040.000000
469.000000,5159.000000,3985.000000,44038.000000
466.000000,5111.000000,3967.000000,44053.000000
482.000000,5140.000000,3973.000000,44026.000000
471.000000,5108.000000,3921.000000,44053.000000
468.000000,5105.000000,3959.000000,44052.000000
473.000000,5059.000000,3963.000000,44019.000000
465.000000,5074.000000,3924.000000,44021.000000
478.000000,5093.000000,3933.000000,43984.000000
493.000000,5099.000000,3915.000000,43994.000000
438.000000,5061.000000,3916.000000,44010.000000
487.000000,5112.000000,3874.000000,44008.000000
482.000000,5108.000000,3895.000000,44003.000000
495.000000,5099.000000,3900.000000,43988.000000
520.000000,5105.000000,3907.000000,44021.000000
462.000000,5080.000000,3921.000000,44001.000000
473.000000,5091.000000,3868.000000,43994.000000
491.000000,5069.000000,3863.000000,43980.000000
451.000000,5064.000000,3904.000000,43961.000000
461.000000,5049.000000,3833.000000,43984.000000
465.000000,5062.000000,3873.000000,43978.000000
471.000000,5038.000000,3850.000000,44015.000000
439.000000,5055.000000,3814.000000,43979.000000
430.000000,5037.000000,3840.000000,43951.000000
487.000000,5089.000000,3836.000000,43960.000000
451.000000,5055.000000,3837.000000,43958.000000
408.000000,5017.000000,3807.000000,43980.000000
444.000000,5071.000000,3798.000000,43973.000000
437.000000,5057.000000,3813.000000,43948.000000
420.000000,5025.000000,3798.000000,43961.000000
410.000000,4997.000000,3770.000000,43949.000000
429.000000,5021.000000,3757.000000,43968.000000
391.000000,4998.000000,3741.000000,43915.000000
400.000000,5007.000000,3743.000000,43909.000000
389.000000,5026.000000,3749.000000,43927.000000
411.000000,4979.000000,3752.000000,43928.000000
395.000000,5026.000000,3752.000000,43938.000000
372.000000,4963.000000,3731.000000,43933.000000
370.000000,5001.000000,3726.000000,43928.000000
391.000000,4941.000000,3704.000000,43899.000000
366.000000,4986.000000,3676.000000,43936.000000
351.000000,4945.000000,3687.000000,43920.000000
362.000000,4924.000000,3683.000000,43880.000000
375.000000,4948.000000,3667.000000,43894.000000
361.000000,4940.000000,3657.000000,43854.000000
375.000000,4947.000000,3644.000000,43898.000000
370.000000,4951.000000,3639.000000,43883.000000
339.000000,4934.000000,3652.000000,43884.000000
377.000000,4949.000000,3625.000000,43874.000000
384.000000,4936.000000,3614.000000,43873.000000
328.000000,4918.000000,3619.000000,43860.000000
349.000000,4909.000000,3605.000000,43855.000000
384.000000,4943.000000,3574.000000,43850.000000
341.000000,4909.000000,3590.000000,43868.000000
371.000000,4927.000000,3593.000000,43838.000000
355.000000,4891.000000,3561.000000,43856.000000
303.000000,4894.000000,3573.000000,43829.000000
304.000000,4909.000000,3558.000000,43783.000000
275.000000,4865.000000,3513.000000,43792.000000
287.000000,4866.000000,3524.000000,43817.000000
320.000000,4852.000000,3524.000000,43794.000000
288.000000,4867.000000,3496.000000,43798.000000
285.000000,4845.000000,3506.000000,43802.000000
300.000000,4890.000000,3538.000000,43787.000000
265.000000,4840.000000,3491.000000,43800.000000
292.000000,4832.000000,3493.000000,43811.000000
271.000000,4845.000000,3480.000000,43806.000000
274.000000,4867.000000,3463.000000,43761.000000
271.000000,4830.000000,3438.000000,43727.000000
257.000000,4818.000000,3393.000000,43790.000000
283.000000,4811.000000,3441.000000,43745.000000
237.000000,4802.000000,3426.000000,43740.000000
261.000000,4832.000000,3443.000000,43759.000000
253.000000,4815.000000,3416.000000,43734.000000
252.000000,4812.000000,3401.000000,43753.000000
244.000000,4779.000000,3381.000000,43762.000000
196.000000,4769.000000,3382.000000,43744.000000
259.000000,4803.000000,3369.000000,43758.000000
180.000000,4789.000000,3392.000000,43768.000000
199.000000,4757.000000,3352.000000,43720.000000
200.000000,4773.000000,3361.000000,43736.000000
198.000000,4764.000000,3307.000000,43699.000000
179.000000,4750.000000,3326.000000,43707.000000
189.000000,4721.000000,3324.000000,43713.000000
204.000000,4763.000000,3309.000000,43697.000000
183.000000,4741.000000,3307.000000,43715.000000
187.000000,4760.000000,3331.000000,43684.000000
201.000000,4732.000000,3325.000000,43690.000000
180.000000,4741.000000,3283.000000,43688.000000
189.000000,4741.000000,3295.000000,43708.000000
197.000000,4751.000000,3283.000000,43709.000000
202.000000,4734.000000,3299.000000,43695.000000
207.000000,4737.000000,3265.000000,43677.000000
221.000000,4725.000000,3293.000000,43671.000000
189.000000,4734.000000,3267.000000,43651.000000
164.000000,4724.000000,3272.000000,43677.000000
221.000000,4767.000000,3252.000000,43685.000000
226.000000,4741.000000,3298.000000,43712.000000
244.000000,4773.000000,3314.000000,43728.000000
277.000000,4779.000000,3297.000000,43690.000000
256.000000,4774.000000,3294.000000,43684.000000
253.000000,4782.000000,3323.000000,43718.000000
281.000000,4778.000000,3312.000000,43717.000000
282.000000,4794.000000,3332.000000,43736.000000
298.000000,4772.000000,3353.000000,43749.000000
322.000000,4822.000000,3367.000000,43747.000000
335.000000,4829.000000,3380.000000,43775.000000
389.000000,4836.000000,3382.000000,43768.000000
383.000000,4833.000000,3399.000000,43764.000000
424.000000,4841.000000,3440.000000,43782.000000
414.000000,4898.000000,3447.000000,43815.000000
445.000000,4858.000000,3460.000000,43806.000000
498.000000,4903.000000,3493.000000,43827.000000
515.000000,4912.000000,3487.000000,43845.000000
539.000000,4947.000000,3535.000000,43861.000000
548.000000,4922.000000,3520.000000,43853.000000
583.000000,4975.000000,3554.000000,43901.000000
634.000000,4988.000000,3587.000000,43912.000000
637.000000,5003.000000,3617.000000,43922.000000
658.000000,5030.000000,3624.000000,43913.000000
664.000000,5023.000000,3649.000000,43954.000000
729.000000,5038.000000,3693.000000,43938.000000
719.000000,5049.000000,3679.000000,43981.000000
804.000000,5077.000000,3700.000000,44014.000000
781.000000,5072.000000,3712.000000,43968.000000
799.000000,5099.000000,3740.000000,43995.000000
817.000000,5115.000000,3739.000000,44016.000000
857.000000,5162.000000,3833.000000,44018.000000
904.000000,5158.000000,3798.000000,44028.000000
899.000000,5148.000000,3822.000000,44064.000000
929.000000,5168.000000,3827.000000,44041.000000
924.000000,5198.000000,3838.000000,44078.000000
950.000000,5193.000000,3852.000000,44083.000000
1002.000000,5191.000000,3855.000000,44099.000000
986.000000,5181.000000,3882.000000,44100.000000
978.000000,5195.000000,3858.000000,44092.000000
1025.000000,5202.000000,3887.000000,44098.000000
1050.000000,5211.000000,3866.000000,44065.000000
1029.000000,5187.000000,3876.000000,44099.000000
1003.000000,5204.000000,3845.000000,44092.000000
1022.000000,5203.000000,3848.000000,44054.000000
1010.000000,5171.000000,3844.000000,44097.000000
1025.000000,5216.000000,3828.000000,44060.000000
1032.000000,5193.000000,3840.000000,44053.000000
1014.000000,5191.000000,3813.000000,44081.000000
1046.000000,5210.000000,3853.000000,44074.000000
1010.000000,5206.000000,3823.000000,44070.000000
1006.000000,5196.000000,3847.000000,44062.000000
989.000000,5196.000000,3832.000000,44064.000000
1019.000000,5190.000000,3806.000000,44073.000000
990.000000,5177.000000,3781.000000,44078.000000
1025.000000,5173.000000,3776.000000,44045.000000
988.000000,5162.000000,3770.000000,44035.000000
992.000000,5159.000000,3777.000000,44022.000000
1022.000000,5153.000000,3765.000000,44042.000000
995.000000,5156.000000,3784.000000,44052.000000
980.000000,5167.000000,3773.000000,44021.000000
996.000000,5161.000000,3769.000000,44056.000000
1005.000000,5143.000000,3766.000000,44021.000000
996.000000,5161.000000,3758.000000,44025.000000
971.000000,5163.000000,3744.000000,44023.000000
974.000000,5147.000000,3752.000000,44043.000000
960.000000,5124.000000,3728.000000,44028.000000
947.000000,5117.000000,3711.000000,43997.000000
971.000000,5116.000000,3700.000000,44014.000000
974.000000,5107.000000,3702.000000,44021.000000
963.000000,5139.000000,3682.000000,44048.000000
935.000000,5102.000000,3716.000000,43996.000000
922.000000,5108.000000,3703.000000,44022.000000
961.000000,5122.000000,3686.000000,44003.000000
945.000000,5109.000000,3681.000000,44001.000000
929.000000,5126.000000,3652.000000,44008.000000
949.000000,5117.000000,3681.000000,44000.000000
933.000000,5088.000000,3645.000000,43985.000000
941.000000,5089.000000,3659.000000,43963.000000
944.000000,5085.000000,3638.000000,43991.000000
947.000000,5091.000000,3619.000000,43974.000000
908.000000,5076.000000,3645.000000,43967.000000
912.000000,5079.000000,3649.000000,43959.000000
936.000000,5092.000000,3643.000000,43981.000000
906.000000,5059.000000,3620.000000,43949.000000
928.000000,5113.000000,3636.000000,43977.000000
915.000000,5099.000000,3641.000000,43954.000000
920.000000,5095.000000,3620.000000,43967.000000
869.000000,5055.000000,3619.000000,43943.000000
904.000000,5067.000000,3604.000000,43955.000000
879.000000,5045.000000,3611.000000,43954.000000
898.000000,5057.000000,3597.000000,43924.000000
909.000000,5064.000000,3602.000000,43944.000000
882.000000,5043.000000,3586.000000,43955.000000
885.000000,5040.000000,3579.000000,43947.000000
880.000000,5029.000000,3557.000000,43904.000000
865.000000,5017.000000,3544.000000,43939.000000
839.000000,4997.000000,3507.000000,43925.000000
853.000000,5012.000000,3536.000000,43905.000000
863.000000,4986.000000,3526.000000,43911.000000
837.000000,4975.000000,3543.000000,43932.000000
814.000000,5010.000000,3513.000000,43913.000000
865.000000,5003.000000,3524.000000,43905.000000
837.000000,5023.000000,3508.000000,43914.000000
802.000000,4980.000000,3488.000000,43887.000000
810.000000,4981.000000,3483.000000,43889.000000
816.000000,5002.000000,3508.000000,43897.000000
788.000000,4994.000000,3489.000000,43905.000000
818.000000,4997.000000,3500.000000,43920.000000
808.000000,4991.000000,3488.000000,43869.000000
801.000000,4984.000000,3464.000000,43890.000000
762.000000,4977.000000,3472.000000,43891.000000
757.000000,4957.000000,3468.000000,43893.000000
774.000000,4939.000000,3441.000000,43860.000000
774.000000,4971.000000,3520.000000,43887.000000
787.000000,4961.000000,3457.000000,43869.000000
758.000000,4919.000000,3434.000000,43899.000000
729.000000,4935.000000,3420.000000,43851.000000
789.000000,4928.000000,3436.000000,43858.000000
760.000000,4943.000000,3386.000000,43832.000000
729.000000,4924.000000,3430.000000,43871.000000
733.000000,4918.000000,3389.000000,43825.000000
743.000000,4941.000000,3397.000000,43829.000000
706.000000,4909.000000,3387.000000,43843.000000
743.000000,4878.000000,3384.000000,43832.000000
715.000000,4939.000000,3407.000000,43855.000000
713.000000,4927.000000,3390.000000,43840.000000
689.000000,4919.000000,3389.000000,43867.000000
710.000000,4891.000000,3373.000000,43792.000000
681.000000,4894.000000,3374.000000,43848.000000
699.000000,4897.000000,3373.000000,43805.000000
702.000000,4870.000000,3356.000000,43814.000000
704.000000,4887.000000,3357.000000,43798.000000
700.000000,4889.000000,3353.000000,43812.000000
695.000000,4875.000000,3376.000000,43817.000000
713.000000,4914.000000,3419.000000,43843.000000
697.000000,4907.000000,3383.000000,43821.000000
690.000000,4911.000000,3416.000000,43833.000000
727.000000,4917.000000,3385.000000,43833.000000
725.000000,4947.000000,3405.000000,43849.000000
733.000000,4947.000000,3381.000000,43844.000000
755.000000,4937.000000,3443.000000,43869.000000
746.000000,4948.000000,3418.000000,43849.000000
775.000000,4964.000000,3473.000000,43877.000000
797.000000,4976.000000,3493.000000,43933.000000
810.000000,4993.000000,3507.000000,43905.000000
815.000000,4992.000000,3524.000000,43893.000000
830.000000,5017.000000,3557.000000,43901.000000
837.000000,5016.000000,3532.000000,43927.000000
877.000000,5042.000000,3577.000000,43934.000000
890.000000,5014.000000,3575.000000,43930.000000
876.000000,5047.000000,3576.000000,43929.000000
930.000000,5079.000000,3638.000000,43955.000000
897.000000,5072.000000,3638.000000,43985.000000
965.000000,5115.000000,3726.000000,44000.000000
943.000000,5135.000000,3688.000000,44048.000000
968.000000,5121.000000,3732.000000,44035.000000
1018.000000,5147.000000,3751.000000,44067.000000
988.000000,5132.000000,3773.000000,44066.000000
1060.000000,5198.000000,3774.000000,44072.000000
1057.000000,5194.000000,3819.000000,44089.000000
1061.000000,5160.000000,3827.000000,44073.000000
1078.000000,5197.000000,3836.000000,44102.000000
1108.000000,5197.000000,3858.000000,44100.000000
1143.000000,5238.000000,3896.000000,44130.000000
1164.000000,5248.000000,3907.000000,44156.000000
1195.000000,5271.000000,3918.000000,44145.000000
1201.000000,5272.000000,3937.000000,44203.000000
1258.000000,5308.000000,3984.000000,44172.000000
1219.000000,5334.000000,4013.000000,44190.000000
1220.000000,5288.000000,3991.000000,44214.000000
1243.000000,5313.000000,3995.000000,44205.000000
1228.000000,5348.000000,3996.000000,44229.000000
1270.000000,5331.000000,4035.000000,44201.000000
1276.000000,5331.000000,4017.000000,44223.000000
1257.000000,5302.000000,4011.000000,44196.000000
1260.000000,5308.000000,4016.000000,44212.000000
1244.000000,5327.000000,3999.000000,44182.000000
1271.000000,5352.000000,4032.000000,44194.000000
1261.000000,5352.000000,3993.000000,44183.000000
1252.000000,5322.000000,3948.000000,44203.000000
1236.000000,5299.000000,4001.000000,44177.000000
1237.000000,5312.000000,4017.000000,44210.000000
1245.000000,5301.000000,3993.000000,44218.000000
1200.000000,5297.000000,3964.000000,44182.000000
1199.000000,5286.000000,3994.000000,44177.000000
1215.000000,5288.000000,3979.000000,44170.000000
1203.000000,5288.000000,3964.000000,44183.000000
1206.000000,5256.000000,3931.000000,44165.000000
1207.000000,5320.000000,3972.000000,44167.000000
1230.000000,5272.000000,3938.000000,44187.000000
1205.000000,5274.000000,3942.000000,44163.000000
1204.000000,5259.000000,3917.000000,44174.000000
1169.000000,5266.000000,3937.000000,44156.000000
1178.000000,5237.000000,3924.000000,44168.000000
1182.000000,5269.000000,3907.000000,44146.000000
1168.000000,5233.000000,3901.000000,44136.000000
1179.000000,5251.000000,3867.000000,44117.000000
1139.000000,5222.000000,3898.000000,44137.000000
1188.000000,5238.000000,3887.000000,44104.000000
1153.000000,5256.000000,3882.000000,44134.000000
1149.000000,5233.000000,3860.000000,44131.000000
1191.000000,5228.000000,3880.000000,44151.000000
1162.000000,5248.000000,3870.000000,44133.000000
1179.000000,5237.000000,3864.000000,44121.000000
1137.000000,5242.000000,3848.000000,44140.000000
1158.000000,5234.000000,3806.000000,44101.000000
1133.000000,5165.000000,3834.000000,44124.000000
1133.000000,5192.000000,3800.000000,44090.000000
1181.000000,5211.000000,3815.000000,44079.000000
1147.000000,5187.000000,3807.000000,44083.000000
1150.000000,5205.000000,3814.000000,44087.000000
1125.000000,5182.000000,3821.000000,44102.000000
1155.000000,5206.000000,3807.000000,44091.000000
1127.000000,5173.000000,3800.000000,44096.000000
1133.000000,5179.000000,3793.000000,44086.000000
1122.000000,5164.000000,3789.000000,44085.000000
1130.000000,5177.000000,3799.000000,44088.000000
1121.000000,5147.000000,3780.000000,44082.000000
1124.000000,5164.000000,3772.000000,44057.000000
1110.000000,5193.000000,3727.000000,44045.000000
1097.000000,5148.000000,3735.000000,44042.000000
1120.000000,5168.000000,3733.000000,44034.000000
1092.000000,5156.000000,3732.000000,44039.000000
1118.000000,5153.000000,3736.000000,44062.000000
1086.000000,5178.000000,3749.000000,44054.000000
1073.000000,5130.000000,3714.000000,44048.000000
1099.000000,5174.000000,3725.000000,44044.000000
1072.000000,5136.000000,3712.000000,44031.000000
1080.000000,5128.000000,3716.000000,44045.000000
1066.000000,5141.000000,3680.000000,43999.000000
1050.000000,5141.000000,3662.000000,44029.000000
1050.000000,5109.000000,3690.000000,44009.000000
1042.000000,5099.000000,3665.000000,44018.000000
1068.000000,5140.000000,3664.000000,44008.000000
1049.000000,5073.000000,3659.000000,44031.000000
1019.000000,5103.000000,3644.000000,43992.000000
1042.000000,5128.000000,3642.000000,44012.000000
1035.000000,5115.000000,3613.000000,44000.000000
1031.000000,5076.000000,3639.000000,44013.000000
1026.000000,5080.000000,3576.000000,43987.000000
1023.000000,5075.000000,3629.000000,43964.000000
1006.000000,5058.000000,3592.000000,43993.000000
1037.000000,5083.000000,3614.000000,43987.000000
983.000000,5077.000000,3614.000000,43998.000000
961.000000,5036.000000,3599.000000,43983.000000
1015.000000,5055.000000,3590.000000,43983.000000
1002.000000,5040.000000,3574.000000,43976.000000
994.000000,5042.000000,3579.000000,43944.000000
965.000000,5040.000000,3540.000000,43949.000000
968.000000,5020.000000,3555.000000,43951.000000
966.000000,5006.000000,3525.000000,43942.000000
954.000000,5011.000000,3534.000000,43927.000000
949.000000,5039.000000,3516.000000,43956.000000
964.000000,5016.000000,3508.000000,43931.000000
983.000000,5028.000000,3512.000000,43922.000000
923.000000,5000.000000,3528.000000,43946.000000
937.000000,5035.000000,3522.000000,43912.000000
895.000000,5005.000000,3484.000000,43912.000000
946.000000,5007.000000,3480.000000,43924.000000
862.000000,4991.000000,3495.000000,43901.000000
915.000000,4956.000000,3479.000000,43883.000000
859.000000,4963.000000,3476.000000,43900.000000
897.000000,4947.000000,3472.000000,43880.000000
880.000000,4972.000000,3464.000000,43915.000000
926.000000,4983.000000,3453.000000,43893.000000
857.000000,4967.000000,3459.000000,43907.000000
867.000000,4952.000000,3444.000000,43923.000000
894.000000,4958.000000,3452.000000,43878.000000
860.000000,4963.000000,3443.000000,43927.000000
869.000000,4947.000000,3445.000000,43895.000000
891.000000,4950.000000,3455.000000,43867.000000
882.000000,4963.000000,3435.000000,43892.000000
853.000000,4951.000000,3459.000000,43869.000000
884.000000,4979.000000,3466.000000,43906.000000
896.000000,4987.000000,3460.000000,43909.000000
908.000000,4980.000000,3477.000000,43923.000000
953.000000,5017.000000,3530.000000,43931.000000
909.000000,4990.000000,3531.000000,43954.000000
963.000000,5012.000000,3542.000000,43974.000000
964.000000,5060.000000,3518.000000,43954.000000
978.000000,5032.000000,3556.000000,43959.000000
1020.000000,5061.000000,3585.000000,43959.000000
1016.000000,5074.000000,3577.000000,43988.000000
1071.000000,5083.000000,3573.000000,43975.000000
1050.000000,5083.000000,3605.000000,44028.000000
1072.000000,5098.000000,3665.000000,43978.000000
1111.000000,5124.000000,3674.000000,44028.000000
1114.000000,5130.000000,3701.000000,44062.000000
1148.000000,5142.000000,3727.000000,44063.000000
1140.000000,5163.000000,3742.000000,44084.000000
1182.000000,5181.000000,3771.000000,44081.000000
1188.000000,5213.000000,3801.000000,44109.000000
1215.000000,5213.000000,3845.000000,44118.000000
1224.000000,5202.000000,3838.000000,44117.000000
1221.000000,5257.000000,3835.000000,44161.000000
1302.000000,5246.000000,3870.000000,44164.000000
1295.000000,5263.000000,3884.000000,44162.000000
1297.000000,5289.000000,3922.000000,44189.000000
1298.000000,5309.000000,3923.000000,44180.000000
1375.000000,5312.000000,3969.000000,44208.000000
1355.000000,5353.000000,3970.000000,44233.000000
1399.000000,5330.000000,4021.000000,44227.000000
1411.000000,5341.000000,4019.000000,44255.000000
1407.000000,5363.000000,4017.000000,44276.000000
1416.000000,5361.000000,4078.000000,44273.000000
1439.000000,5376.000000,4047.000000,44248.000000
1441.000000,5403.000000,4093.000000,44257.000000
1478.000000,5431.000000,4083.000000,44259.000000
1487.000000,5400.000000,4091.000000,44261.000000
1491.000000,5397.000000,4096.000000,44311.000000
1504.000000,5425.000000,4069.000000,44283.000000
1494.000000,5432.000000,4113.000000,44325.000000
1507.000000,5412.000000,4108.000000,44322.000000
1474.000000,5398.000000,4146.000000,44301.000000
1448.000000,5387.000000,4097.000000,44298.000000
1493.000000,5395.000000,4091.000000,44282.000000
1486.000000,5411.000000,4095.000000,44299.000000
1458.000000,5375.000000,4099.000000,44296.000000
1482.000000,5395.000000,4082.000000,44298.000000
1501.000000,5359.000000,4033.000000,44265.000000
1471.000000,5360.000000,4028.000000,44282.000000
1482.000000,5397.000000,4054.000000,44280.000000
1492.000000,5365.000000,4098.000000,44290.000000
1495.000000,5388.000000,4073.000000,44271.000000
1481.000000,5392.000000,4078.000000,44295.000000
1444.000000,5355.000000,4048.000000,44280.000000
1485.000000,5400.000000,4057.000000,44282.000000
1462.000000,5356.000000,4035.000000,44267.000000
1469.000000,5381.000000,4036.000000,44292.000000
1450.000000,5369.000000,4027.000000,44234.000000
1458.000000,5374.000000,4044.000000,44255.000000
1478.000000,5376.000000,4029.000000,44283.000000
1465.000000,5366.000000,4035.000000,44239.000000
1458.000000,5364.000000,4037.000000,44266.000000
1449.000000,5357.000000,4019.000000,44245.000000
1447.000000,5358.000000,3984.000000,44252.000000
1436.000000,5363.000000,3994.000000,44257.000000
1432.000000,5338.000000,3983.000000,44206.000000
1438.000000,5319.000000,3961.000000,44240.000000
1454.000000,5326.000000,3974.000000,44208.000000
1422.000000,5339.000000,3972.000000,44248.000000
1402.000000,5338.000000,3947.000000,44223.000000
1410.000000,5289.000000,3968.000000,44233.000000
1363.000000,5327.000000,3955.000000,44225.000000
1387.000000,5296.000000,3938.000000,44229.000000
1383.000000,5316.000000,3937.000000,44221.000000
1306.000000,5284.000000,3945.000000,44215.000000
1359.000000,5266.000000,3914.000000,44182.000000
1362.000000,5284.000000,3890.000000,44202.000000
1359.000000,5270.000000,3909.000000,44170.000000
1322.000000,5264.000000,3914.000000,44179.000000
1359.000000,5283.000000,3896.000000,44175.000000
1335.000000,5264.000000,3898.000000,44184.000000
1300.000000,5276.000000,3891.000000,44179.000000
1292.000000,5257.000000,3854.000000,44178.000000
1280.000000,5258.000000,3860.000000,44136.000000
1290.000000,5212.000000,3870.000000,44116.000000
1273.000000,5214.000000,3852.000000,44142.000000
1285.000000,5264.000000,3838.000000,44149.000000
1254.000000,5224.000000,3835.000000,44147.000000
1243.000000,5196.000000,3813.000000,44105.000000
1230.000000,5193.000000,3811.000000,44100.000000
1233.000000,5217.000000,3801.000000,44122.000000
1202.000000,5173.000000,3787.000000,44099.000000
1208.000000,5194.000000,3808.000000,44129.000000
1194.000000,5174.000000,3763.000000,44118.000000
1199.000000,5182.000000,3788.000000,44106.000000
1188.000000,5172.000000,3772.000000,44125.000000
1167.000000,5147.000000,3772.000000,44074.000000
1164.000000,5152.000000,3782.000000,44113.000000
1189.000000,5148.000000,3734.000000,44093.000000
1132.000000,5178.000000,3746.000000,44110.000000
1122.000000,5148.000000,3742.000000,44096.000000
1128.000000,5126.000000,3718.000000,44061.000000
1129.000000,5149.000000,3729.000000,44092.000000
1146.000000,5121.000000,3692.000000,44058.000000
1132.000000,5112.000000,3703.000000,44035.000000
1122.000000,5096.000000,3711.000000,44075.000000
1104.000000,5117.000000,3677.000000,44037.000000
1071.000000,5124.000000,3701.000000,44082.000000
1073.000000,5086.000000,3659.000000,44022.000000
1075.000000,5081.000000,3659.000000,44009.000000
1058.000000,5096.000000,3663.000000,44031.000000
1065.000000,5119.000000,3678.000000,44049.000000
1059.000000,5067.000000,3649.000000,43988.000000
1063.000000,5082.000000,3622.000000,44039.000000
1042.000000,5094.000000,3635.000000,43994.000000
1040.000000,5098.000000,3640.000000,44017.000000
1034.000000,5066.000000,3628.000000,44025.000000
1014.000000,5046.000000,3602.000000,44011.000000
989.000000,5064.000000,3608.000000,44018.000000
1018.000000,5055.000000,3591.000000,43979.000000
985.000000,5055.000000,3616.000000,43975.000000
974.000000,4997.000000,3590.000000,44018.000000
984.000000,5030.000000,3624.000000,43980.000000
946.000000,5011.000000,3567.000000,43984.000000
926.000000,4990.000000,3539.000000,43976.000000
915.000000,5036.000000,3587.000000,43952.000000
899.000000,4965.000000,3533.000000,43963.000000
900.000000,5008.000000,3517.000000,43950.000000
934.000000,5002.000000,3570.000000,43943.000000
914.000000,4991.000000,3544.000000,43954.000000
909.000000,4973.000000,3526.000000,43941.000000
871.000000,4953.000000,3518.000000,43930.000000
899.000000,4992.000000,3512.000000,43957.000000
839.000000,4969.000000,3529.000000,43962.000000
886.000000,4981.000000,3518.000000,43947.000000
865.000000,4942.000000,3511.000000,43943.000000
854.000000,4987.000000,3534.000000,43973.000000
840.000000,4954.000000,3519.000000,43952.000000
859.000000,4955.000000,3511.000000,43958.000000
872.000000,4968.000000,3490.000000,43953.000000
892.000000,4965.000000,3522.000000,43927.000000
875.000000,4982.000000,3563.000000,43936.000000
885.000000,4969.000000,3558.000000,43936.000000
906.000000,5020.000000,3555.000000,43946.000000
944.000000,5015.000000,3557.000000,43976.000000
947.000000,5022.000000,3637.000000,44001.000000
899.000000,5021.000000,3585.000000,43993.000000
943.000000,5038.000000,3664.000000,44013.000000
981.000000,5056.000000,3666.000000,44047.000000
996.000000,5100.000000,3655.000000,44040.000000
998.000000,5058.000000,3708.000000,44053.000000
1024.000000,5087.000000,3693.000000,44070.000000
1050.000000,5112.000000,3736.000000,44029.000000
1100.000000,5123.000000,3753.000000,44079.000000
1099.000000,5110.000000,3783.000000,44080.000000
1150.000000,5135.000000,3774.000000,44094.000000
1181.000000,5176.000000,3816.000000,44117.000000
1182.000000,5179.000000,3853.000000,44137.000000
1181.000000,5216.000000,3844.000000,44126.000000
1214.000000,5226.000000,3898.000000,44192.000000
1285.000000,5249.000000,3914.000000,44212.000000
1261.000000,5250.000000,3943.000000,44207.000000
1273.000000,5267.000000,3948.000000,44196.000000
1291.000000,5248.000000,3978.000000,44207.000000
1324.000000,5279.000000,4013.000000,44227.000000
1350.000000,5311.000000,4005.000000,44259.000000
1373.000000,5295.000000,4034.000000,44259.000000
1404.000000,5372.000000,4028.000000,44287.000000
1430.000000,5370.000000,4068.000000,44305.000000
1447.000000,5362.000000,4063.000000,44298.000000
1448.000000,5356.000000,4084.000000,44286.000000
1501.000000,5359.000000,4097.000000,44268.000000
1490.000000,5397.000000,4129.000000,44333.000000
1514.000000,5403.000000,4143.000000,44328.000000
1505.000000,5400.000000,4105.000000,44326.000000
1523.000000,5409.000000,4141.000000,44316.000000
1543.000000,5373.000000,4113.000000,44317.000000
1539.000000,5413.000000,4115.000000,44325.000000
1528.000000,5428.000000,4138.000000,44307.000000
1536.000000,5402.000000,4124.000000,44319.000000
1497.000000,5428.000000,4142.000000,44328.000000
1516.000000,5386.000000,4104.000000,44340.000000
1509.000000,5397.000000,4110.000000,44323.000000
1527.000000,5403.000000,4096.000000,44296.000000
1517.000000,5356.000000,4096.000000,44298.000000
1489.000000,5411.000000,4118.000000,44315.000000
1474.000000,5404.000000,4084.000000,44286.000000
1447.000000,5376.000000,4066.000000,44281.000000
1482.000000,5373.000000,4070.000000,44300.000000
1507.000000,5384.000000,4083.000000,44275.000000
1469.000000,5371.000000,4047.000000,44297.000000
1484.000000,5372.000000,4070.000000,44272.000000
1459.000000,5363.000000,4042.000000,44257.000000
1449.000000,5379.000000,4046.000000,44252.000000
1437.000000,5389.000000,4051.000000,44292.000000
1452.000000,5357.000000,4055.000000,44299.000000
1444.000000,5375.000000,4041.000000,44304.000000
1432.000000,5315.000000,4000.000000,44274.000000
1419.000000,5337.000000,4043.000000,44250.000000
1422.000000,5335.000000,4013.000000,44276.000000
1409.000000,5332.000000,4001.000000,44244.000000
1355.000000,5310.000000,4020.000000,44241.000000
1384.000000,5315.000000,3970.000000,44237.000000
1365.000000,5321.000000,3988.000000,44231.000000
1368.000000,5315.000000,3958.000000,44215.000000
1367.000000,5276.000000,3996.000000,44218.000000
1346.000000,5283.000000,3956.000000,44220.000000
1365.000000,5257.000000,3949.000000,44214.000000
1341.000000,5333.000000,3983.000000,44213.000000
1310.000000,5285.000000,3942.000000,44223.000000
1288.000000,5271.000000,3946.000000,44221.000000
1258.000000,5261.000000,3939.000000,44184.000000
1293.000000,5227.000000,3938.000000,44190.000000
1277.000000,5250.000000,3912.000000,44220.000000
1278.000000,5247.000000,3912.000000,44192.000000
1206.000000,5196.000000,3901.000000,44167.000000
1254.000000,5211.000000,3886.000000,44174.000000
1234.000000,5207.000000,3876.000000,44163.000000
1206.000000,5178.000000,3867.000000,44159.000000
1204.000000,5201.000000,3849.000000,44143.000000
1148.000000,5187.000000,3848.000000,44122.000000
1184.000000,5179.000000,3844.000000,44137.000000
1145.000000,5188.000000,3860.000000,44127.000000
1135.000000,5199.000000,3813.000000,44132.000000
1125.000000,5178.000000,3802.000000,44125.000000
1098.000000,5120.000000,3818.000000,44109.000000
1063.000000,5146.000000,3782.000000,44096.000000
1063.000000,5130.000000,3784.000000,44065.000000
1077.000000,5133.000000,3756.000000,44111.000000
1053.000000,5127.000000,3768.000000,44092.000000
1052.000000,5120.000000,3804.000000,44085.000000
1043.000000,5117.000000,3805.000000,44097.000000
1035.000000,5119.000000,3783.000000,44103.000000
1023.000000,5113.000000,3766.000000,44090.000000
986.000000,5079.000000,3758.000000,44096.000000
969.000000,5094.000000,3747.000000,44094.000000
1010.000000,5099.000000,3722.000000,44078.000000
975.000000,5079.000000,3720.000000,44051.000000
940.000000,5080.000000,3747.000000,44060.000000
936.000000,5045.000000,3702.000000,44024.000000
940.000000,5064.000000,3707.000000,44054.000000
906.000000,5049.000000,3639.000000,44029.000000
903.000000,5063.000000,3697.000000,44031.000000
891.000000,5043.000000,3675.000000,44037.000000
865.000000,5025.000000,3680.000000,44022.000000
884.000000,5046.000000,3687.000000,44012.000000
873.000000,5016.000000,3660.000000,44004.000000
881.000000,5057.000000,3673.000000,44000.000000
887.000000,5011.000000,3664.000000,44014.000000
879.000000,5021.000000,3635.000000,44007.000000
867.000000,5012.000000,3634.000000,44021.000000
868.000000,5032.000000,3661.000000,44035.000000
842.000000,5003.000000,3634.000000,43995.000000
870.000000,5039.000000,3694.000000,44033.000000
883.000000,5037.000000,3649.000000,44034.000000
857.000000,5044.000000,3640.000000,44015.000000
850.000000,5020.000000,3645.000000,43993.000000
888.000000,5001.000000,3638.000000,44001.000000
888.000000,5021.000000,3621.000000,44017.000000
860.000000,5001.000000,3615.000000,43985.000000
844.000000,5035.000000,3614.000000,44004.000000
859.000000,4982.000000,3632.000000,43997.000000
869.000000,4997.000000,3651.000000,44003.000000
867.000000,5011.000000,3627.000000,43990.000000
879.000000,5013.000000,3627.000000,44016.000000
880.000000,4968.000000,3606.000000,43973.000000
872.000000,5036.000000,3607.000000,43987.000000
879.000000,4995.000000,3582.000000,43997.000000
907.000000,5004.000000,3638.000000,43997.000000
906.000000,4975.000000,3609.000000,43990.000000
934.000000,5052.000000,3601.000000,44025.000000
941.000000,5025.000000,3618.000000,44011.000000
952.000000,5023.000000,3608.000000,44012.000000
972.000000,5027.000000,3628.000000,44018.000000
1024.000000,5037.000000,3652.000000,44016.000000
1021.000000,5076.000000,3675.000000,44045.000000
1045.000000,5062.000000,3682.000000,44051.000000
1086.000000,5063.000000,3677.000000,44076.000000
1121.000000,5127.000000,3686.000000,44059.000000
1134.000000,5110.000000,3731.000000,44073.000000
1138.000000,5117.000000,3714.000000,44095.000000
1174.000000,5135.000000,3747.000000,44112.000000
1183.000000,5148.000000,3768.000000,44130.000000
1201.000000,5160.000000,3798.000000,44161.000000
1227.000000,5170.000000,3797.000000,44151.000000
1253.000000,5176.000000,3811.000000,44128.000000
1290.000000,5206.000000,3859.000000,44186.000000
1265.000000,5193.000000,3865.000000,44180.000000
1315.000000,5220.000000,3907.000000,44206.000000
1326.000000,5213.000000,3910.000000,44193.000000
1386.000000,5252.000000,3935.000000,44225.000000
1407.000000,5290.000000,3980.000000,44263.000000
1382.000000,5276.000000,3969.000000,44258.000000
1445.000000,5324.000000,3986.000000,44287.000000
1459.000000,5305.000000,4015.000000,44288.000000
1474.000000,5317.000000,4027.000000,44316.000000
1498.000000,5357.000000,4021.000000,44279.000000
1513.000000,5356.000000,4079.000000,44335.000000
1564.000000,5346.000000,4063.000000,44337.000000
1608.000000,5375.000000,4111.000000,44366.000000
1601.000000,5392.000000,4145.000000,44367.000000
1612.000000,5417.000000,4151.000000,44365.000000
1611.000000,5423.000000,4182.000000,44381.000000
1651.000000,5437.000000,4172.000000,44370.000000
1697.000000,5447.000000,4202.000000,44390.000000
1690.000000,5471.000000,4233.000000,44435.000000
1718.000000,5469.000000,4223.000000,44413.000000
1701.000000,5488.000000,4261.000000,44408.000000
1731.000000,5491.000000,4227.000000,44423.000000
1774.000000,5544.000000,4252.000000,44436.000000
1761.000000,5513.000000,4296.000000,44464.000000
1781.000000,5523.000000,4276.000000,44446.000000
1788.000000,5539.000000,4314.000000,44453.000000
1830.000000,5520.000000,4304.000000,44492.000000
1823.000000,5520.000000,4289.000000,44456.000000
1836.000000,5576.000000,4310.000000,44468.000000
1842.000000,5568.000000,4310.000000,44458.000000
1855.000000,5558.000000,4278.000000,44488.000000
1889.000000,5565.000000,4305.000000,44486.000000
1880.000000,5539.000000,4297.000000,44456.000000
1872.000000,5580.000000,4325.000000,44472.000000
1899.000000,5564.000000,4309.000000,44497.000000
1899.000000,5552.000000,4307.000000,44459.000000
1911.000000,5559.000000,4357.000000,44481.000000
1916.000000,5533.000000,4326.000000,44455.000000
1895.000000,5587.000000,4294.000000,44466.000000
1894.000000,5557.000000,4291.000000,44500.000000
1910.000000,5546.000000,4291.000000,44467.000000
1888.000000,5564.000000,4282.000000,44498.000000
1893.000000,5566.000000,4296.000000,44465.000000
1910.000000,5543.000000,4251.000000,44465.000000
1893.000000,5545.000000,4291.000000,44476.000000
1918.000000,5571.000000,4278.000000,44460.000000
1872.000000,5513.000000,4270.000000,44463.000000
1892.000000,5565.000000,4260.000000,44455.000000
1866.000000,5520.000000,4248.000000,44444.000000
1881.000000,5523.000000,4261.000000,44468.000000
1838.000000,5543.000000,4240.000000,44445.000000
1868.000000,5507.000000,4232.000000,44409.000000
1883.000000,5503.000000,4231.000000,44441.000000
1857.000000,5516.000000,4245.000000,44446.000000
1883.000000,5526.000000,4249.000000,44470.000000
1875.000000,5522.000000,4213.000000,44451.000000
1858.000000,5522.000000,4222.000000,44429.000000
1883.000000,5498.000000,4225.000000,44423.000000
1862.000000,5504.000000,4206.000000,44444.000000
1860.000000,5508.000000,4209.000000,44433.000000
1888.000000,5491.000000,4200.000000,44424.000000
1839.000000,5504.000000,4163.000000,44417.000000
1855.000000,5475.000000,4183.000000,44415.000000
1866.000000,5484.000000,4170.000000,44419.000000
1873.000000,5482.000000,4148.000000,44388.000000
1843.000000,5455.000000,4146.000000,44398.000000
1841.000000,5491.000000,4151.000000,44411.000000
1844.000000,5499.000000,4148.000000,44399.000000
1843.000000,5483.000000,4147.000000,44390.000000
1862.000000,5540.000000,4154.000000,44406.000000
1859.000000,5494.000000,4143.000000,44373.000000
1875.000000,5492.000000,4122.000000,44425.000000
1834.000000,5505.000000,4127.000000,44418.000000
1853.000000,5479.000000,4129.000000,44410.000000
1872.000000,5470.000000,4111.000000,44359.000000
1865.000000,5473.000000,4099.000000,44399.000000
1872.000000,5479.000000,4110.000000,44409.000000
1839.000000,5481.000000,4103.000000,44386.000000
1850.000000,5449.000000,4086.000000,44373.000000
1851.000000,5440.000000,4100.000000,44388.000000
1857.000000,5436.000000,4081.000000,44376.000000
1862.000000,5473.000000,4110.000000,44400.000000
1833.000000,5421.000000,4067.000000,44346.000000
1835.000000,5443.000000,4075.000000,44355.000000
1838.000000,5415.000000,4092.000000,44348.000000
1845.000000,5456.000000,4106.000000,44371.000000
1859.000000,5433.000000,4064.000000,44373.000000
1817.000000,5437.000000,4062.000000,44365.000000
1807.000000,5423.000000,4036.000000,44372.000000
1807.000000,5423.000000,4009.000000,44354.000000
1775.000000,5397.000000,4019.000000,44334.000000
1823.000000,5402.000000,4054.000000,44372.000000
1788.000000,5419.000000,3988.000000,44316.000000
1765.000000,5408.000000,4002.000000,44306.000000
1810.000000,5420.000000,4015.000000,44339.000000
1775.000000,5377.000000,3984.000000,44329.000000
1814.000000,5377.000000,3990.000000,44305.000000
1806.000000,5452.000000,4000.000000,44338.000000
1775.000000,5407.000000,3986.000000,44322.000000
1804.000000,5393.000000,3983.000000,44334.000000
1820.000000,5379.000000,4004.000000,44331.000000
1784.000000,5398.000000,3975.000000,44303.000000
1761.000000,5400.000000,3995.000000,44332.000000
1798.000000,5362.000000,3979.000000,44314.000000
1752.000000,5388.000000,3963.000000,44313.000000
1812.000000,5378.000000,3984.000000,44326.000000
1757.000000,5349.000000,3963.000000,44332.000000
1782.000000,5396.000000,3951.000000,44312.000000
1741.000000,5376.000000,3941.000000,44303.000000
1768.000000,5387.000000,3971.000000,44293.000000
1996.000000,5365.000000,3926.000000,44291.000000
1719.000000,5328.000000,3935.000000,44325.000000
1756.000000,5370.000000,3925.000000,44283.000000
1745.000000,5348.000000,3920.000000,44307.000000
1741.000000,5333.000000,3919.000000,44275.000000
1740.000000,5335.000000,3928.000000,44302.000000
1753.000000,5318.000000,3904.000000,44266.000000
1708.000000,5332.000000,3901.000000,44283.000000
1703.000000,5342.000000,3876.000000,44303.000000
1726.000000,5317.000000,3865.000000,44252.000000
1695.000000,5310.000000,3873.000000,44265.000000
1700.000000,5328.000000,3865.000000,44260.000000
1710.000000,5303.000000,3882.000000,44235.000000
1701.000000,5318.000000,3858.000000,44277.000000
1698.000000,5317.000000,3865.000000,44241.000000
1685.000000,5337.000000,3884.000000,44259.000000
1666.000000,5305.000000,3877.000000,44234.000000
1667.000000,5294.000000,3836.000000,44247.000000
1665.000000,5271.000000,3835.000000,44235.000000
1686.000000,5299.000000,3843.000000,44215.000000
1678.000000,5308.000000,3858.000000,44285.000000
1729.000000,5308.000000,3832.000000,44218.000000
1669.000000,5298.000000,3858.000000,44236.000000
1702.000000,5297.000000,3837.000000,44238.000000
1697.000000,5275.000000,3849.000000,44245.000000
1689.000000,5319.000000,3870.000000,44253.000000
1728.000000,5322.000000,3828.000000,44280.000000
1721.000000,5308.000000,3861.000000,44265.000000
1732.000000,5326.000000,3899.000000,44284.000000
1718.000000,5362.000000,3909.000000,44315.000000
1756.000000,5328.000000,3922.000000,44307.000000
1756.000000,5358.000000,3937.000000,44306.000000
1810.000000,5379.000000,3944.000000,44316.000000
1779.000000,5364.000000,3951.000000,44320.000000
1794.000000,5388.000000,3977.000000,44346.000000
1783.000000,5352.000000,3985.000000,44311.000000
1821.000000,5397.000000,3974.000000,44335.000000
1854.000000,5415.000000,4012.000000,44355.000000
1821.000000,5389.000000,4022.000000,44369.000000
1886.000000,5424.000000,4024.000000,44379.000000
1852.000000,5468.000000,4036.000000,44391.000000
1881.000000,5411.000000,4056.000000,44373.000000
1896.000000,5452.000000,4100.000000,44397.000000
1923.000000,5479.000000,4107.000000,44386.000000
1920.000000,5472.000000,4140.000000,44441.000000
1970.000000,5483.000000,4108.000000,44419.000000
1969.000000,5475.000000,4163.000000,44425.000000
1998.000000,5514.000000,4146.000000,44445.000000
1986.000000,5511.000000,4197.000000,44465.000000
2004.000000,5524.000000,4189.000000,44477.000000
2030.000000,5553.000000,4240.000000,44470.000000
2026.000000,5538.000000,4244.000000,44510.000000
2057.000000,5612.000000,4258.000000,44503.000000
2071.000000,5560.000000,4227.000000,44481.000000
2072.000000,5580.000000,4268.000000,44503.000000
2072.000000,5592.000000,4285.000000,44526.000000
2053.000000,5588.000000,4255.000000,44492.000000
2060.000000,5570.000000,4271.000000,44510.000000
2074.000000,5576.000000,4255.000000,44503.000000
2054.000000,5570.000000,4238.000000,44540.000000
2073.000000,5567.000000,4264.000000,44502.000000
2047.000000,5522.000000,4204.000000,44456.000000
2065.000000,5591.000000,4227.000000,44487.000000
2023.000000,5559.000000,4260.000000,44471.000000
2041.000000,5543.000000,4219.000000,44482.000000
2010.000000,5562.000000,4209.000000,44496.000000
2016.000000,5527.000000,4210.000000,44470.000000
2016.000000,5535.000000,4208.000000,44456.000000
1972.000000,5532.000000,4180.000000,44496.000000
2030.000000,5525.000000,4168.000000,44457.000000
1996.000000,5535.000000,4183.000000,44452.000000
1974.000000,5501.000000,4182.000000,44471.000000
1972.000000,5496.000000,4162.000000,44464.000000
1955.000000,5543.000000,4180.000000,44461.000000
1976.000000,5528.000000,4181.000000,44440.000000
1949.000000,5467.000000,4173.000000,44429.000000
1927.000000,5501.000000,4161.000000,44458.000000
1951.000000,5469.000000,4152.000000,44422.000000
1935.000000,5476.000000,4140.000000,44433.000000
1925.000000,5461.000000,4106.000000,44431.000000
1896.000000,5471.000000,4114.000000,44415.000000
1897.000000,5487.000000,4081.000000,44424.000000
1916.000000,5437.000000,4076.000000,44417.000000
1899.000000,5444.000000,4100.000000,44397.000000
1893.000000,5465.000000,4097.000000,44406.000000
1918.000000,5455.000000,4061.000000,44400.000000
1863.000000,5421.000000,4080.000000,44411.000000
1870.000000,5421.000000,4042.000000,44415.000000
1859.000000,5439.000000,4059.000000,44382.000000
1845.000000,5398.000000,4078.000000,44372.000000
1895.000000,5433.000000,4035.000000,44367.000000
1832.000000,5398.000000,4042.000000,44356.000000
1820.000000,5432.000000,4044.000000,44397.000000
1848.000000,5435.000000,4037.000000,44347.000000
1824.000000,5410.000000,3997.000000,44336.000000
1842.000000,5387.000000,4029.000000,44363.000000
1836.000000,5386.000000,4043.000000,44358.000000
1842.000000,5413.000000,3993.000000,44319.000000
1829.000000,5395.000000,3968.000000,44338.000000
1809.000000,5385.000000,4011.000000,44340.000000
1789.000000,5392.000000,3985.000000,44347.000000
1805.000000,5381.000000,4005.000000,44345.000000
1811.000000,5341.000000,3974.000000,44314.000000
2037.000000,5369.000000,3989.000000,44351.000000
1755.000000,5371.000000,3971.000000,44342.000000
1788.000000,5366.000000,3934.000000,44318.000000
1756.000000,5366.000000,3942.000000,44338.000000
1747.000000,5348.000000,3945.000000,44351.000000
1749.000000,5331.000000,3919.000000,44311.000000
1748.000000,5315.000000,3904.000000,44303.000000
1731.000000,5322.000000,3881.000000,44276.000000
1744.000000,5319.000000,3883.000000,44305.000000
1703.000000,5326.000000,3895.000000,44270.000000
1677.000000,5295.000000,3895.000000,44268.000000
1711.000000,5294.000000,3850.000000,44258.000000
1705.000000,5277.000000,3879.000000,44282.000000
1671.000000,5286.000000,3859.000000,44249.000000
1681.000000,5262.000000,3792.000000,44245.000000
1671.000000,5278.000000,3808.000000,44277.000000
1671.000000,5284.000000,3828.000000,44232.000000
1656.000000,5253.000000,3798.000000,44253.000000
1673.000000,5282.000000,3822.000000,44241.000000
1641.000000,5257.000000,3813.000000,44228.000000
1634.000000,5260.000000,3798.000000,44224.000000
1609.000000,5246.000000,3819.000000,44251.000000
1639.000000,5247.000000,3770.000000,44223.000000
1691.000000,5238.000000,3769.000000,44221.000000
1598.000000,5229.000000,3787.000000,44231.000000
1612.000000,5244.000000,3753.000000,44227.000000
1611.000000,5229.000000,3768.000000,44192.000000
1595.000000,5229.000000,3733.000000,44183.000000
1604.000000,5238.000000,3744.000000,44183.000000
1605.000000,5224.000000,3721.000000,44195.000000
1556.000000,5201.000000,3728.000000,44187.000000
1607.000000,5205.000000,3722.000000,44202.000000
1558.000000,5227.000000,3736.000000,44166.000000
1546.000000,5176.000000,3693.000000,44154.000000
1561.000000,5232.000000,3738.000000,44194.000000
1551.000000,5188.000000,3732.000000,44183.000000
1545.000000,5189.000000,3713.000000,44198.000000
1530.000000,5194.000000,3698.000000,44184.000000
1557.000000,5177.000000,3664.000000,44149.000000
1536.000000,5188.000000,3685.000000,44192.000000
1458.000000,5157.000000,3690.000000,44148.000000
1518.000000,5154.000000,3662.000000,44142.000000
1512.000000,5186.000000,3679.000000,44184.000000
1524.000000,5158.000000,3652.000000,44147.000000
1517.000000,5148.000000,3676.000000,44151.000000
1478.000000,5135.000000,3641.000000,44144.000000
1496.000000,5130.000000,3645.000000,44146.000000
1520.000000,5189.000000,3664.000000,44164.000000
1482.000000,5144.000000,3649.000000,44137.000000
1513.000000,5147.000000,3666.000000,44165.000000
1503.000000,5144.000000,3661.000000,44156.000000
1492.000000,5141.000000,3669.000000,44179.000000
1510.000000,5177.000000,3686.000000,44142.000000
1542.000000,5180.000000,3670.000000,44161.000000
1549.000000,5181.000000,3671.000000,44176.000000
1537.000000,5158.000000,3693.000000,44168.000000
1531.000000,5211.000000,3699.000000,44180.000000
1558.000000,5223.000000,3722.000000,44204.000000
1572.000000,5207.000000,3738.000000,44193.000000
1595.000000,5211.000000,3807.000000,44232.000000
1588.000000,5267.000000,3800.000000,44236.000000
1617.000000,5249.000000,3805.000000,44250.000000
1645.000000,5253.000000,3820.000000,44257.000000
1659.000000,5264.000000,3872.000000,44281.000000
1709.000000,5288.000000,3868.000000,44292.000000
1700.000000,5321.000000,3870.000000,44281.000000
1718.000000,5300.000000,3882.000000,44284.000000
1736.000000,5335.000000,3935.000000,44320.000000
1743.000000,5336.000000,3953.000000,44303.000000
1754.000000,5352.000000,3948.000000,44354.000000
1787.000000,5373.000000,3979.000000,44335.000000
1793.000000,5383.000000,3997.000000,44350.000000
1819.000000,5417.000000,4011.000000,44383.000000
1841.000000,5396.000000,4036.000000,44402.000000
1844.000000,5411.000000,4045.000000,44383.000000
1878.000000,5415.000000,4061.000000,44401.000000
1896.000000,5432.000000,4078.000000,44403.000000
1907.000000,5451.000000,4101.000000,44424.000000
1949.000000,5443.000000,4097.000000,44431.000000
1954.000000,5486.000000,4095.000000,44421.000000
1967.000000,5465.000000,4131.000000,44427.000000
1966.000000,5466.000000,4166.000000,44418.000000
1965.000000,5484.000000,4155.000000,44471.000000
1947.000000,5528.000000,4154.000000,44486.000000
1971.000000,5476.000000,4148.000000,44459.000000
1970.000000,5528.000000,4159.000000,44461.000000
1969.000000,5489.000000,4135.000000,44473.000000
1972.000000,5483.000000,4146.000000,44427.000000
1960.000000,5499.000000,4122.000000,44463.000000
1928.000000,5514.000000,4141.000000,44452.000000
1950.000000,5471.000000,4121.000000,44456.000000
1933.000000,5448.000000,4106.000000,44479.000000
1948.000000,5487.000000,4134.000000,44414.000000
1909.000000,5474.000000,4124.000000,44445.000000
1922.000000,5474.000000,4143.000000,44426.000000
1937.000000,5464.000000,4083.000000,44423.000000
1931.000000,5484.000000,4105.000000,44459.000000
1925.000000,5471.000000,4138.000000,44418.000000
1893.000000,5445.000000,4097.000000,44402.000000
1912.000000,5450.000000,4071.000000,44432.000000
1913.000000,5451.000000,4092.000000,44399.000000
1889.000000,5429.000000,4083.000000,44431.000000
1867.000000,5434.000000,4071.000000,44400.000000
1904.000000,5428.000000,4067.000000,44400.000000
1905.000000,5429.000000,4036.000000,44411.000000
1868.000000,5417.000000,4062.000000,44403.000000
1851.000000,5393.000000,4024.000000,44356.000000
1861.000000,5416.000000,4034.000000,44393.000000
1842.000000,5394.000000,4042.000000,44394.000000
1824.000000,5400.000000,4007.000000,44379.000000
1860.000000,5441.000000,4044.000000,44386.000000
1860.000000,5425.000000,4017.000000,44392.000000
1855.000000,5391.000000,4048.000000,44383.000000
1875.000000,5417.000000,4025.000000,44390.000000
1824.000000,5383.000000,4006.000000,44384.000000
1844.000000,5434.000000,4021.000000,44375.000000
1826.000000,5423.000000,4020.000000,44398.000000
1847.000000,5393.000000,4013.000000,44383.000000
1815.000000,5361.000000,4017.000000,44401.000000
1794.000000,5383.000000,4006.000000,44352.000000
1805.000000,5389.000000,3984.000000,44370.000000
1815.000000,5348.000000,3972.000000,44363.000000
1797.000000,5359.000000,3967.000000,44349.000000
1780.000000,5366.000000,3953.000000,44347.000000
1776.000000,5354.000000,3956.000000,44360.000000
1783.000000,5335.000000,3948.000000,44352.000000
1805.000000,5345.000000,3938.000000,44336.000000
1783.000000,5324.000000,3953.000000,44324.000000
1776.000000,5369.000000,3944.000000,44333.000000
1753.000000,5339.000000,3948.000000,44353.000000
1761.000000,5317.000000,3939.000000,44327.000000
1754.000000,5353.000000,3932.000000,44313.000000
1734.000000,5313.000000,3971.000000,44340.000000
1742.000000,5350.000000,3939.000000,44332.000000
1717.000000,5324.000000,3895.000000,44320.000000
1718.000000,5299.000000,3914.000000,44315.000000
1720.000000,5397.000000,3905.000000,44291.000000
1708.000000,5317.000000,3904.000000,44343.000000
1700.000000,5307.000000,3887.000000,44302.000000
1706.000000,5286.000000,3882.000000,44303.000000
1664.000000,5295.000000,3871.000000,44302.000000
1679.000000,5289.000000,3872.000000,44269.000000
1672.000000,5264.000000,3844.000000,44271.000000
1664.000000,5299.000000,3861.000000,44305.000000
1639.000000,5258.000000,3869.000000,44281.000000
1650.000000,5267.000000,3862.000000,44266.000000
1656.000000,5250.000000,3802.000000,44264.000000
1629.000000,5245.000000,3797.000000,44264.000000
1635.000000,5256.000000,3823.000000,44238.000000
1638.000000,5265.000000,3792.000000,44231.000000
1589.000000,5262.000000,3810.000000,44228.000000
1603.000000,5252.000000,3828.000000,44240.000000
1574.000000,5238.000000,3782.000000,44239.000000
1602.000000,5222.000000,3794.000000,44223.000000
1578.000000,5223.000000,3780.000000,44238.000000
1555.000000,5198.000000,3768.000000,44243.000000
1578.000000,5231.000000,3763.000000,44204.000000
1556.000000,5207.000000,3770.000000,44215.000000
1557.000000,5205.000000,3777.000000,44182.000000
1554.000000,5199.000000,3765.000000,44259.000000
1541.000000,5147.000000,3749.000000,44232.000000
1546.000000,5175.000000,3750.000000,44203.000000
1531.000000,5156.000000,3724.000000,44209.000000
1530.000000,5179.000000,3767.000000,44201.000000
1533.000000,5188.000000,3759.000000,44203.000000
1497.000000,5177.000000,3705.000000,44200.000000
1490.000000,5181.000000,3715.000000,44185.000000
1505.000000,5144.000000,3743.000000,44175.000000
1521.000000,5134.000000,3697.000000,44161.000000
1489.000000,5166.000000,3736.000000,44182.000000
1484.000000,5133.000000,3712.000000,44147.000000
1516.000000,5156.000000,3697.000000,44211.000000
1467.000000,5158.000000,3657.000000,44144.000000
1481.000000,5168.000000,3659.000000,44189.000000
1485.000000,5147.000000,3681.000000,44184.000000
1504.000000,5157.000000,3682.000000,44148.000000
1476.000000,5154.000000,3670.000000,44191.000000
1432.000000,5127.000000,3674.000000,44190.000000
1446.000000,5142.000000,3665.000000,44166.000000
1438.000000,5135.000000,3664.000000,44170.000000
1441.000000,5165.000000,3651.000000,44173.000000
1445.000000,5124.000000,3686.000000,44174.000000
1431.000000,5158.000000,3678.000000,44180.000000
1452.000000,5141.000000,3664.000000,44178.000000
1458.000000,5124.000000,3687.000000,44166.000000
1474.000000,5156.000000,3670.000000,44173.000000
1437.000000,5161.000000,3675.000000,44161.000000
1460.000000,5129.000000,3707.000000,44189.000000
1403.000000,5164.000000,3700.000000,44182.000000
1436.000000,5138.000000,3716.000000,44177.000000
1478.000000,5141.000000,3729.000000,44199.000000
1448.000000,5172.000000,3724.000000,44213.000000
1455.000000,5155.000000,3755.000000,44195.000000
1511.000000,5178.000000,3783.000000,44199.000000
1501.000000,5189.000000,3782.000000,44230.000000
1537.000000,5226.000000,3793.000000,44231.000000
1542.000000,5235.000000,3799.000000,44248.000000
1562.000000,5195.000000,3810.000000,44249.000000
1601.000000,5241.000000,3822.000000,44299.000000
1620.000000,5271.000000,3878.000000,44282.000000
1607.000000,5236.000000,3892.000000,44283.000000
1634.000000,5267.000000,3915.000000,44299.000000
1681.000000,5305.000000,3946.000000,44327.000000
1672.000000,5314.000000,3961.000000,44337.000000
1703.000000,5312.000000,3988.000000,44354.000000
1727.000000,5331.000000,3979.000000,44346.000000
1746.000000,5363.000000,4029.000000,44385.000000
1696.000000,5366.000000,4033.000000,44391.000000
1779.000000,5388.000000,4043.000000,44399.000000
1811.000000,5366.000000,4096.000000,44432.000000
1789.000000,5426.000000,4107.000000,44418.000000
1809.000000,5427.000000,4114.000000,44447.000000
1849.000000,5447.000000,4143.000000,44476.000000
1818.000000,5413.000000,4120.000000,44445.000000
1846.000000,5431.000000,4132.000000,44451.000000
1863.000000,5486.000000,4165.000000,44450.000000
1877.000000,5474.000000,4179.000000,44465.000000
1857.000000,5467.000000,4203.000000,44489.000000
1890.000000,5458.000000,4187.000000,44476.000000
1882.000000,5489.000000,4183.000000,44482.000000
1878.000000,5492.000000,4188.000000,44477.000000
1911.000000,5483.000000,4206.000000,44458.000000
1885.000000,5475.000000,4193.000000,44461.000000
1857.000000,5449.000000,4180.000000,44483.000000
1887.000000,5479.000000,4175.000000,44452.000000
1859.000000,5471.000000,4171.000000,44485.000000
1849.000000,5467.000000,4182.000000,44447.000000
1858.000000,5425.000000,4177.000000,44440.000000
1857.000000,5471.000000,4171.000000,44457.000000
1847.000000,5465.000000,4160.000000,44452.000000
1834.000000,5448.000000,4149.000000,44441.000000
1832.000000,5483.000000,4157.000000,44443.000000
1802.000000,5435.000000,4156.000000,44463.000000
1811.000000,5425.000000,4153.000000,44421.000000
1829.000000,5423.000000,4137.000000,44458.000000
1817.000000,5423.000000,4119.000000,44421.000000
1810.000000,5446.000000,4149.000000,44446.000000
1802.000000,5432.000000,4102.000000,44421.000000
1768.000000,5415.000000,4118.000000,44440.000000
1797.000000,5435.000000,4105.000000,44431.000000
1754.000000,5420.000000,4098.000000,44389.000000
1745.000000,5398.000000,4098.000000,44427.000000
1771.000000,5411.000000,4117.000000,44415.000000
1744.000000,5401.000000,4123.000000,44434.000000
1741.000000,5395.000000,4055.000000,44418.000000
1752.000000,5433.000000,4116.000000,44441.000000
1745.000000,5415.000000,4112.000000,44415.000000
1723.000000,5395.000000,4085.000000,44398.000000
1710.000000,5386.000000,4055.000000,44415.000000
1721.000000,5414.000000,4079.000000,44394.000000
1711.000000,5360.000000,4037.000000,44378.000000
1732.000000,5357.000000,4061.000000,44408.000000
1709.000000,5376.000000,4040.000000,44372.000000
1691.000000,5337.000000,4037.000000,44362.000000
1714.000000,5360.000000,4001.000000,44352.000000
1664.000000,5324.000000,4003.000000,44354.000000
1701.000000,5335.000000,4015.000000,44369.000000
1714.000000,5353.000000,4028.000000,44365.000000
1711.000000,5379.000000,4028.000000,44401.000000
1683.000000,5335.000000,3997.000000,44352.000000
1685.000000,5345.000000,4001.000000,44377.000000
1654.000000,5343.000000,3997.000000,44375.000000
1686.000000,5321.000000,4024.000000,44356.000000
1691.000000,5357.000000,3994.000000,44385.000000
1682.000000,5347.000000,4021.000000,44386.000000
1636.000000,5327.000000,3981.000000,44339.000000
1658.000000,5279.000000,3951.000000,44334.000000
1645.000000,5316.000000,3971.000000,44338.000000
1638.000000,5276.000000,3950.000000,44336.000000
1648.000000,5307.000000,3949.000000,44331.000000
1641.000000,5281.000000,3944.000000,44319.000000
1625.000000,5301.000000,3931.000000,44327.000000
1604.000000,5278.000000,3920.000000,44318.000000
1618.000000,5264.000000,3937.000000,44287.000000
1629.000000,5305.000000,3923.000000,44292.000000
1603.000000,5282.000000,3929.000000,44334.000000
1610.000000,5257.000000,3921.000000,44313.000000
1618.000000,5269.000000,3913.000000,44306.000000
1601.000000,5248.000000,3892.000000,44292.000000
1585.000000,5269.000000,3886.000000,44308.000000
1581.000000,5263.000000,3875.000000,44278.000000
1596.000000,5222.000000,3893.000000,44290.000000
1562.000000,5244.000000,3881.000000,44303.000000
1589.000000,5257.000000,3866.000000,44336.000000
1564.000000,5257.000000,3861.000000,44284.000000
1562.000000,5258.000000,3861.000000,44321.000000
1548.000000,5255.000000,3893.000000,44303.000000
1556.000000,5258.000000,3865.000000,44316.000000
1532.000000,5236.000000,3837.000000,44281.000000
1549.000000,5214.000000,3836.000000,44255.000000
1521.000000,5238.000000,3840.000000,44271.000000
1533.000000,5215.000000,3806.000000,44268.000000
1502.000000,5224.000000,3811.000000,44247.000000
1542.000000,5214.000000,3805.000000,44255.000000
1531.000000,5199.000000,3801.000000,44270.000000
1545.000000,5208.000000,3811.000000,44258.000000
1543.000000,5194.000000,3818.000000,44291.000000
1510.000000,5228.000000,3779.000000,44268.000000
1486.000000,5209.000000,3810.000000,44242.000000
1512.000000,5216.000000,3802.000000,44259.000000
1506.000000,5171.000000,3783.000000,44240.000000
1513.000000,5204.000000,3788.000000,44260.000000
1529.000000,5210.000000,3811.000000,44236.000000
1484.000000,5166.000000,3779.000000,44227.000000
1460.000000,5182.000000,3764.000000,44207.000000
1489.000000,5186.000000,3778.000000,44232.000000
1520.000000,5198.000000,3778.000000,44216.000000
1473.000000,5167.000000,3773.000000,44222.000000
1467.000000,5133.000000,3762.000000,44209.000000
1503.000000,5167.000000,3742.000000,44229.000000
1458.000000,5180.000000,3730.000000,44217.000000
1437.000000,5176.000000,3749.000000,44205.000000
1468.000000,5155.000000,3708.000000,44213.000000
1443.000000,5133.000000,3737.000000,44179.000000
1454.000000,5137.000000,3723.000000,44204.000000
1455.000000,5142.000000,3734.000000,44210.000000
1449.000000,5123.000000,3693.000000,44210.000000
1416.000000,5133.000000,3731.000000,44208.000000
1423.000000,5155.000000,3726.000000,44227.000000
1430.000000,5157.000000,3737.000000,44210.000000
1446.000000,5142.000000,3698.000000,44204.000000
1459.000000,5165.000000,3747.000000,44241.000000
1443.000000,5167.000000,3752.000000,44222.000000
1446.000000,5155.000000,3754.000000,44223.000000
1450.000000,5190.000000,3744.000000,44256.000000
1483.000000,5180.000000,3763.000000,44246.000000
1461.000000,5181.000000,3788.000000,44268.000000
1474.000000,5197.000000,3792.000000,44244.000000
1511.000000,5199.000000,3795.000000,44267.000000
1543.000000,5194.000000,3812.000000,44286.000000
1501.000000,5208.000000,3833.000000,44274.000000
1540.000000,5204.000000,3837.000000,44233.000000
1542.000000,5223.000000,3845.000000,44305.000000
1542.000000,5252.000000,3885.000000,44292.000000
1582.000000,5259.000000,3865.000000,44309.000000
1593.000000,5265.000000,3930.000000,44341.000000
1629.000000,5314.000000,3925.000000,44338.000000
1657.000000,5272.000000,3927.000000,44330.000000
1641.000000,5331.000000,3978.000000,44359.000000
1689.000000,5332.000000,3987.000000,44369.000000
1681.000000,5330.000000,4029.000000,44349.000000
1704.000000,5351.000000,4025.000000,44390.000000
1734.000000,5365.000000,4066.000000,44403.000000
1730.000000,5346.000000,4067.000000,44428.000000
1758.000000,5418.000000,4081.000000,44448.000000
1797.000000,5392.000000,4134.000000,44453.000000
1779.000000,5411.000000,4125.000000,44454.000000
1800.000000,5420.000000,4152.000000,44494.000000
1868.000000,5433.000000,4183.000000,44480.000000
1878.000000,5463.000000,4168.000000,44509.000000
1887.000000,5475.000000,4211.000000,44507.000000
1878.000000,5487.000000,4220.000000,44518.000000
1891.000000,5484.000000,4249.000000,44520.000000
1921.000000,5520.000000,4233.000000,44528.000000
1923.000000,5522.000000,4228.000000,44557.000000
1924.000000,5504.000000,4244.000000,44530.000000
1928.000000,5510.000000,4256.000000,44524.000000
1917.000000,5512.000000,4267.000000,44524.000000
1956.000000,5510.000000,4248.000000,44565.000000
1936.000000,5531.000000,4265.000000,44579.000000
1957.000000,5504.000000,4246.000000,44522.000000
1922.000000,5531.000000,4263.000000,44529.000000
1934.000000,5492.000000,4272.000000,44531.000000
1930.000000,5494.000000,4252.000000,44526.000000
1896.000000,5501.000000,4233.000000,44531.000000
1940.000000,5490.000000,4231.000000,44511.000000
1931.000000,5495.000000,4234.000000,44538.000000
1904.000000,5523.000000,4231.000000,44531.000000
1889.000000,5495.000000,4208.000000,44493.000000
1903.000000,5499.000000,4238.000000,44520.000000
1900.000000,5477.000000,4221.000000,44515.000000
1878.000000,5448.000000,4203.000000,44479.000000
1882.000000,5480.000000,4212.000000,44505.000000
1900.000000,5472.000000,4198.000000,44484.000000
1863.000000,5483.000000,4227.000000,44502.000000
1881.000000,5496.000000,4218.000000,44524.000000
1903.000000,5469.000000,4209.000000,44487.000000
1851.000000,5456.000000,4211.000000,44517.000000
1867.000000,5457.000000,4173.000000,44483.000000
1841.000000,5451.000000,4197.000000,44494.000000
1821.000000,5444.000000,4167.000000,44490.000000
1807.000000,5452.000000,4159.000000,44491.000000
1808.000000,5439.000000,4165.000000,44495.000000
1814.000000,5455.000000,4158.000000,44473.000000
1824.000000,5425.000000,4172.000000,44460.000000
1837.000000,5429.000000,4144.000000,44494.000000
1828.000000,5399.000000,4156.000000,44478.000000
1786.000000,5423.000000,4127.000000,44458.000000
1814.000000,5403.000000,4123.000000,44449.000000
1817.000000,5430.000000,4133.000000,44471.000000
1780.000000,5391.000000,4094.000000,44437.000000
1778.000000,5388.000000,4116.000000,44461.000000
1806.000000,5403.000000,4099.000000,44448.000000
1764.000000,5386.000000,4118.000000,44459.000000
1809.000000,5375.000000,4092.000000,44441.000000
1772.000000,5364.000000,4090.000000,44431.000000
1754.000000,5370.000000,4103.000000,44424.000000
1755.000000,5415.000000,4056.000000,44423.000000
1776.000000,5397.000000,4092.000000,44445.000000
1790.000000,5394.000000,4085.000000,44406.000000
1774.000000,5407.000000,4109.000000,44418.000000
1762.000000,5371.000000,4069.000000,44430.000000
1783.000000,5384.000000,4054.000000,44432.000000
1764.000000,5362.000000,4034.000000,44411.000000
1755.000000,5366.000000,4052.000000,44390.000000
1739.000000,5391.000000,4064.000000,44424.000000
1776.000000,5366.000000,4061.000000,44409.000000
1795.000000,5361.000000,4053.000000,44404.000000
1767.000000,5379.000000,4019.000000,44431.000000
1755.000000,5361.000000,4046.000000,44390.000000
1735.000000,5369.000000,4080.000000,44437.000000
1740.000000,5347.000000,4053.000000,44397.000000
1720.000000,5357.000000,4035.000000,44398.000000
1702.000000,5359.000000,4031.000000,44397.000000
1724.000000,5361.000000,4022.000000,44411.000000
1716.000000,5319.000000,4014.000000,44413.000000
1695.000000,5296.000000,4017.000000,44390.000000
1697.000000,5310.000000,3995.000000,44390.000000
1659.000000,5348.000000,4010.000000,44379.000000
1679.000000,5321.000000,3973.000000,44379.000000
1668.000000,5300.000000,3950.000000,44355.000000
1663.000000,5296.000000,3963.000000,44368.000000
1651.000000,5292.000000,3955.000000,44362.000000
1600.000000,5281.000000,3929.000000,44375.000000
1624.000000,5264.000000,3947.000000,44339.000000
1610.000000,5272.000000,3932.000000,44323.000000
1593.000000,5259.000000,3943.000000,44335.000000
1623.000000,5253.000000,3933.000000,44336.000000
1569.000000,5248.000000,3916.000000,44318.000000
1566.000000,5242.000000,3899.000000,44333.000000
1586.000000,5245.000000,3895.000000,44308.000000
1532.000000,5211.000000,3875.000000,44277.000000
1544.000000,5236.000000,3913.000000,44309.000000
1548.000000,5251.000000,3885.000000,44284.000000
1505.000000,5192.000000,3873.000000,44295.000000
1510.000000,5233.000000,3837.000000,44290.000000
1499.000000,5202.000000,3882.000000,44301.000000
1503.000000,5187.000000,3829.000000,44265.000000
1499.000000,5237.000000,3844.000000,44263.000000
1439.000000,5222.000000,3826.000000,44305.000000
1460.000000,5196.000000,3808.000000,44256.000000
1474.000000,5222.000000,3859.000000,44270.000000
1457.000000,5177.000000,3847.000000,44262.000000
1454.000000,5168.000000,3821.000000,44247.000000
1465.000000,5180.000000,3829.000000,44246.000000
1470.000000,5162.000000,3824.000000,44269.000000
1459.000000,5142.000000,3801.000000,44238.000000
1413.000000,5155.000000,3808.000000,44250.000000
1410.000000,5153.000000,3801.000000,44225.000000
1412.000000,5144.000000,3836.000000,44239.000000
1407.000000,5167.000000,3805.000000,44264.000000
1418.000000,5153.000000,3782.000000,44247.000000
1379.000000,5165.000000,3776.000000,44260.000000
1410.000000,5158.000000,3792.000000,44266.000000
1397.000000,5150.000000,3760.000000,44242.000000
1356.000000,5138.000000,3780.000000,44272.000000
1408.000000,5163.000000,3779.000000,44216.000000
1401.000000,5150.000000,3795.000000,44253.000000
1400.000000,5149.000000,3809.000000,44251.000000
1420.000000,5147.000000,3802.000000,44227.000000
1407.000000,5154.000000,3783.000000,44246.000000
1396.000000,5159.000000,3793.000000,44262.000000
1423.000000,5168.000000,3818.000000,44274.000000
1460.000000,5189.000000,3837.000000,44285.000000
1483.000000,5220.000000,3866.000000,44286.000000
1471.000000,5203.000000,3863.000000,44299.000000
1500.000000,5224.000000,3894.000000,44301.000000
1505.000000,5237.000000,3929.000000,44336.000000
1550.000000,5251.000000,3897.000000,44336.000000
1528.000000,5275.000000,3931.000000,44344.000000
1549.000000,5285.000000,3929.000000,44310.000000
1532.000000,5298.000000,3966.000000,44346.000000
1575.000000,5298.000000,3965.000000,44363.000000
1609.000000,5298.000000,3981.000000,44382.000000
1628.000000,5285.000000,4033.000000,44369.000000
1634.000000,5336.000000,4041.000000,44400.000000
1627.000000,5317.000000,4055.000000,44368.000000
1701.000000,5357.000000,4072.000000,44429.000000
1711.000000,5362.000000,4080.000000,44468.000000
1701.000000,5367.000000,4108.000000,44444.000000
1732.000000,5382.000000,4130.000000,44459.000000
1717.000000,5401.000000,4155.000000,44497.000000
1783.000000,5383.000000,4188.000000,44477.000000
1811.000000,5448.000000,4191.000000,44494.000000
1816.000000,5423.000000,4220.000000,44502.000000
1805.000000,5436.000000,4229.000000,44488.000000
1846.000000,5465.000000,4275.000000,44504.000000
1872.000000,5481.000000,4266.000000,44533.000000
1843.000000,5487.000000,4286.000000,44526.000000
1906.000000,5473.000000,4281.000000,44559.000000
1879.000000,5485.000000,4278.000000,44537.000000
1920.000000,5525.000000,4321.000000,44543.000000
1915.000000,5527.000000,4334.000000,44548.000000
1889.000000,5503.000000,4313.000000,44552.000000
1934.000000,5525.000000,4336.000000,44564.000000
1907.000000,5523.000000,4330.000000,44575.000000
1930.000000,5503.000000,4317.000000,44570.000000
1951.000000,5535.000000,4345.000000,44585.000000
1959.000000,5543.000000,4325.000000,44586.000000
1940.000000,5535.000000,4327.000000,44574.000000
1901.000000,5528.000000,4322.000000,44589.000000
1921.000000,5511.000000,4329.000000,44569.000000
1880.000000,5511.000000,4300.000000,44577.000000
1929.000000,5495.000000,4287.000000,44556.000000
1898.000000,5509.000000,4251.000000,44514.000000
1901.000000,5520.000000,4283.000000,44559.000000
1959.000000,5511.000000,4272.000000,44576.000000
1907.000000,5473.000000,4255.000000,44531.000000
1884.000000,5493.000000,4263.000000,44556.000000
1876.000000,5485.000000,4269.000000,44528.000000
1877.000000,5472.000000,4229.000000,44543.000000
1858.000000,5485.000000,4199.000000,44541.000000
1873.000000,5442.000000,4247.000000,44521.000000
1858.000000,5455.000000,4230.000000,44529.000000
1847.000000,5456.000000,4219.000000,44505.000000
1828.000000,5433.000000,4171.000000,44499.000000
1853.000000,5480.000000,4225.000000,44495.000000
1832.000000,5425.000000,4191.000000,44498.000000
1816.000000,5428.000000,4218.000000,44470.000000
1842.000000,5455.000000,4175.000000,44487.000000
1830.000000,5431.000000,4188.000000,44503.000000
1823.000000,5431.000000,4179.000000,44467.000000
1795.000000,5425.000000,4159.000000,44472.000000
1808.000000,5421.000000,4158.000000,44472.000000
1792.000000,5419.000000,4167.000000,44482.000000
1787.000000,5393.000000,4171.000000,44468.000000
1793.000000,5425.000000,4131.000000,44463.000000
1741.000000,5439.000000,4159.000000,44493.000000
1775.000000,5425.000000,4133.000000,44465.000000
1756.000000,5386.000000,4137.000000,44442.000000
1705.000000,5369.000000,4151.000000,44487.000000
1740.000000,5356.000000,4139.000000,44443.000000
1713.000000,5387.000000,4111.000000,44478.000000
1716.000000,5367.000000,4066.000000,44444.000000
1694.000000,5346.000000,4082.000000,44428.000000
1689.000000,5391.000000,4083.000000,44440.000000
1684.000000,5346.000000,4087.000000,44430.000000
1701.000000,5340.000000,4049.000000,44392.000000
1678.000000,5328.000000,4070.000000,44419.000000
1699.000000,5326.000000,4030.000000,44391.000000
1649.000000,5358.000000,4065.000000,44413.000000
1645.000000,5318.000000,4047.000000,44425.000000
1671.000000,5345.000000,4056.000000,44390.000000
1660.000000,5331.000000,4036.000000,44404.000000
1637.000000,5306.000000,4025.000000,44384.000000
1635.000000,5304.000000,4014.000000,44367.000000
1647.000000,5302.000000,4035.000000,44393.000000
1648.000000,5298.000000,4010.000000,44395.000000
1661.000000,5305.000000,4012.000000,44364.000000
1605.000000,5301.000000,3992.000000,44383.000000
1605.000000,5281.000000,3981.000000,44370.000000
1619.000000,5278.000000,3976.000000,44373.000000
1597.000000,5286.000000,3972.000000,44356.000000
1607.000000,5282.000000,4001.000000,44370.000000
1625.000000,5291.000000,3991.000000,44371.000000
1602.000000,5255.000000,3968.000000,44388.000000
1583.000000,5269.000000,3965.000000,44386.000000
1564.000000,5246.000000,3960.000000,44373.000000
1591.000000,5269.000000,3957.000000,44362.000000
1596.000000,5271.000000,3953.000000,44360.000000
1799.000000,5236.000000,3934.000000,44361.000000
1580.000000,5265.000000,3972.000000,44388.000000
1571.000000,5254.000000,3926.000000,44338.000000
1560.000000,5280.000000,3941.000000,44345.000000
1560.000000,5243.000000,3929.000000,44363.000000
1570.000000,5251.000000,3908.000000,44344.000000
1521.000000,5233.000000,3932.000000,44311.000000
1553.000000,5234.000000,3895.000000,44316.000000
1558.000000,5272.000000,3891.000000,44339.000000
1535.000000,5199.000000,3897.000000,44322.000000
1522.000000,5240.000000,3888.000000,44322.000000
1539.000000,5226.000000,3912.000000,44337.000000
1515.000000,5192.000000,3896.000000,44320.000000
1530.000000,5215.000000,3903.000000,44334.000000
1522.000000,5209.000000,3912.000000,44327.000000
1501.000000,5205.000000,3874.000000,44302.000000
1496.000000,5217.000000,3915.000000,44333.000000
1502.000000,5236.000000,3870.000000,44316.000000
1505.000000,5201.000000,3867.000000,44305.000000
1490.000000,5193.000000,3881.000000,44300.000000
1511.000000,5173.000000,3900.000000,44304.000000
1487.000000,5201.000000,3869.000000,44296.000000
1504.000000,5193.000000,3894.000000,44315.000000
1454.000000,5176.000000,3867.000000,44300.000000
1459.000000,5205.000000,3888.000000,44313.000000
1475.000000,5176.000000,3838.000000,44300.000000
1459.000000,5146.000000,3849.000000,44290.000000
1531.000000,5198.000000,3859.000000,44277.000000
1467.000000,5163.000000,3845.000000,44280.000000
1453.000000,5134.000000,3850.000000,44285.000000
1455.000000,5154.000000,3822.000000,44260.000000
1457.000000,5200.000000,3844.000000,44307.000000
1463.000000,5192.000000,3905.000000,44312.000000
1483.000000,5195.000000,3901.000000,44302.000000
1476.000000,5208.000000,3852.000000,44295.000000
1489.000000,5215.000000,3885.000000,44335.000000
1487.000000,5210.000000,3908.000000,44346.000000
1526.000000,5230.000000,3907.000000,44332.000000
1510.000000,5215.000000,3919.000000,44347.000000
1571.000000,5222.000000,3930.000000,44351.000000
1550.000000,5258.000000,3952.000000,44347.000000
1547.000000,5275.000000,3923.000000,44407.000000
1585.000000,5293.000000,3999.000000,44382.000000
1606.000000,5309.000000,3988.000000,44411.000000
1608.000000,5294.000000,4020.000000,44403.000000
1672.000000,5341.000000,4058.000000,44397.000000
1651.000000,5321.000000,4036.000000,44411.000000
1697.000000,5352.000000,4070.000000,44396.000000
1696.000000,5365.000000,4101.000000,44417.000000
1719.000000,5401.000000,4150.000000,44443.000000
1731.000000,5362.000000,4147.000000,44482.000000
1748.000000,5399.000000,4195.000000,44480.000000
1775.000000,5420.000000,4231.000000,44530.000000
1834.000000,5443.000000,4239.000000,44535.000000
1796.000000,5457.000000,4268.000000,44515.000000
1829.000000,5471.000000,4225.000000,44528.000000
1876.000000,5469.000000,4291.000000,44546.000000
1854.000000,5479.000000,4289.000000,44549.000000
1897.000000,5512.000000,4316.000000,44578.000000
1922.000000,5525.000000,4357.000000,44595.000000
1943.000000,5507.000000,4364.000000,44617.000000
1994.000000,5566.000000,4395.000000,44630.000000
1958.000000,5536.000000,4432.000000,44631.000000
2023.000000,5564.000000,4446.000000,44670.000000
2030.000000,5609.000000,4443.000000,44660.000000
2004.000000,5602.000000,4451.000000,44689.000000
2066.000000,5608.000000,4507.000000,44652.000000
2080.000000,5625.000000,4511.000000,44689.000000
2093.000000,5637.000000,4492.000000,44699.000000
2123.000000,5650.000000,4537.000000,44713.000000
2088.000000,5623.000000,4560.000000,44714.000000
2097.000000,5646.000000,4524.000000,44721.000000
2135.000000,5647.000000,4542.000000,44695.000000
2097.000000,5660.000000,4534.000000,44706.000000
2096.000000,5623.000000,4532.000000,44721.000000
2109.000000,5659.000000,4543.000000,44746.000000
2128.000000,5650.000000,4548.000000,44716.000000
2112.000000,5685.000000,4557.000000,44710.000000
2107.000000,5656.000000,4534.000000,44732.000000
2106.000000,5640.000000,4517.000000,44721.000000
2122.000000,5621.000000,4546.000000,44724.000000
2117.000000,5638.000000,4522.000000,44706.000000
2118.000000,5656.000000,4489.000000,44687.000000
2096.000000,5672.000000,4515.000000,44682.000000
2125.000000,5621.000000,4507.000000,44687.000000
2103.000000,5622.000000,4489.000000,44674.000000
2072.000000,5632.000000,4482.000000,44683.000000
2084.000000,5607.000000,4488.000000,44669.000000
2068.000000,5602.000000,4482.000000,44671.000000
2077.000000,5631.000000,4480.000000,44680.000000
2091.000000,5608.000000,4492.000000,44648.000000
2043.000000,5611.000000,4450.000000,44672.000000
2055.000000,5612.000000,4464.000000,44649.000000
2051.000000,5602.000000,4431.000000,44653.000000
2056.000000,5614.000000,4441.000000,44677.000000
2035.000000,5594.000000,4430.000000,44654.000000
2036.000000,5568.000000,4431.000000,44610.000000
2044.000000,5592.000000,4452.000000,44652.000000
2055.000000,5567.000000,4431.000000,44643.000000
2043.000000,5581.000000,4434.000000,44653.000000
2022.000000,5603.000000,4445.000000,44636.000000
2028.000000,5592.000000,4404.000000,44644.000000
1997.000000,5555.000000,4380.000000,44598.000000
2014.000000,5560.000000,4401.000000,44628.000000
2004.000000,5575.000000,4401.000000,44624.000000
2003.000000,5522.000000,4381.000000,44623.000000
2031.000000,5557.000000,4398.000000,44608.000000
2000.000000,5574.000000,4393.000000,44605.000000
1999.000000,5539.000000,4365.000000,44604.000000
2006.000000,5538.000000,4390.000000,44626.000000
1970.000000,5553.000000,4378.000000,44633.000000
1991.000000,5573.000000,4389.000000,44600.000000
1967.000000,5567.000000,4385.000000,44641.000000
1969.000000,5552.000000,4343.000000,44600.000000
1950.000000,5519.000000,4366.000000,44601.000000
1955.000000,5508.000000,4358.000000,44585.000000
1943.000000,5497.000000,4324.000000,44594.000000
1948.000000,5521.000000,4331.000000,44577.000000
1930.000000,5513.000000,4325.000000,44585.000000
1928.000000,5503.000000,4299.000000,44591.000000
1938.000000,5501.000000,4316.000000,44578.000000
1893.000000,5504.000000,4323.000000,44578.000000
1904.000000,5494.000000,4304.000000,44565.000000
1898.000000,5495.000000,4314.000000,44552.000000
1875.000000,5496.000000,4271.000000,44536.000000
1881.000000,5489.000000,4316.000000,44545.000000
1867.000000,5482.000000,4257.000000,44552.000000
1872.000000,5467.000000,4274.000000,44512.000000
1894.000000,5466.000000,4270.000000,44525.000000
1857.000000,5464.000000,4272.000000,44549.000000
1842.000000,5465.000000,4255.000000,44533.000000
1845.000000,5473.000000,4242.000000,44521.000000
1841.000000,5477.000000,4255.000000,44557.000000
1855.000000,5461.000000,4284.000000,44548.000000
1807.000000,5433.000000,4242.000000,44533.000000
1838.000000,5439.000000,4234.000000,44538.000000
1821.000000,5463.000000,4221.000000,44537.000000
1802.000000,5407.000000,4225.000000,44511.000000
1839.000000,5439.000000,4234.000000,44515.000000
1831.000000,5413.000000,4230.000000,44510.000000
1797.000000,5419.000000,4204.000000,44539.000000
1820.000000,5427.000000,4215.000000,44527.000000
1759.000000,5374.000000,4200.000000,44502.000000
1797.000000,5417.000000,4192.000000,44517.000000
1773.000000,5415.000000,4181.000000,44496.000000
1776.000000,5359.000000,4145.000000,44497.000000
1763.000000,5391.000000,4154.000000,44467.000000
1738.000000,5405.000000,4185.000000,44479.000000
1758.000000,5402.000000,4148.000000,44481.000000
1748.000000,5391.000000,4186.000000,44504.000000
1728.000000,5350.000000,4145.000000,44452.000000
1747.000000,5393.000000,4146.000000,44454.000000
1716.000000,5362.000000,4127.000000,44472.000000
1724.000000,5388.000000,4149.000000,44477.000000
1685.000000,5341.000000,4125.000000,44465.000000
1708.000000,5345.000000,4128.000000,44458.000000
1706.000000,5322.000000,4119.000000,44496.000000
1671.000000,5320.000000,4126.000000,44480.000000
1707.000000,5345.000000,4110.000000,44453.000000
1713.000000,5354.000000,4150.000000,44471.000000
1673.000000,5363.000000,4120.000000,44473.000000
1686.000000,5322.000000,4094.000000,44434.000000
1671.000000,5330.000000,4130.000000,44431.000000
1668.000000,5329.000000,4126.000000,44485.000000
1649.000000,5336.000000,4106.000000,44448.000000
1667.000000,5324.000000,4106.000000,44468.000000
1672.000000,5318.000000,4136.000000,44450.000000
1686.000000,5327.000000,4105.000000,44463.000000
1697.000000,5339.000000,4105.000000,44458.000000
1700.000000,5357.000000,4127.000000,44477.000000
1722.000000,5350.000000,4133.000000,44451.000000
1766.000000,5374.000000,4167.000000,44459.000000
1959.000000,5345.000000,4154.000000,44481.000000
1786.000000,5407.000000,4179.000000,44479.000000
1800.000000,5394.000000,4196.000000,44497.000000
1767.000000,5379.000000,4189.000000,44504.000000
1817.000000,5411.000000,4236.000000,44526.000000
1875.000000,5470.000000,4239.000000,44562.000000
1838.000000,5449.000000,4247.000000,44547.000000
1910.000000,5475.000000,4295.000000,44575.000000
1880.000000,5480.000000,4306.000000,44605.000000
1864.000000,5461.000000,4292.000000,44569.000000
1900.000000,5491.000000,4349.000000,44589.000000
1934.000000,5508.000000,4374.000000,44595.000000
1937.000000,5512.000000,4373.000000,44613.000000
1941.000000,5532.000000,4380.000000,44611.000000
1970.000000,5536.000000,4397.000000,44639.000000
1998.000000,5564.000000,4394.000000,44625.000000
2009.000000,5573.000000,4478.000000,44679.000000
2025.000000,5536.000000,4439.000000,44652.000000
2074.000000,5600.000000,4492.000000,44657.000000
2063.000000,5573.000000,4494.000000,44679.000000
2093.000000,5642.000000,4506.000000,44684.000000
2116.000000,5631.000000,4537.000000,44749.000000
2152.000000,5625.000000,4554.000000,44702.000000
2150.000000,5658.000000,4565.000000,44732.000000
2193.000000,5675.000000,4599.000000,44764.000000
2221.000000,5957.000000,4630.000000,44762.000000
2217.000000,5704.000000,4650.000000,44752.000000
2207.000000,5742.000000,4686.000000,44804.000000
2272.000000,5733.000000,4664.000000,44802.000000
2261.000000,5737.000000,4703.000000,44809.000000
2286.000000,5778.000000,4692.000000,44813.000000
2278.000000,5762.000000,4690.000000,44834.000000
2289.000000,5770.000000,4717.000000,44827.000000
2298.000000,5767.000000,4714.000000,44799.000000
2281.000000,5770.000000,4718.000000,44798.000000
2299.000000,5737.000000,4705.000000,44816.000000
2268.000000,5782.000000,4702.000000,44805.000000
2243.000000,5764.000000,4694.000000,44847.000000
2260.000000,5749.000000,4676.000000,44829.000000
2270.000000,5737.000000,4687.000000,44800.000000
2275.000000,5736.000000,4685.000000,44811.000000
2252.000000,5752.000000,4697.000000,44806.000000
2238.000000,5707.000000,4663.000000,44775.000000
2253.000000,5729.000000,4644.000000,44782.000000
2233.000000,5720.000000,4652.000000,44780.000000
2256.000000,5688.000000,4648.000000,44788.000000
2223.000000,5763.000000,4628.000000,44750.000000
2227.000000,5694.000000,4606.000000,44763.000000
2212.000000,5705.000000,4611.000000,44750.000000
2197.000000,5686.000000,4620.000000,44759.000000
2185.000000,5679.000000,4592.000000,44760.000000
2179.000000,5721.000000,4627.000000,44760.000000
2200.000000,5686.000000,4630.000000,44759.000000
2163.000000,5660.000000,4600.000000,44765.000000
2167.000000,5683.000000,4621.000000,44765.000000
2160.000000,5712.000000,4606.000000,44752.000000
2169.000000,5663.000000,4601.000000,44755.000000
2124.000000,5683.000000,4575.000000,44776.000000
2153.000000,5677.000000,4570.000000,44770.000000
2123.000000,5662.000000,4584.000000,44759.000000
2151.000000,5611.000000,4579.000000,44757.000000
2137.000000,5647.000000,4574.000000,44725.000000
2094.000000,5605.000000,4535.000000,44722.000000
2106.000000,5646.000000,4540.000000,44712.000000
2145.000000,5644.000000,4564.000000,44708.000000
2117.000000,5624.000000,4544.000000,44727.000000
2128.000000,5648.000000,4540.000000,44702.000000
2106.000000,5613.000000,4520.000000,44702.000000
2072.000000,5605.000000,4515.000000,44718.000000
2110.000000,5603.000000,4498.000000,44695.000000
2081.000000,5609.000000,4514.000000,44680.000000
2066.000000,5597.000000,4496.000000,44676.000000
2058.000000,5623.000000,4484.000000,44701.000000
2016.000000,5591.000000,4487.000000,44679.000000
2039.000000,5576.000000,4457.000000,44697.000000
2048.000000,5581.000000,4483.000000,44702.000000
2046.000000,5568.000000,4444.000000,44648.000000
2051.000000,5548.000000,4444.000000,44660.000000
2020.000000,5575.000000,4434.000000,44657.000000
2018.000000,5562.000000,4436.000000,44654.000000
2002.000000,5559.000000,4459.000000,44663.000000
2009.000000,5564.000000,4455.000000,44631.000000
2047.000000,5563.000000,4419.000000,44631.000000
2006.000000,5525.000000,4366.000000,44648.000000
1992.000000,5525.000000,4414.000000,44637.000000
1988.000000,5553.000000,4389.000000,44607.000000
1954.000000,5499.000000,4393.000000,44591.000000
1961.000000,5503.000000,4364.000000,44592.000000
1966.000000,5515.000000,4382.000000,44613.000000
1949.000000,5490.000000,4369.000000,44579.000000
1962.000000,5516.000000,4366.000000,44615.000000
1973.000000,5521.000000,4359.000000,44605.000000
1969.000000,5497.000000,4383.000000,44608.000000
1966.000000,5515.000000,4379.000000,44612.000000
1957.000000,5521.000000,4350.000000,44605.000000
1966.000000,5497.000000,4346.000000,44607.000000
1934.000000,5512.000000,4333.000000,44614.000000
1950.000000,5505.000000,4335.000000,44593.000000
1926.000000,5493.000000,4343.000000,44601.000000
1921.000000,5493.000000,4323.000000,44602.000000
1923.000000,5483.000000,4326.000000,44593.000000
1923.000000,5472.000000,4321.000000,44613.000000
1891.000000,5457.000000,4307.000000,44573.000000
1894.000000,5500.000000,4312.000000,44577.000000
1896.000000,5469.000000,4297.000000,44567.000000
1905.000000,5447.000000,4276.000000,44566.000000
1906.000000,5479.000000,4336.000000,44575.000000
1889.000000,5479.000000,4263.000000,44558.000000
1898.000000,5452.000000,4298.000000,44585.000000
1879.000000,5415.000000,4280.000000,44599.000000
1917.000000,5431.000000,4308.000000,44572.000000
1885.000000,5459.000000,4278.000000,44549.000000
1871.000000,5466.000000,4280.000000,44566.000000
1867.000000,5439.000000,4225.000000,44571.000000
1864.000000,5456.000000,4258.000000,44558.000000
1845.000000,5443.000000,4270.000000,44571.000000
1860.000000,5391.000000,4235.000000,44562.000000
1873.000000,5459.000000,4231.000000,44540.000000
1824.000000,5439.000000,4250.000000,44560.000000
1819.000000,5427.000000,4246.000000,44530.000000
1839.000000,5433.000000,4249.000000,44560.000000
1836.000000,5386.000000,4214.000000,44552.000000
1816.000000,5399.000000,4225.000000,44521.000000
1807.000000,5394.000000,4219.000000,44533.000000
1841.000000,5435.000000,4196.000000,44524.000000
1837.000000,5383.000000,4211.000000,44543.000000
1812.000000,5390.000000,4198.000000,44506.000000
1796.000000,5381.000000,4217.000000,44527.000000
1803.000000,5421.000000,4226.000000,44509.000000
1818.000000,5409.000000,4264.000000,44535.000000
1816.000000,5413.000000,4253.000000,44536.000000
1842.000000,5402.000000,4251.000000,44542.000000
1834.000000,5423.000000,4278.000000,44564.000000
1856.000000,5434.000000,4266.000000,44547.000000
1876.000000,5467.000000,4280.000000,44557.000000
1863.000000,5443.000000,4293.000000,44599.000000
1905.000000,5452.000000,4301.000000,44579.000000
1912.000000,5463.000000,4318.000000,44589.000000
1901.000000,5483.000000,4311.000000,44609.000000
1924.000000,5489.000000,4372.000000,44605.000000
1934.000000,5510.000000,4378.000000,44623.000000
1998.000000,5530.000000,4360.000000,44635.000000
1953.000000,5504.000000,4372.000000,44627.000000
1976.000000,5569.000000,4405.000000,44629.000000
2008.000000,5548.000000,4436.000000,44654.000000
2040.000000,5589.000000,4445.000000,44714.000000
2068.000000,5599.000000,4508.000000,44671.000000
2077.000000,5593.000000,4501.000000,44702.000000
2075.000000,5632.000000,4502.000000,44711.000000
2113.000000,5594.000000,4547.000000,44721.000000
2135.000000,5602.000000,4569.000000,44731.000000
2152.000000,5644.000000,4576.000000,44743.000000
2200.000000,5660.000000,4606.000000,44731.000000
2197.000000,5684.000000,4589.000000,44778.000000
2226.000000,5644.000000,4632.000000,44766.000000
2224.000000,5708.000000,4661.000000,44794.000000
2214.000000,5681.000000,4639.000000,44792.000000
2273.000000,5713.000000,4688.000000,44791.000000
2290.000000,5731.000000,4684.000000,44845.000000
2301.000000,5738.000000,4710.000000,44819.000000
2312.000000,5724.000000,4731.000000,44850.000000
2316.000000,5760.000000,4772.000000,44876.000000
2315.000000,5761.000000,4783.000000,44839.000000
2362.000000,5795.000000,4769.000000,44885.000000
2363.000000,5793.000000,4810.000000,44886.000000
2356.000000,5797.000000,4822.000000,44872.000000
2356.000000,5787.000000,4772.000000,44857.000000
2335.000000,5800.000000,4796.000000,44884.000000
2354.000000,5812.000000,4793.000000,44917.000000
2366.000000,5797.000000,4816.000000,44890.000000
2350.000000,5790.000000,4790.000000,44866.000000
2382.000000,5772.000000,4780.000000,44911.000000
2322.000000,5765.000000,4803.000000,44880.000000
2327.000000,5797.000000,4780.000000,44902.000000
2331.000000,5802.000000,4784.000000,44849.000000
2299.000000,5744.000000,4780.000000,44838.000000
2313.000000,5769.000000,4767.000000,44886.000000
2304.000000,5760.000000,4784.000000,44846.000000
2315.000000,5751.000000,4791.000000,44850.000000
2281.000000,5792.000000,4767.000000,44855.000000
2313.000000,5772.000000,4758.000000,44850.000000
2303.000000,5754.000000,4751.000000,44835.000000
2275.000000,5777.000000,4778.000000,44823.000000
2274.000000,5765.000000,4744.000000,44844.000000
2269.000000,5725.000000,4723.000000,44827.000000
2282.000000,5751.000000,4742.000000,44860.000000
2244.000000,5769.000000,4702.000000,44823.000000
2277.000000,5743.000000,4747.000000,44827.000000
2263.000000,5747.000000,4730.000000,44821.000000
2254.000000,5701.000000,4734.000000,44835.000000
2277.000000,5748.000000,4713.000000,44832.000000
2246.000000,5683.000000,4704.000000,44825.000000
2244.000000,5713.000000,4699.000000,44818.000000
2252.000000,5751.000000,4723.000000,44829.000000
2252.000000,5740.000000,4718.000000,44843.000000
2254.000000,5741.000000,4698.000000,44801.000000
2243.000000,5707.000000,4706.000000,44791.000000
2253.000000,5721.000000,4698.000000,44809.000000
2224.000000,5711.000000,4698.000000,44827.000000
2241.000000,5712.000000,4680.000000,44809.000000
2238.000000,5703.000000,4646.000000,44850.000000
2222.000000,5678.000000,4661.000000,44764.000000
2227.000000,5720.000000,4685.000000,44786.000000
2200.000000,5696.000000,4674.000000,44773.000000
2173.000000,5670.000000,4651.000000,44775.000000
2250.000000,5680.000000,4653.000000,44789.000000
2206.000000,5652.000000,4579.000000,44755.000000
2157.000000,5667.000000,4636.000000,44766.000000
2177.000000,5677.000000,4642.000000,44761.000000
2167.000000,5652.000000,4604.000000,44762.000000
2154.000000,5682.000000,4616.000000,44775.000000
2171.000000,5678.000000,4621.000000,44768.000000
2139.000000,5652.000000,4612.000000,44734.000000
2163.000000,5661.000000,4580.000000,44725.000000
2145.000000,5668.000000,4628.000000,44726.000000
2141.000000,5634.000000,4612.000000,44741.000000
2105.000000,5622.000000,4614.000000,44745.000000
2137.000000,5624.000000,4575.000000,44727.000000
2118.000000,5643.000000,4578.000000,44736.000000
2072.000000,5656.000000,4574.000000,44738.000000
2092.000000,5602.000000,4571.000000,44707.000000
2072.000000,5620.000000,4561.000000,44722.000000
2095.000000,5632.000000,4562.000000,44742.000000
2078.000000,5615.000000,4533.000000,44721.000000
2079.000000,5595.000000,4561.000000,44737.000000
2090.000000,5607.000000,4560.000000,44734.000000
2028.000000,5615.000000,4566.000000,44718.000000
2061.000000,5595.000000,4542.000000,44741.000000
2084.000000,5604.000000,4530.000000,44710.000000
2047.000000,5608.000000,4516.000000,44700.000000
2027.000000,5587.000000,4514.000000,44713.000000
2036.000000,5591.000000,4499.000000,44698.000000
2026.000000,5597.000000,4517.000000,44691.000000
2030.000000,5601.000000,4512.000000,44718.000000
2025.000000,5601.000000,4502.000000,44676.000000
2016.000000,5571.000000,4533.000000,44686.000000
2011.000000,5564.000000,4496.000000,44706.000000
2042.000000,5581.000000,4525.000000,44678.000000
1994.000000,5553.000000,4479.000000,44696.000000
2045.000000,5553.000000,4490.000000,44694.000000
2001.000000,5543.000000,4507.000000,44687.000000
1976.000000,5548.000000,4488.000000,44673.000000
2012.000000,5543.000000,4503.000000,44710.000000
2012.000000,5532.000000,4455.000000,44680.000000
1974.000000,5543.000000,4489.000000,44688.000000
2002.000000,5539.000000,4471.000000,44675.000000
1974.000000,5509.000000,4468.000000,44656.000000
1996.000000,5545.000000,4472.000000,44668.000000
1965.000000,5562.000000,4482.000000,44690.000000
1954.000000,5503.000000,4452.000000,44663.000000
1971.000000,5554.000000,4440.000000,44658.000000
1986.000000,5540.000000,4450.000000,44641.000000
1943.000000,5498.000000,4426.000000,44643.000000
1912.000000,5516.000000,4413.000000,44676.000000
1950.000000,5512.000000,4433.000000,44655.000000
1947.000000,5554.000000,4437.000000,44666.000000
1938.000000,5513.000000,4454.000000,44656.000000
1966.000000,5523.000000,4448.000000,44657.000000
1949.000000,5503.000000,4409.000000,44659.000000
1946.000000,5507.000000,4457.000000,44685.000000
1943.000000,5512.000000,4426.000000,44663.000000
1965.000000,5551.000000,4445.000000,44679.000000
1928.000000,5511.000000,4453.000000,44675.000000
1971.000000,5496.000000,4418.000000,44645.000000
1965.000000,5531.000000,4467.000000,44691.000000
1956.000000,5537.000000,4483.000000,44676.000000
1989.000000,5551.000000,4498.000000,44655.000000
2012.000000,5559.000000,4498.000000,44699.000000
2013.000000,5583.000000,4504.000000,44689.000000
2005.000000,5569.000000,4538.000000,44699.000000
2036.000000,5584.000000,4513.000000,44712.000000
2047.000000,5594.000000,4566.000000,44703.000000
2092.000000,5625.000000,4598.000000,44750.000000
2077.000000,5604.000000,4591.000000,44727.000000
2094.000000,5622.000000,4625.000000,44741.000000
2126.000000,5635.000000,4626.000000,44794.000000
2109.000000,5627.000000,4629.000000,44755.000000
2140.000000,5671.000000,4657.000000,44787.000000
2157.000000,5652.000000,4690.000000,44790.000000
2168.000000,5667.000000,4698.000000,44780.000000
2194.000000,5681.000000,4705.000000,44800.000000
2206.000000,5711.000000,4718.000000,44839.000000
2185.000000,5728.000000,4734.000000,44841.000000
2246.000000,5721.000000,4757.000000,44861.000000
2240.000000,5755.000000,4777.000000,44844.000000
2261.000000,5738.000000,4782.000000,44870.000000
2264.000000,5744.000000,4799.000000,44880.000000
2291.000000,5740.000000,4792.000000,44860.000000
2290.000000,5762.000000,4843.000000,44924.000000
2305.000000,5786.000000,4811.000000,44897.000000
2335.000000,5788.000000,4837.000000,44893.000000
2335.000000,5787.000000,4844.000000,44935.000000
2352.000000,5790.000000,4862.000000,44907.000000
2382.000000,5818.000000,4877.000000,44952.000000
2415.000000,5859.000000,4908.000000,44933.000000
2396.000000,5861.000000,4923.000000,44968.000000
2435.000000,5871.000000,4959.000000,44950.000000
2476.000000,5883.000000,4941.000000,44995.000000
2471.000000,5858.000000,4961.000000,44998.000000
2477.000000,5881.000000,4982.000000,44985.000000
2489.000000,5897.000000,5008.000000,44986.000000
2464.000000,5889.000000,5000.000000,44988.000000
2501.000000,5879.000000,5001.000000,45012.000000
2466.000000,5886.000000,5005.000000,45032.000000
2502.000000,5895.000000,5009.000000,45006.000000
2496.000000,5899.000000,4996.000000,45012.000000
2476.000000,5901.000000,4978.000000,44988.000000
2479.000000,5907.000000,4991.000000,44986.000000
2461.000000,5883.000000,5002.000000,45013.000000
2450.000000,5899.000000,4962.000000,45027.000000
2462.000000,5886.000000,4971.000000,44980.000000
2442.000000,5891.000000,4977.000000,44967.000000
2432.000000,5876.000000,4977.000000,44955.000000
2442.000000,5892.000000,4948.000000,44964.000000
2399.000000,5851.000000,4973.000000,44965.000000
2439.000000,5818.000000,4936.000000,44951.000000
2449.000000,5868.000000,4949.000000,44965.000000
2438.000000,5856.000000,4950.000000,44959.000000
2402.000000,5865.000000,4945.000000,44953.000000
2424.000000,5831.000000,4950.000000,44953.000000
2383.000000,5852.000000,4954.000000,44968.000000
2410.000000,5840.000000,4915.000000,44941.000000
2388.000000,5846.000000,4972.000000,44981.000000
2391.000000,5831.000000,4921.000000,44960.000000
2399.000000,5831.000000,4909.000000,44938.000000
2411.000000,5828.000000,4923.000000,44939.000000
2385.000000,5847.000000,4913.000000,44960.000000
2373.000000,5834.000000,4906.000000,44939.000000
2361.000000,5823.000000,4908.000000,44933.000000
2359.000000,5820.000000,4877.000000,44926.000000
2368.000000,5808.000000,4894.000000,44938.000000
2356.000000,5813.000000,4862.000000,44915.000000
2409.000000,5804.000000,4878.000000,44927.000000
2369.000000,5851.000000,4882.000000,44916.000000
2340.000000,5800.000000,4888.000000,44953.000000
2346.000000,5813.000000,4893.000000,44909.000000
2346.000000,5827.000000,4822.000000,44922.000000
2335.000000,5796.000000,4849.000000,44907.000000
2357.000000,5793.000000,4870.000000,44904.000000
2330.000000,5765.000000,4853.000000,44918.000000
2305.000000,5794.000000,4830.000000,44885.000000
2314.000000,5765.000000,4812.000000,44900.000000
2330.000000,5779.000000,4826.000000,44902.000000
2284.000000,5771.000000,4825.000000,44894.000000
2277.000000,5760.000000,4834.000000,44924.000000
2283.000000,5773.000000,4817.000000,44899.000000
2282.000000,5784.000000,4843.000000,44891.000000
2243.000000,5784.000000,4799.000000,44874.000000
2292.000000,5766.000000,4808.000000,44871.000000
2281.000000,5749.000000,4780.000000,44867.000000
2288.000000,5766.000000,4786.000000,44885.000000
2272.000000,5752.000000,4789.000000,44896.000000
2260.000000,5737.000000,4780.000000,44850.000000
2258.000000,5746.000000,4793.000000,44851.000000
2242.000000,5721.000000,4766.000000,44844.000000
2245.000000,5735.000000,4740.000000,44835.000000
2238.000000,5693.000000,4733.000000,44832.000000
2239.000000,5698.000000,4743.000000,44837.000000
2204.000000,5705.000000,4747.000000,44844.000000
2189.000000,5712.000000,4722.000000,44848.000000
2203.000000,5698.000000,4755.000000,44829.000000
2213.000000,5716.000000,4722.000000,44819.000000
2196.000000,5692.000000,4753.000000,44823.000000
2201.000000,5675.000000,4720.000000,44803.000000
2215.000000,5685.000000,4724.000000,44811.000000
2201.000000,5705.000000,4706.000000,44803.000000
2164.000000,5653.000000,4691.000000,44816.000000
2140.000000,5693.000000,4692.000000,44823.000000
2157.000000,5654.000000,4720.000000,44827.000000
2189.000000,5661.000000,4683.000000,44826.000000
2161.000000,5681.000000,4672.000000,44829.000000
2176.000000,5673.000000,4702.000000,44801.000000
2168.000000,5693.000000,4692.000000,44821.000000
2156.000000,5671.000000,4691.000000,44824.000000
2148.000000,5656.000000,4675.000000,44804.000000
2124.000000,5658.000000,4686.000000,44820.000000
2206.000000,5675.000000,4686.000000,44806.000000
2132.000000,5669.000000,4678.000000,44803.000000
2153.000000,5673.000000,4695.000000,44794.000000
2106.000000,5686.000000,4673.000000,44817.000000
2109.000000,5661.000000,4674.000000,44805.000000
2121.000000,5648.000000,4675.000000,44784.000000
2105.000000,5603.000000,4652.000000,44811.000000
2130.000000,5643.000000,4680.000000,44825.000000
2089.000000,5618.000000,4652.000000,44790.000000
2104.000000,5620.000000,4624.000000,44794.000000
2084.000000,5629.000000,4663.000000,44804.000000
2092.000000,5656.000000,4659.000000,44765.000000
2092.000000,5580.000000,4661.000000,44786.000000
2089.000000,5656.000000,4635.000000,44781.000000
2064.000000,5619.000000,4647.000000,44773.000000
2076.000000,5606.000000,4643.000000,44777.000000
2045.000000,5649.000000,4630.000000,44774.000000
2041.000000,5576.000000,4615.000000,44757.000000
2052.000000,5594.000000,4642.000000,44798.000000
2083.000000,5607.000000,4643.000000,44791.000000
2062.000000,5623.000000,4652.000000,44772.000000
2060.000000,5643.000000,4672.000000,44794.000000
2043.000000,5599.000000,4654.000000,44786.000000
2077.000000,5589.000000,4673.000000,44761.000000
2110.000000,5645.000000,4684.000000,44811.000000
2077.000000,5637.000000,4666.000000,44814.000000
2076.000000,5642.000000,4674.000000,44798.000000
2111.000000,5662.000000,4726.000000,44813.000000
2127.000000,5662.000000,4719.000000,44808.000000
2145.000000,5660.000000,4730.000000,44806.000000
2116.000000,5681.000000,4749.000000,44846.000000
2173.000000,5697.000000,4735.000000,44839.000000
2178.000000,5697.000000,4781.000000,44849.000000
2195.000000,5693.000000,4774.000000,44873.000000
2208.000000,5706.000000,4810.000000,44860.000000
2219.000000,5734.000000,4822.000000,44869.000000
2219.000000,5741.000000,4801.000000,44894.000000
2264.000000,5735.000000,4832.000000,44880.000000
2265.000000,5747.000000,4859.000000,44932.000000
2273.000000,5790.000000,4836.000000,44923.000000
2269.000000,5756.000000,4878.000000,44918.000000
2290.000000,5771.000000,4881.000000,44954.000000
2305.000000,5787.000000,4879.000000,44915.000000
2321.000000,5792.000000,4924.000000,44961.000000
2337.000000,5789.000000,4920.000000,44980.000000
2334.000000,5781.000000,4921.000000,44971.000000
2361.000000,5844.000000,4932.000000,44959.000000
2351.000000,5842.000000,4929.000000,44972.000000
2376.000000,5872.000000,4975.000000,44997.000000
2406.000000,5872.000000,5001.000000,44980.000000
2417.000000,5877.000000,4973.000000,44973.000000
2430.000000,5868.000000,5018.000000,45004.000000
2462.000000,5885.000000,5062.000000,45012.000000
2455.000000,5904.000000,5049.000000,45026.000000
2494.000000,5939.000000,5066.000000,45034.000000
2504.000000,5940.000000,5109.000000,45066.000000
2515.000000,5933.000000,5090.000000,45044.000000
2491.000000,5895.000000,5102.000000,45058.000000
2524.000000,5933.000000,5096.000000,45086.000000
2519.000000,5930.000000,5108.000000,45050.000000
2541.000000,5895.000000,5142.000000,45064.000000
2527.000000,5949.000000,5108.000000,45094.000000
2527.000000,5948.000000,5111.000000,45067.000000
2529.000000,5933.000000,5095.000000,45055.000000
2541.000000,5935.000000,5083.000000,45042.000000
2557.000000,5955.000000,5077.000000,45052.000000
2536.000000,5940.000000,5098.000000,45050.000000
2529.000000,5939.000000,5068.000000,45044.000000
2568.000000,5937.000000,5101.000000,45035.000000
2565.000000,5949.000000,5122.000000,45047.000000
2517.000000,5941.000000,5054.000000,45051.000000
2537.000000,5889.000000,5083.000000,45073.000000
2555.000000,5919.000000,5063.000000,45058.000000
2536.000000,5925.000000,5080.000000,45053.000000
2535.000000,5893.000000,5067.000000,45031.000000
2547.000000,5920.000000,5069.000000,45053.000000
2530.000000,5945.000000,5072.000000,45018.000000
2545.000000,5961.000000,5076.000000,45040.000000
2535.000000,5914.000000,5052.000000,45035.000000
2555.000000,5930.000000,5049.000000,45047.000000
2503.000000,5901.000000,5034.000000,45034.000000
2531.000000,5915.000000,5039.000000,45017.000000
2519.000000,5907.000000,5038.000000,45026.000000
2538.000000,5913.000000,5027.000000,45051.000000
2519.000000,5912.000000,5030.000000,45030.000000
2512.000000,5853.000000,5019.000000,45021.000000
2525.000000,5953.000000,4994.000000,45040.000000
2493.000000,5907.000000,5039.000000,45041.000000
2489.000000,5883.000000,5009.000000,45018.000000
2491.000000,5882.000000,5031.000000,45041.000000
2518.000000,5885.000000,5017.000000,45016.000000
2506.000000,5842.000000,4980.000000,45013.000000
2498.000000,5887.000000,4981.000000,44999.000000
2513.000000,5826.000000,4993.000000,44971.000000
2463.000000,5885.000000,4961.000000,44998.000000
2498.000000,5854.000000,4989.000000,44964.000000
2491.000000,5877.000000,4979.000000,44998.000000
2510.000000,5887.000000,4963.000000,44991.000000
2461.000000,5874.000000,4962.000000,44979.000000
2487.000000,5858.000000,4950.000000,44987.000000
2502.000000,5857.000000,4956.000000,44975.000000
2475.000000,5843.000000,4971.000000,44970.000000
2460.000000,5840.000000,4958.000000,44993.000000
2466.000000,5807.000000,4925.000000,44992.000000
2465.000000,5852.000000,4908.000000,44963.000000
2476.000000,5834.000000,4912.000000,44976.000000
2470.000000,5810.000000,4944.000000,44956.000000
2463.000000,5803.000000,4916.000000,44965.000000
2431.000000,5839.000000,4921.000000,44953.000000
2419.000000,5797.000000,4912.000000,44977.000000
2394.000000,5787.000000,4879.000000,44936.000000
2415.000000,5769.000000,4865.000000,44934.000000
2395.000000,5771.000000,4877.000000,44939.000000
2400.000000,5781.000000,4877.000000,44954.000000
2373.000000,5752.000000,4878.000000,44930.000000
2375.000000,5769.000000,4847.000000,44933.000000
2365.000000,5767.000000,4845.000000,44892.000000
2356.000000,5775.000000,4821.000000,44886.000000
2374.000000,5777.000000,4812.000000,44896.000000
2366.000000,5781.000000,4840.000000,44918.000000
2336.000000,5740.000000,4805.000000,44859.000000
2359.000000,5757.000000,4805.000000,44885.000000
2317.000000,5743.000000,4789.000000,44869.000000
2303.000000,5737.000000,4794.000000,44887.000000
2346.000000,5765.000000,4818.000000,44885.000000
2298.000000,5717.000000,4809.000000,44870.000000
2308.000000,5736.000000,4786.000000,44892.000000
2323.000000,5742.000000,4771.000000,44894.000000
2301.000000,5722.000000,4785.000000,44869.000000
2283.000000,5723.000000,4749.000000,44892.000000
2296.000000,5722.000000,4745.000000,44877.000000
2304.000000,5707.000000,4768.000000,44875.000000
2313.000000,5736.000000,4754.000000,44876.000000
2294.000000,5700.000000,4762.000000,44864.000000
2308.000000,5720.000000,4789.000000,44866.000000
2285.000000,5721.000000,4791.000000,44902.000000
2286.000000,5735.000000,4758.000000,44865.000000
2281.000000,5726.000000,4743.000000,44857.000000
2258.000000,5716.000000,4757.000000,44865.000000
2243.000000,5682.000000,4759.000000,44855.000000
2247.000000,5676.000000,4780.000000,44861.000000
2223.000000,5689.000000,4731.000000,44869.000000
2213.000000,5694.000000,4733.000000,44825.000000
2244.000000,5675.000000,4753.000000,44838.000000
2253.000000,5679.000000,4725.000000,44831.000000
2234.000000,5675.000000,4721.000000,44815.000000
2234.000000,5693.000000,4731.000000,44831.000000
2232.000000,5655.000000,4697.000000,44835.000000
2222.000000,5681.000000,4714.000000,44844.000000
2259.000000,5681.000000,4731.000000,44840.000000
2201.000000,5697.000000,4735.000000,44839.000000
2214.000000,5661.000000,4749.000000,44839.000000
2190.000000,5672.000000,4739.000000,44849.000000
2224.000000,5659.000000,4735.000000,44869.000000
2222.000000,5689.000000,4727.000000,44847.000000
2240.000000,5688.000000,4757.000000,44862.000000
2249.000000,5775.000000,4762.000000,44874.000000
2237.000000,5680.000000,4771.000000,44890.000000
2207.000000,5680.000000,4759.000000,44853.000000
2270.000000,5691.000000,4771.000000,44903.000000
2257.000000,5713.000000,4775.000000,44882.000000
2267.000000,5710.000000,4801.000000,44896.000000
2289.000000,5716.000000,4796.000000,44908.000000
2304.000000,5719.000000,4796.000000,44902.000000
2275.000000,5723.000000,4808.000000,44917.000000
2285.000000,5735.000000,4832.000000,44913.000000
2296.000000,5762.000000,4827.000000,44921.000000
2326.000000,5742.000000,4858.000000,44941.000000
2309.000000,5762.000000,4880.000000,44926.000000
2358.000000,5731.000000,4903.000000,44945.000000
2358.000000,5820.000000,4852.000000,44938.000000
2379.000000,5819.000000,4890.000000,44987.000000
2395.000000,5800.000000,4928.000000,44963.000000
2413.000000,5798.000000,4916.000000,44955.000000
2440.000000,5823.000000,4905.000000,44963.000000
2417.000000,5814.000000,4933.000000,44987.000000
2429.000000,5813.000000,4934.000000,44991.000000
2482.000000,5861.000000,4935.000000,44983.000000
2458.000000,5838.000000,4949.000000,45016.000000
2469.000000,5848.000000,4974.000000,44962.000000
2500.000000,5865.000000,4954.000000,44983.000000
2502.000000,5862.000000,4984.000000,45003.000000
2576.000000,5912.000000,5010.000000,45032.000000
2563.000000,5882.000000,5006.000000,45023.000000
2544.000000,5920.000000,5038.000000,45056.000000
2562.000000,5929.000000,5071.000000,45047.000000
2586.000000,5915.000000,5039.000000,45081.000000
2602.000000,5921.000000,5107.000000,45086.000000
2578.000000,5943.000000,5092.000000,45083.000000
2617.000000,5971.000000,5083.000000,45104.000000
2629.000000,6003.000000,5121.000000,45090.000000
2631.000000,5952.000000,5112.000000,45082.000000
2632.000000,5964.000000,5116.000000,45088.000000
2659.000000,5971.000000,5110.000000,45083.000000
2685.000000,6012.000000,5091.000000,45084.000000
2684.000000,5975.000000,5130.000000,45076.000000
2673.000000,5999.000000,5111.000000,45105.000000
2703.000000,5972.000000,5122.000000,45133.000000
2693.000000,5988.000000,5101.000000,45096.000000
2684.000000,5971.000000,5104.000000,45142.000000
2708.000000,5992.000000,5109.000000,45094.000000
2670.000000,5991.000000,5124.000000,45119.000000
2680.000000,5965.000000,5104.000000,45082.000000
2686.000000,5966.000000,5086.000000,45074.000000
2680.000000,5953.000000,5082.000000,45106.000000
2673.000000,5964.000000,5054.000000,45096.000000
2686.000000,5960.000000,5075.000000,45076.000000
2691.000000,5975.000000,5076.000000,45082.000000
2698.000000,5976.000000,5064.000000,45073.000000
2686.000000,5970.000000,5091.000000,45086.000000
2640.000000,5999.000000,5070.000000,45084.000000
2686.000000,5948.000000,5075.000000,45088.000000
2684.000000,5975.000000,5052.000000,45058.000000
2701.000000,5956.000000,5080.000000,45076.000000
2673.000000,5974.000000,5068.000000,45069.000000
2678.000000,5962.000000,5051.000000,45070.000000
2656.000000,5930.000000,5055.000000,45059.000000
2664.000000,5928.000000,5054.000000,45091.000000
2649.000000,5940.000000,5074.000000,45087.000000
2628.000000,5907.000000,5046.000000,45058.000000
2694.000000,5963.000000,5056.000000,45070.000000
2598.000000,5936.000000,5049.000000,45077.000000
2662.000000,5948.000000,5018.000000,45037.000000
2679.000000,5916.000000,5021.000000,45096.000000
2634.000000,5919.000000,5015.000000,45059.000000
2670.000000,5936.000000,5029.000000,45068.000000
2666.000000,5943.000000,5003.000000,45034.000000
2653.000000,5907.000000,5000.000000,45036.000000
2657.000000,5892.000000,5013.000000,45048.000000
2678.000000,5894.000000,4981.000000,45038.000000
2659.000000,5893.000000,5003.000000,45003.000000
2664.000000,5915.000000,4972.000000,45035.000000
2678.000000,5899.000000,4999.000000,45033.000000
2670.000000,5889.000000,4983.000000,45019.000000
2640.000000,5896.000000,4951.000000,45048.000000
2668.000000,5873.000000,4968.000000,45014.000000
2657.000000,5879.000000,4960.000000,45036.000000
2622.000000,5876.000000,4944.000000,44993.000000
2610.000000,5875.000000,4953.000000,44994.000000
2625.000000,5936.000000,4964.000000,45012.000000
2615.000000,5849.000000,4926.000000,44970.000000
2630.000000,5832.000000,4943.000000,45013.000000
2599.000000,5875.000000,4936.000000,45009.000000
2573.000000,5852.000000,4967.000000,45025.000000
2583.000000,5857.000000,4928.000000,44989.000000
2582.000000,5838.000000,4913.000000,44991.000000
2564.000000,5828.000000,4903.000000,44980.000000
2575.000000,5843.000000,4899.000000,44989.000000
2574.000000,5873.000000,4891.000000,44995.000000
2567.000000,5812.000000,4901.000000,44972.000000
2546.000000,5810.000000,4893.000000,44966.000000
2525.000000,5842.000000,4874.000000,44982.000000
2583.000000,5837.000000,4871.000000,44982.000000
2530.000000,5831.000000,4877.000000,44956.000000
2530.000000,5806.000000,4855.000000,44948.000000
2530.000000,5833.000000,4867.000000,44970.000000
2549.000000,5809.000000,4865.000000,44967.000000
2524.000000,5806.000000,4835.000000,44921.000000
2518.000000,5816.000000,4843.000000,44948.000000
2527.000000,5803.000000,4859.000000,44915.000000
2531.000000,5807.000000,4827.000000,44914.000000
2501.000000,5812.000000,4840.000000,44963.000000
2474.000000,5792.000000,4835.000000,44918.000000
2517.000000,5787.000000,4797.000000,44916.000000
2478.000000,5781.000000,4792.000000,44912.000000
2474.000000,5782.000000,4816.000000,44905.000000
2510.000000,5794.000000,4811.000000,44916.000000
2475.000000,5770.000000,4785.000000,44941.000000
2464.000000,5787.000000,4796.000000,44897.000000
2450.000000,5793.000000,4810.000000,44925.000000
2389.000000,5755.000000,4793.000000,44909.000000
2433.000000,5766.000000,4781.000000,44890.000000
2448.000000,5726.000000,4804.000000,44905.000000
2460.000000,5758.000000,4796.000000,44903.000000
2415.000000,5735.000000,4766.000000,44903.000000
2391.000000,5762.000000,4774.000000,44892.000000
2387.000000,5749.000000,4765.000000,44910.000000
2375.000000,5757.000000,4749.000000,44871.000000
2363.000000,5733.000000,4753.000000,44890.000000
2346.000000,5717.000000,4776.000000,44874.000000
2336.000000,5701.000000,4767.000000,44891.000000
2342.000000,5725.000000,4744.000000,44866.000000
2319.000000,5729.000000,4779.000000,44869.000000
2336.000000,5700.000000,4756.000000,44909.000000
2329.000000,5750.000000,4757.000000,44905.000000
2321.000000,5713.000000,4741.000000,44864.000000
2319.000000,5679.000000,4741.000000,44871.000000
2330.000000,5710.000000,4753.000000,44851.000000
2284.000000,5702.000000,4712.000000,44874.000000
2298.000000,5703.000000,4721.000000,44858.000000
2315.000000,5694.000000,4710.000000,44848.000000
2296.000000,5674.000000,4726.000000,44857.000000
2274.000000,5710.000000,4740.000000,44879.000000
2328.000000,5668.000000,4736.000000,44865.000000
2331.000000,5723.000000,4722.000000,44856.000000
2333.000000,5712.000000,4748.000000,44857.000000
2348.000000,5702.000000,4781.000000,44880.000000
2357.000000,5734.000000,4759.000000,44863.000000
2325.000000,5701.000000,4772.000000,44868.000000
2349.000000,5759.000000,4783.000000,44911.000000
2379.000000,5752.000000,4776.000000,44889.000000
2379.000000,5735.000000,4805.000000,44910.000000
2391.000000,5754.000000,4825.000000,44925.000000
2406.000000,5793.000000,4818.000000,44928.000000
2396.000000,5758.000000,4833.000000,44959.000000
2408.000000,5808.000000,4831.000000,44940.000000
2451.000000,5785.000000,4826.000000,44949.000000
2429.000000,5811.000000,4854.000000,44940.000000
2436.000000,5774.000000,4870.000000,44948.000000
2455.000000,5779.000000,4886.000000,44952.000000
2507.000000,5811.000000,4889.000000,44973.000000
2509.000000,5816.000000,4878.000000,44970.000000
2498.000000,5830.000000,4900.000000,44967.000000
2516.000000,5840.000000,4888.000000,44946.000000
2544.000000,5842.000000,4906.000000,44972.000000
2530.000000,5832.000000,4918.000000,45007.000000
2563.000000,5880.000000,4958.000000,45013.000000
2539.000000,5875.000000,4938.000000,44974.000000
2589.000000,5870.000000,4934.000000,45013.000000
2601.000000,5876.000000,4995.000000,45031.000000
2581.000000,5905.000000,4985.000000,45011.000000
2605.000000,5924.000000,4987.000000,45033.000000
2639.000000,5886.000000,5004.000000,45029.000000
2673.000000,5931.000000,5028.000000,45066.000000
2648.000000,5921.000000,5026.000000,45063.000000
2698.000000,5940.000000,5042.000000,45066.000000
2677.000000,5951.000000,5049.000000,45062.000000
2674.000000,5945.000000,5027.000000,45064.000000
2692.000000,5931.000000,5007.000000,45047.000000
2711.000000,5960.000000,5049.000000,45065.000000
2708.000000,5949.000000,5034.000000,45092.000000
2706.000000,5949.000000,5052.000000,45072.000000
2710.000000,5944.000000,5042.000000,45056.000000
2726.000000,5923.000000,5021.000000,45056.000000
2708.000000,5937.000000,4995.000000,45045.000000
2690.000000,5936.000000,5006.000000,45045.000000
2703.000000,5880.000000,4984.000000,45031.000000
2690.000000,5920.000000,4990.000000,45056.000000
2641.000000,5906.000000,4984.000000,45016.000000
2696.000000,5909.000000,4981.000000,45049.000000
2660.000000,5884.000000,4966.000000,45026.000000
2622.000000,5863.000000,4967.000000,45016.000000
2643.000000,5857.000000,4958.000000,45042.000000
2641.000000,5868.000000,4958.000000,45019.000000
2646.000000,5903.000000,4945.000000,45026.000000
2664.000000,5871.000000,4922.000000,44974.000000
2634.000000,5846.000000,4930.000000,45011.000000
2640.000000,5867.000000,4902.000000,45006.000000
2611.000000,5851.000000,4939.000000,44991.000000
2631.000000,5880.000000,4895.000000,44980.000000
2613.000000,5845.000000,4896.000000,45009.000000
2649.000000,5833.000000,4893.000000,44958.000000
2625.000000,5862.000000,4909.000000,44979.000000
2639.000000,5848.000000,4849.000000,44973.000000
2616.000000,5809.000000,4864.000000,44983.000000
2604.000000,5827.000000,4846.000000,44986.000000
2626.000000,6085.000000,4827.000000,44943.000000
2623.000000,5833.000000,4843.000000,44982.000000
2643.000000,5838.000000,4807.000000,44961.000000
2647.000000,5812.000000,4810.000000,44979.000000
2635.000000,5800.000000,4797.000000,44937.000000
2625.000000,5784.000000,4815.000000,44915.000000
2644.000000,5808.000000,4811.000000,44930.000000
2667.000000,5816.000000,4789.000000,44955.000000
2657.000000,5766.000000,4767.000000,44927.000000
2634.000000,5798.000000,4772.000000,44921.000000
2657.000000,5811.000000,4789.000000,44930.000000
2657.000000,5780.000000,4757.000000,44927.000000
2672.000000,5787.000000,4758.000000,44906.000000
2652.000000,5793.000000,4748.000000,44902.000000
2633.000000,5784.000000,4738.000000,44922.000000
2662.000000,5753.000000,4742.000000,44907.000000
2675.000000,5783.000000,4726.000000,44907.000000
2682.000000,5792.000000,4733.000000,44869.000000
2644.000000,5768.000000,4724.000000,44920.000000
2664.000000,5763.000000,4734.000000,44916.000000
2649.000000,5783.000000,4729.000000,44892.000000
2638.000000,5731.000000,4701.000000,44885.000000
2633.000000,5761.000000,4697.000000,44896.000000
2639.000000,5749.000000,4665.000000,44887.000000
2636.000000,5760.000000,4661.000000,44896.000000
2624.000000,5746.000000,4668.000000,44879.000000
2579.000000,5758.000000,4658.000000,44871.000000
2607.000000,5744.000000,4648.000000,44857.000000
2620.000000,5712.000000,4638.000000,44857.000000
2618.000000,5759.000000,4613.000000,44857.000000
2630.000000,5721.000000,4621.000000,44838.000000
2578.000000,5665.000000,4573.000000,44841.000000
2625.000000,5701.000000,4587.000000,44814.000000
2614.000000,5690.000000,4599.000000,44845.000000
2616.000000,5676.000000,4582.000000,44834.000000
2626.000000,5710.000000,4588.000000,44805.000000
2616.000000,5707.000000,4597.000000,44837.000000
2645.000000,5724.000000,4584.000000,44845.000000
2666.000000,5696.000000,4562.000000,44777.000000
2663.000000,5695.000000,4559.000000,44829.000000
2654.000000,5716.000000,4560.000000,44803.000000
2667.000000,5687.000000,4532.000000,44804.000000
2707.000000,5703.000000,4536.000000,44846.000000
2675.000000,5705.000000,4509.000000,44814.000000
2665.000000,5693.000000,4535.000000,44796.000000
2707.000000,5665.000000,4505.000000,44813.000000
2715.000000,5723.000000,4528.000000,44794.000000
2688.000000,5681.000000,4521.000000,44806.000000
2689.000000,5696.000000,4490.000000,44796.000000
2711.000000,5701.000000,4464.000000,44781.000000
2741.000000,5670.000000,4509.000000,44815.000000
2687.000000,5680.000000,4499.000000,44797.000000
2730.000000,5678.000000,4496.000000,44799.000000
2702.000000,5671.000000,4493.000000,44812.000000
2717.000000,5676.000000,4477.000000,44785.000000
2708.000000,5664.000000,4458.000000,44787.000000
2736.000000,5689.000000,4483.000000,44797.000000
2672.000000,5670.000000,4463.000000,44785.000000
2706.000000,5646.000000,4497.000000,44775.000000
2682.000000,5679.000000,4466.000000,44774.000000
2702.000000,5647.000000,4435.000000,44778.000000
2710.000000,5633.000000,4409.000000,44793.000000
2677.000000,5658.000000,4421.000000,44782.000000
2668.000000,5647.000000,4413.000000,44793.000000
2683.000000,5661.000000,4440.000000,44787.000000
2683.000000,5695.000000,4436.000000,44786.000000
2678.000000,5616.000000,4421.000000,44765.000000
2689.000000,5639.000000,4442.000000,44773.000000
2681.000000,5629.000000,4407.000000,44777.000000
2657.000000,5631.000000,4389.000000,44763.000000
2700.000000,5646.000000,4421.000000,44794.000000
2675.000000,5657.000000,4439.000000,44787.000000
2701.000000,5655.000000,4406.000000,44780.000000
2698.000000,5667.000000,4441.000000,44803.000000
2722.000000,5645.000000,4412.000000,44763.000000
2743.000000,5660.000000,4460.000000,44802.000000
2706.000000,5661.000000,4448.000000,44796.000000
2710.000000,5667.000000,4439.000000,44765.000000
2740.000000,5667.000000,4453.000000,44808.000000
2781.000000,5693.000000,4463.000000,44798.000000
2760.000000,5701.000000,4474.000000,44805.000000
2782.000000,5709.000000,4482.000000,44815.000000
2763.000000,5726.000000,4488.000000,44837.000000
2803.000000,5700.000000,4500.000000,44830.000000
2816.000000,5750.000000,4525.000000,44830.000000
2800.000000,5753.000000,4540.000000,44840.000000
2874.000000,5734.000000,4539.000000,44892.000000
2832.000000,5761.000000,4566.000000,44877.000000
2848.000000,5763.000000,4613.000000,44863.000000
2934.000000,5778.000000,4610.000000,44884.000000
2903.000000,5780.000000,4620.000000,44889.000000
2894.000000,5788.000000,4599.000000,44898.000000
2929.000000,5815.000000,4643.000000,44876.000000
2946.000000,5783.000000,4639.000000,44901.000000
