660nm,730nm,850nm,940nm
646.000000,11529.000000,1539.000000,38819.000000
616.000000,11516.000000,1545.000000,38831.000000
609.000000,11565.000000,1561.000000,38849.000000
649.000000,11543.000000,1567.000000,38835.000000
632.000000,11520.000000,1542.000000,38823.000000
669.000000,11556.000000,1557.000000,38828.000000
694.000000,11527.000000,1566.000000,38853.000000
653.000000,11531.000000,1565.000000,38836.000000
663.000000,11559.000000,1607.000000,38819.000000
677.000000,11551.000000,1584.000000,38839.000000
705.000000,11623.000000,1599.000000,38848.000000
734.000000,11587.000000,1597.000000,38839.000000
705.000000,11589.000000,1628.000000,38876.000000
730.000000,11621.000000,1639.000000,38872.000000
777.000000,11628.000000,1681.000000,38887.000000
783.000000,11624.000000,1686.000000,38907.000000
802.000000,11667.000000,1711.000000,38925.000000
831.000000,11679.000000,1755.000000,38919.000000
863.000000,11700.000000,1746.000000,38937.000000
903.000000,11739.000000,1811.000000,38969.000000
927.000000,12071.000000,1857.000000,39019.000000
971.000000,11763.000000,1884.000000,38993.000000
1020.000000,12079.000000,1957.000000,39041.000000
1068.000000,12135.000000,1976.000000,39040.000000
1111.000000,12143.000000,1992.000000,39074.000000
1163.000000,12228.000000,2060.000000,39124.000000
1172.000000,12240.000000,2126.000000,39158.000000
1256.000000,12269.000000,2159.000000,39159.000000
1277.000000,12065.000000,2211.000000,39199.000000
1309.000000,12103.000000,2258.000000,39247.000000
1360.000000,12093.000000,2270.000000,39280.000000
1403.000000,12159.000000,2363.000000,39271.000000
1439.000000,12175.000000,2397.000000,39292.000000
1471.000000,12204.000000,2388.000000,39315.000000
1504.000000,12207.000000,2429.000000,39341.000000
1504.000000,12239.000000,2417.000000,39323.000000
1498.000000,12223.000000,2431.000000,39343.000000
1542.000000,12239.000000,2418.000000,39335.000000
1521.000000,12231.000000,2420.000000,39339.000000
1543.000000,12253.000000,2433.000000,39343.000000
1523.000000,12255.000000,2419.000000,39351.000000
1517.000000,12227.000000,2425.000000,39323.000000
1479.000000,12243.000000,2440.000000,39348.000000
1511.000000,12213.000000,2415.000000,39327.000000
1479.000000,12193.000000,2380.000000,39303.000000
1499.000000,12223.000000,2403.000000,39339.000000
1472.000000,12224.000000,2441.000000,39329.000000
1461.000000,12209.000000,2403.000000,39311.000000
1470.000000,12192.000000,2365.000000,39295.000000
1463.000000,12192.000000,2355.000000,39297.000000
1451.000000,12183.000000,2372.000000,39307.000000
1432.000000,12215.000000,2354.000000,39273.000000
1418.000000,12163.000000,2338.000000,39275.000000
1421.000000,12164.000000,2327.000000,39263.000000
1444.000000,12156.000000,2347.000000,39277.000000
1415.000000,12164.000000,2323.000000,39311.000000
1403.000000,12157.000000,2331.000000,39273.000000
1403.000000,12149.000000,2309.000000,39268.000000
1376.000000,12113.000000,2266.000000,39267.000000
1376.000000,12107.000000,2269.000000,39256.000000
1376.000000,12091.000000,2259.000000,39227.000000
1343.000000,12119.000000,2248.000000,39245.000000
1363.000000,12111.000000,2261.000000,39261.000000
1335.000000,12099.000000,2283.000000,39225.000000
1352.000000,12088.000000,2264.000000,39251.000000
1387.000000,12100.000000,2227.000000,39225.000000
1335.000000,12089.000000,2237.000000,39209.000000
1329.000000,12060.000000,2210.000000,39225.000000
1295.000000,12072.000000,2233.000000,39211.000000
1346.000000,12081.000000,2237.000000,39223.000000
1269.000000,12072.000000,2205.000000,39224.000000
1264.000000,12035.000000,2194.000000,39215.000000
1296.000000,12041.000000,2170.000000,39213.000000
1279.000000,12061.000000,2215.000000,39197.000000
1300.000000,12053.000000,2205.000000,39204.000000
1291.000000,12276.000000,2190.000000,39211.000000
1305.000000,12047.000000,2200.000000,39207.000000
1290.000000,12271.000000,2202.000000,39185.000000
1285.000000,12041.000000,2196.000000,39180.000000
1288.000000,12032.000000,2148.000000,39195.000000
1256.000000,12271.000000,2153.000000,39165.000000
1244.000000,12043.000000,2146.000000,39183.000000
1209.000000,12043.000000,2139.000000,39167.000000
1227.000000,12260.000000,2165.000000,39168.000000
1253.000000,12232.000000,2129.000000,39164.000000
1202.000000,12017.000000,2147.000000,39187.000000
1209.000000,12204.000000,2097.000000,39154.000000
1189.000000,12249.000000,2097.000000,39152.000000
1194.000000,12200.000000,2073.000000,39119.000000
1176.000000,12220.000000,2074.000000,39145.000000
1163.000000,11940.000000,2055.000000,39135.000000
1173.000000,12199.000000,2072.000000,39137.000000
1168.000000,12229.000000,2049.000000,39138.000000
1130.000000,11953.000000,2036.000000,39127.000000
1155.000000,12155.000000,2071.000000,39119.000000
1121.000000,12141.000000,2061.000000,39094.000000
1074.000000,12165.000000,2019.000000,39100.000000
1092.000000,11864.000000,2000.000000,39104.000000
1115.000000,11863.000000,2005.000000,39103.000000
1083.000000,12121.000000,2002.000000,39105.000000
1092.000000,12115.000000,1980.000000,39087.000000
1053.000000,12107.000000,1977.000000,39077.000000
1050.000000,12115.000000,1956.000000,39049.000000
1031.000000,12087.000000,1942.000000,39039.000000
1026.000000,12091.000000,1935.000000,39031.000000
1030.000000,12109.000000,1943.000000,39047.000000
999.000000,12049.000000,1920.000000,39054.000000
1007.000000,12083.000000,1936.000000,39046.000000
983.000000,11823.000000,1883.000000,39032.000000
973.000000,12064.000000,1899.000000,39013.000000
969.000000,12047.000000,1887.000000,39037.000000
971.000000,12036.000000,1879.000000,38999.000000
951.000000,11764.000000,1893.000000,39007.000000
940.000000,12040.000000,1872.000000,39003.000000
916.000000,11773.000000,1865.000000,39018.000000
941.000000,11768.000000,1851.000000,38991.000000
907.000000,11753.000000,1832.000000,39003.000000
900.000000,11747.000000,1833.000000,39001.000000
897.000000,11741.000000,1845.000000,38987.000000
888.000000,11735.000000,1845.000000,38967.000000
896.000000,11740.000000,1804.000000,38988.000000
888.000000,11713.000000,1816.000000,38976.000000
863.000000,11721.000000,1783.000000,38952.000000
876.000000,11700.000000,1782.000000,38957.000000
839.000000,11691.000000,1734.000000,38972.000000
829.000000,11695.000000,1738.000000,38940.000000
816.000000,11684.000000,1743.000000,38912.000000
801.000000,11663.000000,1736.000000,38927.000000
793.000000,11643.000000,1705.000000,38947.000000
759.000000,11647.000000,1689.000000,38911.000000
758.000000,11595.000000,1654.000000,38876.000000
762.000000,11632.000000,1669.000000,38895.000000
973.000000,11632.000000,1649.000000,38879.000000
728.000000,11603.000000,1629.000000,38869.000000
676.000000,11564.000000,1643.000000,38883.000000
678.000000,11603.000000,1622.000000,38845.000000
653.000000,11591.000000,1614.000000,38873.000000
663.000000,11568.000000,1603.000000,38852.000000
675.000000,11559.000000,1571.000000,38859.000000
670.000000,11591.000000,1619.000000,38889.000000
678.000000,11583.000000,1621.000000,38867.000000
662.000000,11568.000000,1606.000000,38852.000000
663.000000,11579.000000,1620.000000,38868.000000
682.000000,11569.000000,1606.000000,38828.000000
676.000000,11571.000000,1617.000000,38840.000000
683.000000,11571.000000,1588.000000,38847.000000
685.000000,11581.000000,1633.000000,38873.000000
701.000000,11595.000000,1630.000000,38864.000000
681.000000,11596.000000,1638.000000,38887.000000
936.000000,11583.000000,1635.000000,38861.000000
680.000000,11593.000000,1647.000000,38868.000000
732.000000,11599.000000,1666.000000,38875.000000
707.000000,11604.000000,1672.000000,38896.000000
736.000000,11621.000000,1687.000000,38872.000000
737.000000,11651.000000,1683.000000,38903.000000
800.000000,11633.000000,1711.000000,38911.000000
773.000000,11692.000000,1717.000000,38915.000000
783.000000,11639.000000,1712.000000,38919.000000
832.000000,11695.000000,1785.000000,38943.000000
827.000000,11712.000000,1769.000000,38945.000000
854.000000,11732.000000,1816.000000,38967.000000
889.000000,11719.000000,1847.000000,38991.000000
937.000000,11767.000000,1864.000000,39010.000000
970.000000,12069.000000,1913.000000,39032.000000
1011.000000,12104.000000,1941.000000,39057.000000
1030.000000,12140.000000,2011.000000,39068.000000
1076.000000,12145.000000,2019.000000,39126.000000
1117.000000,11956.000000,2063.000000,39133.000000
1146.000000,12212.000000,2128.000000,39151.000000
1204.000000,12260.000000,2148.000000,39211.000000
1244.000000,12033.000000,2218.000000,39205.000000
1311.000000,12064.000000,2229.000000,39227.000000
1331.000000,12109.000000,2287.000000,39265.000000
1409.000000,12151.000000,2331.000000,39295.000000
1417.000000,12153.000000,2383.000000,39295.000000
1463.000000,12195.000000,2400.000000,39339.000000
1465.000000,12231.000000,2429.000000,39335.000000
1492.000000,12249.000000,2443.000000,39351.000000
1492.000000,12237.000000,2492.000000,39319.000000
1483.000000,12227.000000,2459.000000,39349.000000
1499.000000,12241.000000,2493.000000,39351.000000
1517.000000,12223.000000,2464.000000,39343.000000
1535.000000,12251.000000,2480.000000,39335.000000
1523.000000,12251.000000,2461.000000,39375.000000
1523.000000,12243.000000,2479.000000,39373.000000
1511.000000,12219.000000,2448.000000,39339.000000
1513.000000,12252.000000,2496.000000,39357.000000
1467.000000,12248.000000,2435.000000,39332.000000
1509.000000,12240.000000,2443.000000,39363.000000
1467.000000,12201.000000,2441.000000,39361.000000
1475.000000,12195.000000,2432.000000,39339.000000
1483.000000,12208.000000,2431.000000,39332.000000
1473.000000,12191.000000,2431.000000,39323.000000
1471.000000,12184.000000,2401.000000,39311.000000
1461.000000,12179.000000,2407.000000,39303.000000
1433.000000,12179.000000,2388.000000,39291.000000
1391.000000,12192.000000,2391.000000,39309.000000
1416.000000,12192.000000,2371.000000,39299.000000
1404.000000,12171.000000,2331.000000,39288.000000
1387.000000,12160.000000,2342.000000,39275.000000
1375.000000,12135.000000,2346.000000,39316.000000
1371.000000,12103.000000,2323.000000,39267.000000
1372.000000,12127.000000,2317.000000,39253.000000
1392.000000,12144.000000,2311.000000,39285.000000
1339.000000,12145.000000,2320.000000,39256.000000
1341.000000,12113.000000,2311.000000,39255.000000
1308.000000,12108.000000,2299.000000,39267.000000
1308.000000,12092.000000,2279.000000,39260.000000
1319.000000,12107.000000,2293.000000,39239.000000
1328.000000,12075.000000,2282.000000,39217.000000
1340.000000,12108.000000,2324.000000,39264.000000
1312.000000,12084.000000,2286.000000,39251.000000
1303.000000,12088.000000,2247.000000,39231.000000
1291.000000,12061.000000,2263.000000,39255.000000
1311.000000,12076.000000,2243.000000,39257.000000
1265.000000,12071.000000,2243.000000,39221.000000
1238.000000,12053.000000,2216.000000,39223.000000
1287.000000,12056.000000,2208.000000,39221.000000
1287.000000,12053.000000,2241.000000,39223.000000
1268.000000,12268.000000,2214.000000,39211.000000
1268.000000,12269.000000,2188.000000,39231.000000
1249.000000,12035.000000,2187.000000,39205.000000
1274.000000,12049.000000,2194.000000,39185.000000
1222.000000,12267.000000,2187.000000,39204.000000
1241.000000,12261.000000,2181.000000,39191.000000
1223.000000,12272.000000,2156.000000,39191.000000
1220.000000,12035.000000,2152.000000,39177.000000
1222.000000,12241.000000,2146.000000,39179.000000
1205.000000,12004.000000,2143.000000,39175.000000
1179.000000,12248.000000,2129.000000,39181.000000
1178.000000,11976.000000,2090.000000,39188.000000
1153.000000,12201.000000,2101.000000,39138.000000
1123.000000,12227.000000,2094.000000,39145.000000
1149.000000,11935.000000,2114.000000,39137.000000
1151.000000,12203.000000,2052.000000,39140.000000
1089.000000,12205.000000,2069.000000,39120.000000
1108.000000,12213.000000,2041.000000,39123.000000
1063.000000,12133.000000,2038.000000,39103.000000
1080.000000,12163.000000,2029.000000,39079.000000
1061.000000,12151.000000,2015.000000,39101.000000
1032.000000,12155.000000,1989.000000,39091.000000
1041.000000,12109.000000,1995.000000,39087.000000
1020.000000,12157.000000,1984.000000,39080.000000
1004.000000,12087.000000,1952.000000,39052.000000
1020.000000,11836.000000,1977.000000,39079.000000
996.000000,12087.000000,1951.000000,39057.000000
1003.000000,12091.000000,1941.000000,39065.000000
974.000000,12080.000000,1927.000000,39047.000000
991.000000,12096.000000,1931.000000,39045.000000
943.000000,12099.000000,1893.000000,39061.000000
947.000000,12045.000000,1919.000000,39046.000000
952.000000,12033.000000,1895.000000,39042.000000
925.000000,12061.000000,1890.000000,39008.000000
937.000000,11763.000000,1880.000000,39021.000000
906.000000,11751.000000,1867.000000,39007.000000
933.000000,12053.000000,1887.000000,39032.000000
903.000000,11769.000000,1847.000000,39007.000000
931.000000,11771.000000,1863.000000,39009.000000
868.000000,11760.000000,1847.000000,39012.000000
871.000000,11717.000000,1843.000000,39005.000000
864.000000,11743.000000,1795.000000,38971.000000
847.000000,11727.000000,1808.000000,38974.000000
837.000000,11707.000000,1821.000000,38994.000000
824.000000,11677.000000,1780.000000,38969.000000
817.000000,11720.000000,1763.000000,38959.000000
796.000000,11659.000000,1774.000000,38981.000000
791.000000,11661.000000,1758.000000,38928.000000
792.000000,11663.000000,1753.000000,38924.000000
777.000000,11665.000000,1706.000000,38943.000000
764.000000,11639.000000,1731.000000,38942.000000
728.000000,11611.000000,1705.000000,38911.000000
744.000000,11637.000000,1694.000000,38933.000000
701.000000,11619.000000,1680.000000,38909.000000
679.000000,11597.000000,1647.000000,38926.000000
677.000000,11597.000000,1657.000000,38905.000000
662.000000,11611.000000,1650.000000,38907.000000
662.000000,11563.000000,1636.000000,38868.000000
629.000000,11571.000000,1667.000000,38911.000000
668.000000,11575.000000,1651.000000,38840.000000
656.000000,11577.000000,1635.000000,38912.000000
647.000000,11587.000000,1655.000000,38883.000000
672.000000,11603.000000,1639.000000,38903.000000
670.000000,11581.000000,1644.000000,38899.000000
646.000000,11579.000000,1658.000000,38916.000000
633.000000,11559.000000,1648.000000,38883.000000
917.000000,11567.000000,1652.000000,38872.000000
685.000000,11580.000000,1659.000000,38891.000000
658.000000,11583.000000,1671.000000,38888.000000
690.000000,11612.000000,1687.000000,38922.000000
681.000000,11607.000000,1650.000000,38909.000000
657.000000,11585.000000,1680.000000,38885.000000
670.000000,11612.000000,1684.000000,38905.000000
714.000000,11593.000000,1694.000000,38907.000000
743.000000,11612.000000,1673.000000,38932.000000
715.000000,11628.000000,1703.000000,38943.000000
752.000000,11635.000000,1709.000000,38929.000000
763.000000,11688.000000,1721.000000,38932.000000
793.000000,11655.000000,1759.000000,38943.000000
780.000000,11712.000000,1790.000000,38965.000000
791.000000,11716.000000,1795.000000,38987.000000
831.000000,11727.000000,1819.000000,38979.000000
905.000000,12032.000000,1875.000000,39019.000000
900.000000,12063.000000,1915.000000,39032.000000
937.000000,12072.000000,1969.000000,39052.000000
963.000000,12077.000000,1986.000000,39070.000000
1016.000000,12144.000000,2059.000000,39093.000000
1062.000000,11944.000000,2051.000000,39146.000000
1091.000000,12205.000000,2110.000000,39157.000000
1125.000000,12225.000000,2139.000000,39149.000000
1168.000000,12287.000000,2183.000000,39171.000000
1239.000000,12076.000000,2239.000000,39228.000000
1266.000000,12096.000000,2269.000000,39263.000000
1301.000000,12135.000000,2326.000000,39271.000000
1383.000000,12144.000000,2381.000000,39319.000000
1396.000000,12183.000000,2397.000000,39332.000000
1369.000000,12215.000000,2485.000000,39335.000000
1415.000000,12235.000000,2455.000000,39347.000000
1445.000000,12205.000000,2463.000000,39368.000000
1479.000000,12259.000000,2483.000000,39383.000000
1467.000000,12239.000000,2470.000000,39359.000000
1479.000000,12236.000000,2473.000000,39381.000000
1477.000000,12244.000000,2493.000000,39375.000000
1476.000000,12229.000000,2452.000000,39354.000000
1514.000000,12263.000000,2466.000000,39397.000000
1455.000000,12271.000000,2462.000000,39376.000000
1496.000000,12267.000000,2491.000000,39353.000000
1436.000000,12235.000000,2464.000000,39343.000000
1468.000000,12239.000000,2444.000000,39372.000000
1473.000000,12247.000000,2491.000000,39375.000000
1433.000000,12260.000000,2448.000000,39351.000000
1432.000000,12232.000000,2445.000000,39352.000000
1405.000000,12184.000000,2428.000000,39335.000000
1435.000000,12167.000000,2416.000000,39339.000000
1392.000000,12207.000000,2429.000000,39319.000000
1400.000000,12195.000000,2427.000000,39336.000000
1387.000000,12168.000000,2408.000000,39309.000000
1377.000000,12197.000000,2401.000000,39313.000000
1376.000000,12195.000000,2403.000000,39311.000000
1349.000000,12159.000000,2383.000000,39331.000000
1393.000000,12167.000000,2379.000000,39337.000000
1363.000000,12169.000000,2351.000000,39307.000000
1327.000000,12143.000000,2335.000000,39255.000000
1297.000000,12143.000000,2305.000000,39292.000000
1327.000000,12121.000000,2336.000000,39283.000000
1309.000000,12107.000000,2304.000000,39291.000000
1303.000000,12123.000000,2303.000000,39259.000000
1292.000000,12129.000000,2308.000000,39255.000000
1299.000000,12129.000000,2297.000000,39252.000000
1288.000000,12092.000000,2285.000000,39244.000000
1276.000000,12099.000000,2278.000000,39251.000000
1284.000000,12079.000000,2292.000000,39232.000000
1288.000000,12095.000000,2279.000000,39247.000000
1273.000000,12081.000000,2281.000000,39236.000000
1261.000000,12055.000000,2296.000000,39235.000000
1262.000000,12084.000000,2259.000000,39255.000000
1225.000000,12077.000000,2280.000000,39248.000000
1245.000000,12072.000000,2301.000000,39252.000000
1233.000000,12048.000000,2278.000000,39239.000000
1241.000000,12051.000000,2241.000000,39231.000000
1216.000000,12051.000000,2277.000000,39235.000000
1228.000000,12053.000000,2215.000000,39217.000000
1201.000000,12069.000000,2215.000000,39216.000000
1205.000000,12040.000000,2223.000000,39223.000000
1203.000000,12059.000000,2219.000000,39227.000000
1221.000000,12044.000000,2221.000000,39208.000000
1194.000000,12019.000000,2217.000000,39197.000000
1195.000000,12007.000000,2212.000000,39205.000000
1175.000000,12280.000000,2212.000000,39205.000000
1139.000000,12271.000000,2164.000000,39195.000000
1155.000000,12248.000000,2178.000000,39219.000000
1139.000000,12271.000000,2148.000000,39207.000000
1156.000000,12239.000000,2144.000000,39203.000000
1151.000000,12229.000000,2144.000000,39200.000000
1105.000000,12200.000000,2148.000000,39141.000000
1078.000000,12201.000000,2096.000000,39167.000000
1092.000000,12204.000000,2083.000000,39149.000000
1081.000000,12211.000000,2098.000000,39151.000000
1076.000000,11937.000000,2083.000000,39116.000000
1056.000000,12204.000000,2057.000000,39134.000000
1045.000000,11915.000000,2047.000000,39129.000000
1039.000000,12185.000000,2030.000000,39099.000000
1020.000000,12152.000000,2060.000000,39119.000000
1031.000000,12157.000000,2049.000000,39114.000000
991.000000,12143.000000,2035.000000,39107.000000
984.000000,12121.000000,2037.000000,39084.000000
995.000000,12097.000000,2000.000000,39096.000000
979.000000,12105.000000,1987.000000,39083.000000
967.000000,12124.000000,1991.000000,39075.000000
973.000000,12093.000000,1992.000000,39091.000000
975.000000,12115.000000,1967.000000,39103.000000
953.000000,11818.000000,1957.000000,39071.000000
946.000000,12096.000000,1946.000000,39059.000000
947.000000,12099.000000,1968.000000,39053.000000
923.000000,12092.000000,1984.000000,39065.000000
897.000000,12063.000000,1967.000000,39059.000000
932.000000,12043.000000,1935.000000,39029.000000
903.000000,12051.000000,1932.000000,39050.000000
917.000000,12041.000000,1932.000000,39065.000000
916.000000,12075.000000,1931.000000,39023.000000
859.000000,12039.000000,1869.000000,39017.000000
888.000000,12041.000000,1914.000000,38998.000000
876.000000,12032.000000,1877.000000,39034.000000
835.000000,11768.000000,1884.000000,39003.000000
852.000000,11745.000000,1860.000000,39005.000000
811.000000,11764.000000,1852.000000,38982.000000
828.000000,11725.000000,1847.000000,38995.000000
839.000000,11735.000000,1847.000000,38983.000000
787.000000,11729.000000,1789.000000,38979.000000
796.000000,11716.000000,1805.000000,38967.000000
753.000000,11697.000000,1794.000000,38959.000000
776.000000,11667.000000,1782.000000,38947.000000
721.000000,11685.000000,1752.000000,38959.000000
722.000000,11644.000000,1730.000000,38927.000000
698.000000,11647.000000,1752.000000,38955.000000
679.000000,11633.000000,1724.000000,38944.000000
714.000000,11623.000000,1702.000000,38937.000000
669.000000,11631.000000,1728.000000,38944.000000
687.000000,11623.000000,1700.000000,38907.000000
673.000000,11629.000000,1706.000000,38911.000000
690.000000,11619.000000,1661.000000,38896.000000
697.000000,11631.000000,1677.000000,38907.000000
929.000000,11608.000000,1695.000000,38930.000000
693.000000,11639.000000,1697.000000,38912.000000
690.000000,11631.000000,1738.000000,38923.000000
715.000000,11627.000000,1727.000000,38930.000000
684.000000,11655.000000,1736.000000,38922.000000
718.000000,11652.000000,1723.000000,38944.000000
726.000000,11651.000000,1772.000000,38953.000000
717.000000,11653.000000,1719.000000,38966.000000
740.000000,11709.000000,1761.000000,38956.000000
753.000000,11671.000000,1787.000000,38949.000000
763.000000,11675.000000,1779.000000,38961.000000
766.000000,11675.000000,1739.000000,38945.000000
771.000000,11687.000000,1780.000000,38939.000000
779.000000,11699.000000,1779.000000,38985.000000
803.000000,11736.000000,1803.000000,38972.000000
827.000000,11739.000000,1827.000000,38973.000000
837.000000,11751.000000,1873.000000,39000.000000
876.000000,11771.000000,1899.000000,39043.000000
908.000000,12095.000000,1911.000000,39046.000000
911.000000,12099.000000,1967.000000,39070.000000
956.000000,12113.000000,1984.000000,39097.000000
973.000000,12143.000000,2010.000000,39098.000000
1015.000000,12169.000000,2015.000000,39126.000000
1032.000000,12191.000000,2113.000000,39135.000000
1086.000000,11935.000000,2121.000000,39151.000000
1138.000000,12255.000000,2149.000000,39177.000000
1193.000000,12045.000000,2200.000000,39193.000000
1246.000000,12051.000000,2243.000000,39249.000000
1315.000000,12100.000000,2327.000000,39293.000000
1337.000000,12156.000000,2344.000000,39307.000000
1379.000000,12164.000000,2397.000000,39299.000000
1392.000000,12203.000000,2461.000000,39335.000000
1435.000000,12216.000000,2477.000000,39359.000000
1438.000000,12247.000000,2459.000000,39403.000000
1476.000000,12241.000000,2493.000000,39373.000000
1501.000000,12288.000000,2523.000000,39372.000000
1544.000000,12279.000000,2556.000000,39413.000000
1514.000000,12305.000000,2561.000000,39413.000000
1558.000000,12311.000000,2548.000000,39411.000000
1571.000000,12327.000000,2567.000000,39421.000000
1538.000000,12292.000000,2535.000000,39403.000000
1515.000000,12329.000000,2565.000000,39400.000000
1556.000000,12321.000000,2565.000000,39450.000000
1541.000000,12284.000000,2555.000000,39403.000000
1478.000000,12271.000000,2552.000000,39401.000000
1511.000000,12260.000000,2488.000000,39392.000000
1507.000000,12283.000000,2514.000000,39372.000000
1467.000000,12259.000000,2503.000000,39379.000000
1500.000000,12267.000000,2521.000000,39375.000000
1474.000000,12235.000000,2484.000000,39367.000000
1480.000000,12267.000000,2495.000000,39385.000000
1479.000000,12235.000000,2463.000000,39371.000000
1484.000000,12235.000000,2467.000000,39389.000000
1440.000000,12191.000000,2469.000000,39359.000000
1465.000000,12255.000000,2471.000000,39351.000000
1435.000000,12239.000000,2464.000000,39359.000000
1423.000000,12219.000000,2434.000000,39363.000000
1419.000000,12247.000000,2455.000000,39363.000000
1401.000000,12199.000000,2399.000000,39332.000000
1388.000000,12203.000000,2412.000000,39335.000000
1383.000000,12203.000000,2417.000000,39317.000000
1383.000000,12176.000000,2390.000000,39361.000000
1391.000000,12191.000000,2379.000000,39331.000000
1379.000000,12161.000000,2353.000000,39297.000000
1387.000000,12147.000000,2391.000000,39303.000000
1355.000000,12132.000000,2371.000000,39289.000000
1333.000000,12128.000000,2362.000000,39271.000000
1333.000000,12149.000000,2372.000000,39311.000000
1359.000000,12156.000000,2351.000000,39307.000000
1314.000000,12115.000000,2352.000000,39297.000000
1313.000000,12144.000000,2322.000000,39265.000000
1331.000000,12119.000000,2332.000000,39288.000000
1328.000000,12144.000000,2303.000000,39272.000000
1333.000000,12111.000000,2335.000000,39277.000000
1340.000000,12143.000000,2297.000000,39300.000000
1306.000000,12131.000000,2338.000000,39276.000000
1311.000000,12127.000000,2274.000000,39279.000000
1268.000000,12141.000000,2289.000000,39257.000000
1306.000000,12113.000000,2279.000000,39271.000000
1299.000000,12123.000000,2279.000000,39237.000000
1300.000000,12119.000000,2301.000000,39257.000000
1288.000000,12113.000000,2312.000000,39276.000000
1265.000000,12093.000000,2272.000000,39255.000000
1249.000000,12077.000000,2270.000000,39257.000000
1244.000000,12051.000000,2254.000000,39239.000000
1259.000000,12039.000000,2243.000000,39227.000000
1220.000000,12047.000000,2222.000000,39207.000000
1216.000000,12041.000000,2227.000000,39211.000000
1211.000000,12284.000000,2208.000000,39215.000000
1202.000000,12043.000000,2208.000000,39211.000000
1200.000000,12280.000000,2190.000000,39231.000000
1198.000000,12284.000000,2192.000000,39224.000000
1172.000000,12249.000000,2171.000000,39213.000000
1155.000000,11943.000000,2162.000000,39172.000000
1131.000000,12244.000000,2140.000000,39189.000000
1149.000000,12227.000000,2131.000000,39152.000000
1157.000000,12232.000000,2159.000000,39161.000000
1112.000000,12201.000000,2079.000000,39133.000000
1103.000000,12208.000000,2117.000000,39152.000000
1082.000000,12199.000000,2098.000000,39150.000000
1081.000000,12163.000000,2092.000000,39141.000000
1076.000000,12179.000000,2084.000000,39153.000000
1080.000000,12163.000000,2072.000000,39135.000000
1053.000000,12167.000000,2059.000000,39135.000000
1044.000000,12179.000000,2063.000000,39135.000000
1029.000000,12141.000000,2036.000000,39107.000000
1023.000000,11880.000000,2012.000000,39101.000000
992.000000,12143.000000,2034.000000,39131.000000
1019.000000,12131.000000,2007.000000,39093.000000
979.000000,12100.000000,1992.000000,39076.000000
1017.000000,12125.000000,2004.000000,39099.000000
991.000000,12115.000000,1992.000000,39075.000000
970.000000,12088.000000,1974.000000,39112.000000
987.000000,12107.000000,1974.000000,39089.000000
965.000000,12093.000000,1954.000000,39069.000000
926.000000,12079.000000,1938.000000,39058.000000
949.000000,12119.000000,1967.000000,39075.000000
951.000000,12059.000000,1948.000000,39065.000000
925.000000,12049.000000,1927.000000,39064.000000
917.000000,11799.000000,1925.000000,39051.000000
912.000000,11772.000000,1895.000000,39026.000000
916.000000,12047.000000,1893.000000,39016.000000
869.000000,11783.000000,1877.000000,39055.000000
873.000000,11741.000000,1859.000000,39023.000000
887.000000,11771.000000,1859.000000,39034.000000
855.000000,11721.000000,1848.000000,39003.000000
852.000000,11747.000000,1835.000000,38987.000000
823.000000,11731.000000,1831.000000,38980.000000
783.000000,11711.000000,1833.000000,38997.000000
770.000000,11695.000000,1787.000000,38976.000000
764.000000,11663.000000,1769.000000,38942.000000
733.000000,11665.000000,1752.000000,38948.000000
751.000000,11636.000000,1725.000000,38947.000000
755.000000,11639.000000,1709.000000,38939.000000
719.000000,11647.000000,1693.000000,38949.000000
702.000000,11643.000000,1679.000000,38935.000000
694.000000,11619.000000,1686.000000,38912.000000
677.000000,11583.000000,1686.000000,38941.000000
661.000000,11572.000000,1692.000000,38944.000000
702.000000,11612.000000,1667.000000,38907.000000
659.000000,11604.000000,1665.000000,38944.000000
703.000000,11619.000000,1684.000000,38903.000000
689.000000,11587.000000,1686.000000,38907.000000
672.000000,11620.000000,1685.000000,38911.000000
711.000000,11632.000000,1695.000000,38934.000000
687.000000,11631.000000,1669.000000,38913.000000
686.000000,11624.000000,1680.000000,38908.000000
690.000000,11615.000000,1687.000000,38905.000000
680.000000,11623.000000,1673.000000,38923.000000
683.000000,11645.000000,1701.000000,38925.000000
716.000000,11595.000000,1719.000000,38911.000000
740.000000,11637.000000,1703.000000,38922.000000
716.000000,11648.000000,1714.000000,38944.000000
989.000000,11669.000000,1712.000000,38951.000000
756.000000,11660.000000,1742.000000,38943.000000
791.000000,11659.000000,1736.000000,38954.000000
795.000000,11675.000000,1745.000000,38947.000000
769.000000,11699.000000,1765.000000,38968.000000
797.000000,11691.000000,1796.000000,38992.000000
847.000000,11759.000000,1851.000000,39014.000000
852.000000,11753.000000,1855.000000,39035.000000
897.000000,11735.000000,1885.000000,39020.000000
924.000000,12055.000000,1904.000000,39028.000000
957.000000,12073.000000,1925.000000,39060.000000
1004.000000,12115.000000,1995.000000,39074.000000
1044.000000,12153.000000,2011.000000,39128.000000
1090.000000,12191.000000,2071.000000,39127.000000
1102.000000,12237.000000,2113.000000,39159.000000
1186.000000,12009.000000,2158.000000,39183.000000
1215.000000,12284.000000,2243.000000,39232.000000
1261.000000,12071.000000,2280.000000,39227.000000
1322.000000,12115.000000,2312.000000,39261.000000
1371.000000,12139.000000,2320.000000,39280.000000
1405.000000,12151.000000,2371.000000,39311.000000
1423.000000,12225.000000,2399.000000,39337.000000
1463.000000,12231.000000,2449.000000,39369.000000
1502.000000,12261.000000,2455.000000,39387.000000
1511.000000,12261.000000,2511.000000,39391.000000
1519.000000,12273.000000,2495.000000,39373.000000
1525.000000,12265.000000,2509.000000,39436.000000
1508.000000,12297.000000,2501.000000,39401.000000
1536.000000,12287.000000,2503.000000,39393.000000
1540.000000,12303.000000,2515.000000,39403.000000
1484.000000,12284.000000,2522.000000,39396.000000
1516.000000,12293.000000,2503.000000,39377.000000
1509.000000,12275.000000,2487.000000,39395.000000
1475.000000,12275.000000,2479.000000,39343.000000
1515.000000,12255.000000,2509.000000,39391.000000
1491.000000,12259.000000,2511.000000,39371.000000
1485.000000,12260.000000,2477.000000,39371.000000
1534.000000,12276.000000,2476.000000,39396.000000
1461.000000,12235.000000,2452.000000,39364.000000
1473.000000,12237.000000,2451.000000,39365.000000
1458.000000,12217.000000,2476.000000,39336.000000
1448.000000,12219.000000,2455.000000,39340.000000
1455.000000,12215.000000,2464.000000,39341.000000
1443.000000,12195.000000,2444.000000,39361.000000
1456.000000,12209.000000,2409.000000,39341.000000
1409.000000,12223.000000,2416.000000,39336.000000
1419.000000,12191.000000,2406.000000,39351.000000
1431.000000,12175.000000,2406.000000,39340.000000
1354.000000,12168.000000,2390.000000,39325.000000
1388.000000,12127.000000,2361.000000,39299.000000
1383.000000,12148.000000,2376.000000,39281.000000
1341.000000,12167.000000,2353.000000,39312.000000
1319.000000,12141.000000,2335.000000,39259.000000
1343.000000,12131.000000,2335.000000,39281.000000
1349.000000,12144.000000,2339.000000,39284.000000
1320.000000,12147.000000,2337.000000,39271.000000
1319.000000,12104.000000,2323.000000,39283.000000
1325.000000,12127.000000,2326.000000,39281.000000
1315.000000,12107.000000,2268.000000,39283.000000
1284.000000,12104.000000,2309.000000,39261.000000
1304.000000,12095.000000,2296.000000,39247.000000
1272.000000,12136.000000,2254.000000,39249.000000
1299.000000,12109.000000,2293.000000,39251.000000
1299.000000,12103.000000,2273.000000,39243.000000
1269.000000,12099.000000,2265.000000,39231.000000
1283.000000,12099.000000,2245.000000,39277.000000
1271.000000,12100.000000,2291.000000,39263.000000
1239.000000,12091.000000,2255.000000,39239.000000
1273.000000,12053.000000,2278.000000,39228.000000
1241.000000,12077.000000,2231.000000,39251.000000
1252.000000,12056.000000,2245.000000,39248.000000
1245.000000,12087.000000,2238.000000,39232.000000
1215.000000,12035.000000,2236.000000,39217.000000
1220.000000,12287.000000,2210.000000,39213.000000
1211.000000,12287.000000,2197.000000,39219.000000
1221.000000,12067.000000,2192.000000,39204.000000
1225.000000,12273.000000,2220.000000,39211.000000
1189.000000,12276.000000,2182.000000,39212.000000
1206.000000,12283.000000,2185.000000,39209.000000
1184.000000,11999.000000,2157.000000,39204.000000
1176.000000,12257.000000,2157.000000,39183.000000
1149.000000,12228.000000,2119.000000,39189.000000
1177.000000,12232.000000,2141.000000,39183.000000
1125.000000,12207.000000,2127.000000,39156.000000
1143.000000,11976.000000,2106.000000,39139.000000
1081.000000,12203.000000,2108.000000,39133.000000
1142.000000,12189.000000,2086.000000,39153.000000
1078.000000,11903.000000,2110.000000,39153.000000
1076.000000,12204.000000,2079.000000,39148.000000
1074.000000,12183.000000,2058.000000,39148.000000
1059.000000,12144.000000,2024.000000,39128.000000
1023.000000,11885.000000,2027.000000,39112.000000
1066.000000,12143.000000,2003.000000,39109.000000
1026.000000,12133.000000,2004.000000,39104.000000
1031.000000,12132.000000,2008.000000,39093.000000
1024.000000,12133.000000,1996.000000,39115.000000
1021.000000,12127.000000,1992.000000,39087.000000
1016.000000,12123.000000,1971.000000,39077.000000
1016.000000,12111.000000,1979.000000,39102.000000
969.000000,12117.000000,1977.000000,39101.000000
978.000000,12095.000000,1961.000000,39093.000000
951.000000,12119.000000,1952.000000,39088.000000
965.000000,12108.000000,1908.000000,39063.000000
924.000000,12072.000000,1900.000000,39059.000000
919.000000,11822.000000,1912.000000,39051.000000
913.000000,12061.000000,1912.000000,39040.000000
923.000000,12059.000000,1913.000000,39035.000000
895.000000,11814.000000,1933.000000,39053.000000
914.000000,12049.000000,1893.000000,39049.000000
903.000000,11771.000000,1907.000000,39056.000000
919.000000,12051.000000,1901.000000,39026.000000
880.000000,12041.000000,1893.000000,39055.000000
867.000000,11739.000000,1860.000000,39007.000000
893.000000,11749.000000,1807.000000,38977.000000
866.000000,11715.000000,1830.000000,39010.000000
881.000000,11729.000000,1827.000000,38991.000000
809.000000,11691.000000,1813.000000,38978.000000
829.000000,11723.000000,1812.000000,39015.000000
767.000000,11704.000000,1792.000000,38988.000000
795.000000,11704.000000,1776.000000,38981.000000
780.000000,11677.000000,1740.000000,38982.000000
746.000000,11667.000000,1740.000000,38937.000000
721.000000,11660.000000,1712.000000,38920.000000
730.000000,11655.000000,1722.000000,38927.000000
707.000000,11647.000000,1704.000000,38927.000000
709.000000,11627.000000,1687.000000,38926.000000
696.000000,11629.000000,1713.000000,38923.000000
687.000000,11619.000000,1693.000000,38936.000000
691.000000,11621.000000,1711.000000,38920.000000
681.000000,11633.000000,1718.000000,38930.000000
696.000000,11621.000000,1692.000000,38916.000000
686.000000,11621.000000,1688.000000,38932.000000
690.000000,11625.000000,1706.000000,38945.000000
692.000000,11599.000000,1695.000000,38922.000000
722.000000,11645.000000,1734.000000,38897.000000
698.000000,11596.000000,1721.000000,38933.000000
725.000000,11651.000000,1720.000000,38940.000000
721.000000,11652.000000,1730.000000,38961.000000
737.000000,11669.000000,1752.000000,38951.000000
733.000000,11655.000000,1748.000000,38955.000000
763.000000,11645.000000,1780.000000,38951.000000
759.000000,11675.000000,1748.000000,38958.000000
750.000000,11693.000000,1752.000000,38952.000000
775.000000,11692.000000,1777.000000,38964.000000
805.000000,11724.000000,1804.000000,39002.000000
813.000000,11684.000000,1813.000000,38961.000000
827.000000,11740.000000,1859.000000,39016.000000
847.000000,11771.000000,1875.000000,39044.000000
875.000000,11759.000000,1894.000000,39043.000000
891.000000,12063.000000,1884.000000,39057.000000
936.000000,12063.000000,1891.000000,39065.000000
959.000000,12091.000000,1964.000000,39055.000000
1041.000000,12095.000000,1975.000000,39109.000000
1027.000000,12171.000000,2031.000000,39103.000000
1082.000000,12207.000000,2078.000000,39151.000000
1125.000000,12211.000000,2119.000000,39191.000000
1147.000000,12245.000000,2172.000000,39179.000000
1204.000000,12280.000000,2190.000000,39227.000000
1220.000000,12068.000000,2243.000000,39240.000000
1278.000000,12107.000000,2297.000000,39259.000000
1325.000000,12136.000000,2337.000000,39287.000000
1359.000000,12164.000000,2376.000000,39313.000000
1382.000000,12207.000000,2423.000000,39356.000000
1495.000000,12240.000000,2475.000000,39373.000000
1471.000000,12253.000000,2509.000000,39372.000000
1519.000000,12273.000000,2540.000000,39388.000000
1554.000000,12307.000000,2584.000000,39407.000000
1573.000000,12287.000000,2583.000000,39451.000000
1580.000000,12355.000000,2612.000000,39452.000000
1563.000000,12311.000000,2589.000000,39437.000000
1574.000000,12332.000000,2571.000000,39437.000000
1589.000000,12331.000000,2596.000000,39442.000000
1585.000000,12295.000000,2547.000000,39445.000000
1576.000000,12327.000000,2577.000000,39432.000000
1573.000000,12326.000000,2588.000000,39424.000000
1579.000000,12352.000000,2578.000000,39443.000000
1546.000000,12345.000000,2578.000000,39424.000000
1578.000000,12316.000000,2560.000000,39413.000000
1515.000000,12303.000000,2569.000000,39413.000000
1548.000000,12317.000000,2582.000000,39426.000000
1507.000000,12307.000000,2555.000000,39436.000000
1536.000000,12269.000000,2531.000000,39419.000000
1523.000000,12267.000000,2511.000000,39400.000000
1519.000000,12313.000000,2543.000000,39425.000000
1523.000000,12289.000000,2493.000000,39400.000000
1467.000000,12261.000000,2491.000000,39379.000000
1484.000000,12289.000000,2497.000000,39376.000000
1471.000000,12267.000000,2496.000000,39395.000000
1479.000000,12260.000000,2455.000000,39372.000000
1459.000000,12207.000000,2487.000000,39369.000000
1429.000000,12227.000000,2472.000000,39374.000000
1445.000000,12239.000000,2449.000000,39373.000000
1419.000000,12213.000000,2467.000000,39383.000000
1395.000000,12203.000000,2427.000000,39320.000000
1411.000000,12231.000000,2420.000000,39355.000000
1403.000000,12239.000000,2404.000000,39337.000000
1378.000000,12201.000000,2403.000000,39339.000000
1407.000000,12171.000000,2432.000000,39332.000000
1387.000000,12199.000000,2404.000000,39332.000000
1385.000000,12200.000000,2422.000000,39333.000000
1371.000000,12188.000000,2400.000000,39339.000000
1376.000000,12184.000000,2409.000000,39320.000000
1368.000000,12177.000000,2383.000000,39325.000000
1390.000000,12175.000000,2358.000000,39295.000000
1317.000000,12139.000000,2394.000000,39320.000000
1360.000000,12176.000000,2397.000000,39333.000000
1323.000000,12159.000000,2335.000000,39320.000000
1355.000000,12159.000000,2365.000000,39311.000000
1316.000000,12147.000000,2348.000000,39292.000000
1307.000000,12151.000000,2344.000000,39303.000000
1319.000000,12140.000000,2323.000000,39289.000000
1302.000000,12115.000000,2327.000000,39271.000000
1307.000000,12131.000000,2310.000000,39297.000000
1305.000000,12116.000000,2313.000000,39271.000000
1309.000000,12115.000000,2300.000000,39269.000000
1315.000000,12145.000000,2289.000000,39259.000000
1293.000000,12071.000000,2242.000000,39260.000000
1300.000000,12073.000000,2308.000000,39271.000000
1272.000000,12091.000000,2271.000000,39221.000000
1287.000000,12093.000000,2251.000000,39243.000000
1225.000000,12063.000000,2258.000000,39239.000000
1237.000000,12097.000000,2230.000000,39239.000000
1232.000000,12071.000000,2200.000000,39231.000000
1220.000000,12047.000000,2221.000000,39223.000000
1201.000000,12073.000000,2192.000000,39235.000000
1195.000000,12040.000000,2204.000000,39216.000000
1169.000000,12044.000000,2207.000000,39207.000000
1155.000000,12037.000000,2185.000000,39201.000000
1151.000000,12013.000000,2177.000000,39207.000000
1161.000000,12237.000000,2165.000000,39199.000000
1135.000000,12255.000000,2144.000000,39199.000000
1135.000000,12247.000000,2119.000000,39207.000000
1131.000000,12247.000000,2125.000000,39203.000000
1106.000000,12220.000000,2096.000000,39195.000000
1091.000000,12213.000000,2114.000000,39167.000000
1088.000000,11952.000000,2098.000000,39151.000000
1068.000000,12207.000000,2099.000000,39151.000000
1059.000000,12211.000000,2094.000000,39150.000000
1039.000000,11905.000000,2082.000000,39125.000000
1052.000000,12193.000000,2102.000000,39150.000000
1050.000000,12175.000000,2052.000000,39144.000000
1041.000000,12133.000000,2049.000000,39107.000000
1015.000000,12151.000000,2019.000000,39138.000000
1016.000000,12163.000000,2027.000000,39112.000000
1010.000000,12155.000000,2021.000000,39112.000000
996.000000,12161.000000,2011.000000,39116.000000
1033.000000,12136.000000,2018.000000,39120.000000
1005.000000,12148.000000,2017.000000,39120.000000
995.000000,11872.000000,2039.000000,39109.000000
1015.000000,12116.000000,2023.000000,39096.000000
983.000000,12128.000000,1983.000000,39090.000000
951.000000,11859.000000,1981.000000,39089.000000
955.000000,12119.000000,1996.000000,39107.000000
979.000000,12103.000000,2007.000000,39096.000000
947.000000,12108.000000,1974.000000,39104.000000
938.000000,11867.000000,1983.000000,39067.000000
936.000000,12085.000000,1992.000000,39104.000000
900.000000,12095.000000,1955.000000,39098.000000
892.000000,12081.000000,1963.000000,39061.000000
873.000000,12036.000000,1892.000000,39026.000000
907.000000,12064.000000,1885.000000,39043.000000
861.000000,11765.000000,1876.000000,39053.000000
841.000000,11724.000000,1893.000000,39035.000000
839.000000,11769.000000,1851.000000,39003.000000
839.000000,11761.000000,1869.000000,38987.000000
819.000000,11739.000000,1839.000000,39005.000000
795.000000,11732.000000,1855.000000,39011.000000
791.000000,11733.000000,1828.000000,38991.000000
789.000000,11764.000000,1831.000000,38999.000000
775.000000,11727.000000,1810.000000,38999.000000
788.000000,11701.000000,1807.000000,38979.000000
760.000000,11707.000000,1823.000000,38990.000000
1015.000000,11729.000000,1813.000000,39011.000000
757.000000,11704.000000,1799.000000,39001.000000
776.000000,11695.000000,1807.000000,38988.000000
773.000000,11687.000000,1813.000000,38980.000000
767.000000,11743.000000,1829.000000,38975.000000
784.000000,11693.000000,1824.000000,38976.000000
775.000000,11715.000000,1853.000000,39022.000000
768.000000,11715.000000,1820.000000,38998.000000
795.000000,11687.000000,1835.000000,39005.000000
807.000000,11719.000000,1847.000000,39014.000000
803.000000,11721.000000,1865.000000,39038.000000
807.000000,11763.000000,1857.000000,38995.000000
804.000000,12033.000000,1844.000000,38988.000000
820.000000,12045.000000,1863.000000,39009.000000
807.000000,12040.000000,1887.000000,39048.000000
851.000000,12035.000000,1912.000000,39032.000000
843.000000,11773.000000,1923.000000,39031.000000
860.000000,11813.000000,1917.000000,39060.000000
925.000000,12059.000000,1947.000000,39061.000000
913.000000,12095.000000,1950.000000,39074.000000
916.000000,12117.000000,1971.000000,39078.000000
944.000000,12143.000000,1996.000000,39100.000000
982.000000,12169.000000,2056.000000,39117.000000
1004.000000,12187.000000,2078.000000,39173.000000
1067.000000,12207.000000,2114.000000,39157.000000
1080.000000,12267.000000,2160.000000,39196.000000
1096.000000,12239.000000,2209.000000,39215.000000
1181.000000,12275.000000,2253.000000,39248.000000
1192.000000,12073.000000,2278.000000,39260.000000
1255.000000,12105.000000,2309.000000,39296.000000
1317.000000,12131.000000,2331.000000,39303.000000
1359.000000,12172.000000,2392.000000,39317.000000
1375.000000,12215.000000,2453.000000,39327.000000
1432.000000,12221.000000,2467.000000,39387.000000
1471.000000,12291.000000,2535.000000,39408.000000
1494.000000,12273.000000,2548.000000,39399.000000
1523.000000,12323.000000,2568.000000,39436.000000
1515.000000,12317.000000,2611.000000,39468.000000
1542.000000,12332.000000,2600.000000,39448.000000
1532.000000,12367.000000,2638.000000,39471.000000
1560.000000,12381.000000,2622.000000,39459.000000
1550.000000,12364.000000,2620.000000,39485.000000
1540.000000,12323.000000,2617.000000,39468.000000
1568.000000,12357.000000,2626.000000,39495.000000
1551.000000,12341.000000,2627.000000,39480.000000
1515.000000,12307.000000,2589.000000,39448.000000
1521.000000,12309.000000,2578.000000,39431.000000
1499.000000,12347.000000,2591.000000,39440.000000
1533.000000,12327.000000,2581.000000,39424.000000
1497.000000,12319.000000,2556.000000,39689.000000
1513.000000,12300.000000,2598.000000,39399.000000
1512.000000,12295.000000,2525.000000,39396.000000
1467.000000,12299.000000,2528.000000,39416.000000
1475.000000,12292.000000,2535.000000,39399.000000
1468.000000,12239.000000,2528.000000,39399.000000
1471.000000,12251.000000,2510.000000,39385.000000
1459.000000,12237.000000,2492.000000,39387.000000
1424.000000,12240.000000,2504.000000,39413.000000
1439.000000,12251.000000,2513.000000,39409.000000
1405.000000,12245.000000,2489.000000,39379.000000
1399.000000,12240.000000,2443.000000,39365.000000
1408.000000,12204.000000,2440.000000,39356.000000
1403.000000,12231.000000,2452.000000,39365.000000
1355.000000,12207.000000,2407.000000,39347.000000
1362.000000,12196.000000,2429.000000,39333.000000
1387.000000,12207.000000,2440.000000,39360.000000
1359.000000,12219.000000,2419.000000,39333.000000
1336.000000,12205.000000,2454.000000,39369.000000
1317.000000,12169.000000,2425.000000,39323.000000
1359.000000,12203.000000,2436.000000,39336.000000
1287.000000,12143.000000,2359.000000,39324.000000
1287.000000,12155.000000,2357.000000,39320.000000
1306.000000,12135.000000,2367.000000,39311.000000
1289.000000,12188.000000,2329.000000,39319.000000
1316.000000,12136.000000,2356.000000,39299.000000
1304.000000,12145.000000,2367.000000,39316.000000
1305.000000,12151.000000,2349.000000,39313.000000
1267.000000,12153.000000,2348.000000,39272.000000
1300.000000,12140.000000,2332.000000,39327.000000
1283.000000,12124.000000,2330.000000,39295.000000
1287.000000,12148.000000,2344.000000,39299.000000
1300.000000,12125.000000,2315.000000,39308.000000
1274.000000,12105.000000,2327.000000,39301.000000
1208.000000,12097.000000,2317.000000,39285.000000
1226.000000,12115.000000,2297.000000,39269.000000
1201.000000,12119.000000,2310.000000,39260.000000
1218.000000,12056.000000,2295.000000,39256.000000
1203.000000,12088.000000,2268.000000,39259.000000
1203.000000,12043.000000,2275.000000,39255.000000
1224.000000,12068.000000,2285.000000,39259.000000
1185.000000,12071.000000,2240.000000,39257.000000
1139.000000,12049.000000,2257.000000,39228.000000
1127.000000,12287.000000,2199.000000,39213.000000
1145.000000,12035.000000,2251.000000,39248.000000
1146.000000,12015.000000,2199.000000,39207.000000
1119.000000,12249.000000,2193.000000,39212.000000
1087.000000,12256.000000,2195.000000,39187.000000
1092.000000,12279.000000,2200.000000,39196.000000
1096.000000,11997.000000,2172.000000,39175.000000
1111.000000,12235.000000,2167.000000,39176.000000
1105.000000,11983.000000,2163.000000,39192.000000
1077.000000,11971.000000,2127.000000,39191.000000
1043.000000,11916.000000,2110.000000,39169.000000
1025.000000,12225.000000,2098.000000,39168.000000
1030.000000,12192.000000,2125.000000,39175.000000
971.000000,11906.000000,2100.000000,39142.000000
1012.000000,12151.000000,2076.000000,39154.000000
968.000000,12173.000000,2092.000000,39134.000000
991.000000,12191.000000,2050.000000,39138.000000
969.000000,12128.000000,2047.000000,39121.000000
963.000000,12143.000000,2038.000000,39134.000000
938.000000,12164.000000,2058.000000,39126.000000
939.000000,11872.000000,2030.000000,39123.000000
932.000000,12161.000000,2039.000000,39120.000000
952.000000,11860.000000,2051.000000,39161.000000
968.000000,12156.000000,2027.000000,39129.000000
911.000000,12117.000000,2030.000000,39110.000000
939.000000,12087.000000,2037.000000,39125.000000
887.000000,12079.000000,2040.000000,39119.000000
911.000000,12116.000000,2000.000000,39101.000000
898.000000,12068.000000,1983.000000,39052.000000
911.000000,12083.000000,1971.000000,39087.000000
904.000000,12084.000000,1956.000000,39110.000000
901.000000,12083.000000,1996.000000,39093.000000
863.000000,12083.000000,1983.000000,39092.000000
864.000000,12084.000000,1943.000000,39091.000000
833.000000,12063.000000,1955.000000,39081.000000
839.000000,11765.000000,1944.000000,39072.000000
789.000000,11767.000000,1938.000000,39054.000000
813.000000,11739.000000,1924.000000,39041.000000
816.000000,11767.000000,1903.000000,39041.000000
779.000000,11753.000000,1915.000000,39040.000000
768.000000,11744.000000,1902.000000,39040.000000
764.000000,11739.000000,1873.000000,39000.000000
733.000000,11727.000000,1875.000000,39019.000000
738.000000,11709.000000,1832.000000,39037.000000
981.000000,11698.000000,1861.000000,38991.000000
718.000000,11691.000000,1843.000000,39003.000000
733.000000,11725.000000,1815.000000,38987.000000
728.000000,11707.000000,1874.000000,39043.000000
741.000000,11757.000000,1859.000000,39024.000000
758.000000,11724.000000,1879.000000,39029.000000
746.000000,11763.000000,1863.000000,39008.000000
743.000000,11773.000000,1855.000000,39027.000000
728.000000,11721.000000,1855.000000,39043.000000
748.000000,11744.000000,1870.000000,39028.000000
742.000000,11760.000000,1885.000000,39043.000000
766.000000,11737.000000,1884.000000,39025.000000
761.000000,11759.000000,1895.000000,39025.000000
788.000000,11752.000000,1879.000000,39035.000000
789.000000,12037.000000,1928.000000,39012.000000
834.000000,11773.000000,1922.000000,39071.000000
787.000000,12045.000000,1954.000000,39062.000000
801.000000,11776.000000,1935.000000,39058.000000
819.000000,12067.000000,1961.000000,39076.000000
839.000000,12104.000000,1947.000000,39084.000000
837.000000,12081.000000,1995.000000,39088.000000
840.000000,11864.000000,1976.000000,39119.000000
864.000000,12131.000000,2052.000000,39124.000000
934.000000,11874.000000,2077.000000,39131.000000
935.000000,11882.000000,2069.000000,39144.000000
1002.000000,12205.000000,2108.000000,39168.000000
1009.000000,11945.000000,2143.000000,39191.000000
1023.000000,12000.000000,2190.000000,39177.000000
1066.000000,12047.000000,2212.000000,39232.000000
1105.000000,12279.000000,2231.000000,39251.000000
1123.000000,12103.000000,2292.000000,39296.000000
1164.000000,12092.000000,2364.000000,39335.000000
1227.000000,12139.000000,2392.000000,39331.000000
1272.000000,12188.000000,2428.000000,39339.000000
1313.000000,12239.000000,2475.000000,39339.000000
1355.000000,12228.000000,2521.000000,39395.000000
1407.000000,12283.000000,2566.000000,39420.000000
1431.000000,12288.000000,2610.000000,39432.000000
1483.000000,12363.000000,2644.000000,39453.000000
1496.000000,12360.000000,2657.000000,39492.000000
1521.000000,12395.000000,2685.000000,39503.000000
1535.000000,12406.000000,2726.000000,39514.000000
1520.000000,12368.000000,2723.000000,39496.000000
1577.000000,12395.000000,2730.000000,39502.000000
1577.000000,12411.000000,2709.000000,39514.000000
1579.000000,12383.000000,2704.000000,39494.000000
1573.000000,12419.000000,2731.000000,39537.000000
1573.000000,12417.000000,2719.000000,39499.000000
1562.000000,12417.000000,2731.000000,39534.000000
1545.000000,12380.000000,2715.000000,39498.000000
1557.000000,12412.000000,2735.000000,39514.000000
1839.000000,12404.000000,2722.000000,39521.000000
1551.000000,12429.000000,2697.000000,39540.000000
1536.000000,12399.000000,2687.000000,39495.000000
1539.000000,12391.000000,2722.000000,39476.000000
1512.000000,12355.000000,2671.000000,39494.000000
1482.000000,12376.000000,2649.000000,39471.000000
1487.000000,12335.000000,2662.000000,39473.000000
1490.000000,12360.000000,2654.000000,39475.000000
1482.000000,12363.000000,2623.000000,39485.000000
1456.000000,12367.000000,2614.000000,39449.000000
1471.000000,12347.000000,2630.000000,39451.000000
1484.000000,12381.000000,2662.000000,39470.000000
1423.000000,12300.000000,2613.000000,39443.000000
1447.000000,12317.000000,2629.000000,39697.000000
1461.000000,12311.000000,2607.000000,39451.000000
1453.000000,12303.000000,2604.000000,39425.000000
1439.000000,12283.000000,2578.000000,39437.000000
1403.000000,12277.000000,2583.000000,39421.000000
1417.000000,12296.000000,2603.000000,39419.000000
1391.000000,12253.000000,2561.000000,39413.000000
1389.000000,12295.000000,2579.000000,39411.000000
1368.000000,12267.000000,2553.000000,39411.000000
1408.000000,12284.000000,2573.000000,39415.000000
1369.000000,12304.000000,2547.000000,39389.000000
1371.000000,12247.000000,2529.000000,39419.000000
1353.000000,12276.000000,2531.000000,39395.000000
1392.000000,12273.000000,2570.000000,39413.000000
1369.000000,12248.000000,2562.000000,39383.000000
1367.000000,12255.000000,2581.000000,39415.000000
1360.000000,12240.000000,2533.000000,39388.000000
1335.000000,12247.000000,2538.000000,39423.000000
1355.000000,12239.000000,2553.000000,39404.000000
1321.000000,12244.000000,2529.000000,39373.000000
1343.000000,12265.000000,2495.000000,39368.000000
1330.000000,12239.000000,2498.000000,39383.000000
1319.000000,12199.000000,2487.000000,39379.000000
1315.000000,12215.000000,2512.000000,39365.000000
1304.000000,12211.000000,2504.000000,39375.000000
1295.000000,12219.000000,2479.000000,39367.000000
1317.000000,12215.000000,2478.000000,39373.000000
1303.000000,12243.000000,2493.000000,39395.000000
1297.000000,12204.000000,2462.000000,39347.000000
1254.000000,12196.000000,2439.000000,39359.000000
1277.000000,12211.000000,2470.000000,39361.000000
1242.000000,12160.000000,2444.000000,39335.000000
1239.000000,12168.000000,2424.000000,39335.000000
1241.000000,12163.000000,2428.000000,39345.000000
1212.000000,12119.000000,2387.000000,39327.000000
1234.000000,12123.000000,2393.000000,39320.000000
1239.000000,12148.000000,2394.000000,39291.000000
1201.000000,12128.000000,2367.000000,39293.000000
1195.000000,12107.000000,2399.000000,39269.000000
1176.000000,12095.000000,2350.000000,39279.000000
1155.000000,12077.000000,2348.000000,39315.000000
1137.000000,12080.000000,2342.000000,39284.000000
1114.000000,12079.000000,2321.000000,39268.000000
1132.000000,12115.000000,2305.000000,39272.000000
1087.000000,12063.000000,2295.000000,39279.000000
1091.000000,12283.000000,2256.000000,39260.000000
1069.000000,12061.000000,2281.000000,39250.000000
1064.000000,12283.000000,2231.000000,39215.000000
1051.000000,12255.000000,2267.000000,39228.000000
1053.000000,12043.000000,2258.000000,39239.000000
1060.000000,12279.000000,2235.000000,39255.000000
1048.000000,12002.000000,2216.000000,39257.000000
1036.000000,12251.000000,2228.000000,39223.000000
1030.000000,12243.000000,2202.000000,39226.000000
1007.000000,11997.000000,2194.000000,39193.000000
1035.000000,11993.000000,2210.000000,39195.000000
1012.000000,12229.000000,2192.000000,39184.000000
1001.000000,11969.000000,2170.000000,39193.000000
980.000000,12203.000000,2189.000000,39219.000000
1008.000000,12221.000000,2173.000000,39228.000000
1002.000000,12232.000000,2181.000000,39181.000000
983.000000,12247.000000,2172.000000,39216.000000
965.000000,11963.000000,2177.000000,39191.000000
922.000000,12197.000000,2117.000000,39172.000000
931.000000,12191.000000,2111.000000,39179.000000
912.000000,12184.000000,2123.000000,39171.000000
927.000000,11927.000000,2133.000000,39154.000000
896.000000,12151.000000,2082.000000,39155.000000
879.000000,12133.000000,2077.000000,39153.000000
870.000000,12123.000000,2048.000000,39114.000000
871.000000,12097.000000,2066.000000,39124.000000
847.000000,12132.000000,2044.000000,39105.000000
835.000000,11834.000000,2047.000000,39143.000000
801.000000,12087.000000,2011.000000,39113.000000
815.000000,12107.000000,2047.000000,39097.000000
811.000000,12071.000000,2023.000000,39087.000000
756.000000,11816.000000,1984.000000,39091.000000
779.000000,12059.000000,1980.000000,39101.000000
766.000000,12040.000000,1980.000000,39093.000000
767.000000,12072.000000,1991.000000,39090.000000
753.000000,11792.000000,1979.000000,39052.000000
764.000000,12032.000000,1940.000000,39091.000000
758.000000,12076.000000,1994.000000,39073.000000
793.000000,12068.000000,2015.000000,39091.000000
793.000000,12052.000000,1968.000000,39128.000000
797.000000,12097.000000,1994.000000,39082.000000
793.000000,12056.000000,2020.000000,39109.000000
781.000000,12133.000000,2001.000000,39076.000000
814.000000,12099.000000,2005.000000,39094.000000
811.000000,11837.000000,2024.000000,39098.000000
801.000000,12085.000000,2023.000000,39089.000000
779.000000,12133.000000,2060.000000,39119.000000
847.000000,11872.000000,2062.000000,39130.000000
852.000000,12093.000000,2085.000000,39134.000000
845.000000,12143.000000,2074.000000,39117.000000
889.000000,12143.000000,2108.000000,39144.000000
902.000000,12151.000000,2106.000000,39144.000000
907.000000,12184.000000,2108.000000,39147.000000
916.000000,12216.000000,2130.000000,39193.000000
963.000000,12212.000000,2182.000000,39195.000000
973.000000,12225.000000,2172.000000,39197.000000
991.000000,12256.000000,2191.000000,39199.000000
1027.000000,12259.000000,2244.000000,39225.000000
1027.000000,12277.000000,2288.000000,39241.000000
1104.000000,12087.000000,2296.000000,39280.000000
1095.000000,12079.000000,2353.000000,39289.000000
1143.000000,12124.000000,2365.000000,39293.000000
1169.000000,12140.000000,2395.000000,39363.000000
1219.000000,12191.000000,2412.000000,39299.000000
1247.000000,12191.000000,2489.000000,39331.000000
1260.000000,12239.000000,2528.000000,39376.000000
1376.000000,12268.000000,2600.000000,39401.000000
1409.000000,12321.000000,2634.000000,39436.000000
1421.000000,12347.000000,2639.000000,39463.000000
1480.000000,12388.000000,2749.000000,39526.000000
1511.000000,12415.000000,2765.000000,39540.000000
1531.000000,12463.000000,2784.000000,39546.000000
1562.000000,12426.000000,2806.000000,39554.000000
1841.000000,12460.000000,2825.000000,39816.000000
1630.000000,12501.000000,2847.000000,39603.000000
1646.000000,12519.000000,2842.000000,39580.000000
1625.000000,12509.000000,2891.000000,39575.000000
1624.000000,12506.000000,2891.000000,39567.000000
1892.000000,12499.000000,2857.000000,39592.000000
1616.000000,12504.000000,2841.000000,39587.000000
1606.000000,12489.000000,2814.000000,39571.000000
1604.000000,12443.000000,2826.000000,39547.000000
1600.000000,12449.000000,2871.000000,39584.000000
1610.000000,12468.000000,2815.000000,39557.000000
1600.000000,12455.000000,2808.000000,39547.000000
1576.000000,12459.000000,2824.000000,39596.000000
1567.000000,12464.000000,2799.000000,39570.000000
1563.000000,12450.000000,2793.000000,39552.000000
1583.000000,12451.000000,2770.000000,39575.000000
1553.000000,12451.000000,2798.000000,39536.000000
1566.000000,12466.000000,2781.000000,39523.000000
1515.000000,12457.000000,2781.000000,39533.000000
1524.000000,12401.000000,2760.000000,39541.000000
1531.000000,12423.000000,2736.000000,39541.000000
1516.000000,12395.000000,2750.000000,39532.000000
1497.000000,12421.000000,2727.000000,39512.000000
1481.000000,12385.000000,2702.000000,39491.000000
1525.000000,12403.000000,2737.000000,39484.000000
1475.000000,12373.000000,2727.000000,39520.000000
1499.000000,12401.000000,2724.000000,39514.000000
1425.000000,12379.000000,2711.000000,39521.000000
1455.000000,12380.000000,2684.000000,39764.000000
1445.000000,12347.000000,2667.000000,39455.000000
1431.000000,12324.000000,2666.000000,39512.000000
1435.000000,12387.000000,2669.000000,39442.000000
1420.000000,12339.000000,2652.000000,39479.000000
1425.000000,12332.000000,2671.000000,39483.000000
1407.000000,12335.000000,2665.000000,39443.000000
1408.000000,12345.000000,2652.000000,39445.000000
1403.000000,12347.000000,2664.000000,39451.000000
1393.000000,12335.000000,2653.000000,39447.000000
1412.000000,12331.000000,2648.000000,39455.000000
1381.000000,12313.000000,2651.000000,39472.000000
1392.000000,12317.000000,2629.000000,39452.000000
1363.000000,12309.000000,2619.000000,39425.000000
1399.000000,12316.000000,2629.000000,39420.000000
1346.000000,12291.000000,2622.000000,39425.000000
1363.000000,12281.000000,2572.000000,39427.000000
1343.000000,12291.000000,2566.000000,39424.000000
1360.000000,12271.000000,2581.000000,39435.000000
1329.000000,12251.000000,2551.000000,39416.000000
1300.000000,12264.000000,2555.000000,39431.000000
1375.000000,12261.000000,2543.000000,39413.000000
1300.000000,12247.000000,2562.000000,39401.000000
1324.000000,12235.000000,2541.000000,39393.000000
1311.000000,12256.000000,2527.000000,39387.000000
1300.000000,12231.000000,2513.000000,39380.000000
1279.000000,12219.000000,2503.000000,39369.000000
1291.000000,12219.000000,2519.000000,39403.000000
1251.000000,12228.000000,2481.000000,39389.000000
1263.000000,12195.000000,2466.000000,39355.000000
1202.000000,12176.000000,2451.000000,39367.000000
1251.000000,12207.000000,2460.000000,39383.000000
1227.000000,12172.000000,2429.000000,39355.000000
1177.000000,12183.000000,2415.000000,39324.000000
1170.000000,12173.000000,2423.000000,39339.000000
1214.000000,12151.000000,2415.000000,39333.000000
1135.000000,12132.000000,2408.000000,39317.000000
1170.000000,12151.000000,2399.000000,39315.000000
1178.000000,12104.000000,2396.000000,39275.000000
1167.000000,12115.000000,2372.000000,39315.000000
1150.000000,12100.000000,2345.000000,39303.000000
1136.000000,12115.000000,2354.000000,39277.000000
1126.000000,12113.000000,2339.000000,39292.000000
1085.000000,12083.000000,2289.000000,39259.000000
1079.000000,12059.000000,2316.000000,39283.000000
1079.000000,12073.000000,2312.000000,39272.000000
1091.000000,12099.000000,2279.000000,39279.000000
1065.000000,12061.000000,2288.000000,39267.000000
1046.000000,12285.000000,2262.000000,39231.000000
1065.000000,12063.000000,2299.000000,39243.000000
1048.000000,12039.000000,2230.000000,39218.000000
1056.000000,12049.000000,2252.000000,39239.000000
1007.000000,12268.000000,2222.000000,39243.000000
1012.000000,12247.000000,2225.000000,39231.000000
987.000000,12263.000000,2245.000000,39243.000000
1018.000000,12275.000000,2192.000000,39207.000000
1019.000000,12252.000000,2211.000000,39217.000000
992.000000,12247.000000,2191.000000,39200.000000
985.000000,11999.000000,2170.000000,39191.000000
981.000000,11969.000000,2175.000000,39195.000000
941.000000,12233.000000,2139.000000,39188.000000
932.000000,12212.000000,2160.000000,39179.000000
923.000000,11921.000000,2129.000000,39199.000000
943.000000,12187.000000,2093.000000,39155.000000
919.000000,12203.000000,2097.000000,39171.000000
899.000000,12149.000000,2113.000000,39151.000000
871.000000,11877.000000,2057.000000,39158.000000
846.000000,12128.000000,2059.000000,39137.000000
789.000000,12143.000000,2031.000000,39131.000000
801.000000,12095.000000,2020.000000,39108.000000
847.000000,12113.000000,2023.000000,39110.000000
778.000000,11848.000000,1984.000000,39114.000000
766.000000,11833.000000,1989.000000,39108.000000
747.000000,12035.000000,1969.000000,39101.000000
771.000000,12056.000000,1987.000000,39094.000000
752.000000,11775.000000,1956.000000,39060.000000
735.000000,12043.000000,1952.000000,39096.000000
992.000000,12047.000000,1955.000000,39112.000000
754.000000,12039.000000,1924.000000,39071.000000
721.000000,12053.000000,1903.000000,39071.000000
697.000000,12053.000000,1952.000000,39072.000000
750.000000,12065.000000,1937.000000,39065.000000
722.000000,12051.000000,1940.000000,39067.000000
738.000000,12059.000000,1919.000000,39063.000000
765.000000,12067.000000,1980.000000,39085.000000
768.000000,12049.000000,1987.000000,39078.000000
747.000000,12091.000000,1957.000000,39093.000000
779.000000,12087.000000,1974.000000,39081.000000
764.000000,11829.000000,2013.000000,39096.000000
801.000000,12087.000000,2003.000000,39123.000000
828.000000,12131.000000,2013.000000,39102.000000
824.000000,12137.000000,2023.000000,39115.000000
799.000000,12143.000000,2043.000000,39127.000000
859.000000,12119.000000,2051.000000,39147.000000
836.000000,12129.000000,2073.000000,39145.000000
872.000000,12180.000000,2110.000000,39150.000000
887.000000,11976.000000,2099.000000,39150.000000
936.000000,12179.000000,2141.000000,39180.000000
919.000000,12219.000000,2185.000000,39191.000000
988.000000,11975.000000,2170.000000,39216.000000
1015.000000,12007.000000,2233.000000,39227.000000
995.000000,12032.000000,2249.000000,39215.000000
1043.000000,12053.000000,2251.000000,39244.000000
1071.000000,12075.000000,2292.000000,39249.000000
1064.000000,12084.000000,2339.000000,39272.000000
1134.000000,12133.000000,2359.000000,39323.000000
1184.000000,12181.000000,2411.000000,39343.000000
1257.000000,12197.000000,2451.000000,39341.000000
1308.000000,12231.000000,2521.000000,39365.000000
1333.000000,12283.000000,2523.000000,39399.000000
1324.000000,12311.000000,2612.000000,39462.000000
1447.000000,12335.000000,2647.000000,39461.000000
1451.000000,12383.000000,2692.000000,39476.000000
1481.000000,12377.000000,2690.000000,39747.000000
1531.000000,12427.000000,2745.000000,39531.000000
1558.000000,12476.000000,2794.000000,39544.000000
1605.000000,12464.000000,2831.000000,39553.000000
1606.000000,12499.000000,2843.000000,39557.000000
1614.000000,12503.000000,2831.000000,39564.000000
1608.000000,12499.000000,2848.000000,39575.000000
1663.000000,12505.000000,2855.000000,39585.000000
1635.000000,12489.000000,2848.000000,39593.000000
1645.000000,12496.000000,2892.000000,39596.000000
1606.000000,12524.000000,2867.000000,39580.000000
1601.000000,12481.000000,2828.000000,39584.000000
1622.000000,12520.000000,2875.000000,39620.000000
1608.000000,12476.000000,2833.000000,39575.000000
1616.000000,12475.000000,2831.000000,39587.000000
1599.000000,12483.000000,2836.000000,39558.000000
1577.000000,12488.000000,2814.000000,39600.000000
1597.000000,12460.000000,2806.000000,39797.000000
1587.000000,12444.000000,2761.000000,39581.000000
1586.000000,12458.000000,2810.000000,39555.000000
1562.000000,12439.000000,2773.000000,39543.000000
1582.000000,12456.000000,2790.000000,39540.000000
1549.000000,12446.000000,2794.000000,39558.000000
1542.000000,12439.000000,2783.000000,39521.000000
1527.000000,12433.000000,2750.000000,39520.000000
1547.000000,12457.000000,2747.000000,39516.000000
1532.000000,12411.000000,2747.000000,39544.000000
1512.000000,12403.000000,2765.000000,39510.000000
1499.000000,12439.000000,2704.000000,39511.000000
1491.000000,12396.000000,2719.000000,39491.000000
1507.000000,12421.000000,2729.000000,39515.000000
1461.000000,12383.000000,2704.000000,39490.000000
1467.000000,12403.000000,2703.000000,39500.000000
1447.000000,12375.000000,2720.000000,39483.000000
1477.000000,12348.000000,2936.000000,39492.000000
1453.000000,12335.000000,2666.000000,39495.000000
1454.000000,12325.000000,2660.000000,39472.000000
1457.000000,12340.000000,2668.000000,39479.000000
1423.000000,12379.000000,2657.000000,39487.000000
1436.000000,12331.000000,2649.000000,39453.000000
1428.000000,12339.000000,2643.000000,39471.000000
1425.000000,12343.000000,2658.000000,39465.000000
1409.000000,12343.000000,2654.000000,39461.000000
1408.000000,12339.000000,2633.000000,39467.000000
1408.000000,12340.000000,2656.000000,39474.000000
1393.000000,12316.000000,2611.000000,39451.000000
1376.000000,12333.000000,2610.000000,39433.000000
1383.000000,12329.000000,2627.000000,39459.000000
1383.000000,12315.000000,2595.000000,39427.000000
1372.000000,12260.000000,2577.000000,39419.000000
1357.000000,12300.000000,2610.000000,39444.000000
1376.000000,12312.000000,2556.000000,39415.000000
1364.000000,12304.000000,2575.000000,39407.000000
1363.000000,12284.000000,2580.000000,39429.000000
1344.000000,12292.000000,2557.000000,39423.000000
1320.000000,12293.000000,2556.000000,39436.000000
1323.000000,12253.000000,2560.000000,39421.000000
1299.000000,12227.000000,2547.000000,39411.000000
1303.000000,12247.000000,2514.000000,39400.000000
1300.000000,12247.000000,2545.000000,39403.000000
1275.000000,12217.000000,2510.000000,39381.000000
1300.000000,12231.000000,2495.000000,39387.000000
1287.000000,12209.000000,2479.000000,39369.000000
1260.000000,12219.000000,2467.000000,39367.000000
1241.000000,12211.000000,2472.000000,39344.000000
1228.000000,12212.000000,2479.000000,39345.000000
1221.000000,12176.000000,2465.000000,39343.000000
1225.000000,12195.000000,2415.000000,39355.000000
1183.000000,12197.000000,2436.000000,39332.000000
1222.000000,12191.000000,2411.000000,39351.000000
1216.000000,12163.000000,2418.000000,39327.000000
1187.000000,12157.000000,2403.000000,39331.000000
1162.000000,12133.000000,2400.000000,39316.000000
1153.000000,12123.000000,2368.000000,39303.000000
1175.000000,12147.000000,2381.000000,39337.000000
1150.000000,12117.000000,2372.000000,39312.000000
1137.000000,12139.000000,2364.000000,39289.000000
1119.000000,12099.000000,2348.000000,39287.000000
1139.000000,12097.000000,2345.000000,39263.000000
1126.000000,12120.000000,2351.000000,39251.000000
1108.000000,12096.000000,2343.000000,39284.000000
1124.000000,12096.000000,2321.000000,39291.000000
1114.000000,12049.000000,2287.000000,39272.000000
1056.000000,12075.000000,2295.000000,39267.000000
1039.000000,12281.000000,2280.000000,39247.000000
1080.000000,12087.000000,2255.000000,39251.000000
1075.000000,12072.000000,2264.000000,39267.000000
1047.000000,12055.000000,2302.000000,39269.000000
1045.000000,12287.000000,2303.000000,39267.000000
1023.000000,12049.000000,2264.000000,39285.000000
1010.000000,12040.000000,2274.000000,39264.000000
1028.000000,12033.000000,2241.000000,39247.000000
1003.000000,12271.000000,2225.000000,39217.000000
994.000000,12235.000000,2217.000000,39235.000000
982.000000,12255.000000,2223.000000,39208.000000
960.000000,12241.000000,2189.000000,39216.000000
943.000000,12233.000000,2167.000000,39203.000000
925.000000,12224.000000,2169.000000,39177.000000
923.000000,11955.000000,2164.000000,39187.000000
901.000000,11935.000000,2145.000000,39187.000000
910.000000,12191.000000,2146.000000,39167.000000
899.000000,12183.000000,2122.000000,39159.000000
871.000000,12212.000000,2119.000000,39181.000000
860.000000,11884.000000,2102.000000,39150.000000
859.000000,12131.000000,2087.000000,39148.000000
851.000000,12124.000000,2050.000000,39118.000000
816.000000,12120.000000,2051.000000,39158.000000
815.000000,12139.000000,2074.000000,39107.000000
797.000000,12131.000000,2044.000000,39117.000000
809.000000,12112.000000,2041.000000,39126.000000
821.000000,12132.000000,2063.000000,39149.000000
779.000000,12136.000000,2068.000000,39120.000000
844.000000,12127.000000,2064.000000,39143.000000
835.000000,12155.000000,2079.000000,39101.000000
816.000000,12140.000000,2063.000000,39123.000000
853.000000,12117.000000,2061.000000,39104.000000
832.000000,12135.000000,2067.000000,39126.000000
848.000000,12157.000000,2080.000000,39131.000000
867.000000,12159.000000,2109.000000,39151.000000
859.000000,11892.000000,2106.000000,39147.000000
867.000000,12172.000000,2111.000000,39144.000000
906.000000,12207.000000,2108.000000,39175.000000
879.000000,12196.000000,2102.000000,39180.000000
922.000000,12229.000000,2141.000000,39176.000000
919.000000,12236.000000,2152.000000,39208.000000
939.000000,11951.000000,2186.000000,39219.000000
960.000000,12227.000000,2211.000000,39228.000000
971.000000,12279.000000,2223.000000,39231.000000
983.000000,12037.000000,2241.000000,39241.000000
983.000000,12009.000000,2264.000000,39248.000000
1046.000000,12047.000000,2293.000000,39251.000000
1050.000000,12092.000000,2312.000000,39279.000000
1093.000000,12064.000000,2333.000000,39296.000000
1130.000000,12117.000000,2367.000000,39289.000000
1124.000000,12143.000000,2399.000000,39317.000000
1170.000000,12160.000000,2439.000000,39331.000000
1215.000000,12208.000000,2467.000000,39357.000000
1241.000000,12225.000000,2528.000000,39392.000000
1255.000000,12263.000000,2548.000000,39420.000000
1343.000000,12291.000000,2584.000000,39407.000000
1392.000000,12329.000000,2645.000000,39499.000000
1399.000000,12339.000000,2640.000000,39487.000000
1455.000000,12373.000000,2719.000000,39515.000000
1523.000000,12447.000000,2787.000000,39512.000000
1799.000000,12456.000000,2812.000000,39561.000000
1585.000000,12504.000000,2843.000000,39576.000000
1636.000000,12521.000000,2890.000000,39579.000000
1657.000000,12576.000000,2920.000000,39622.000000
1701.000000,12559.000000,2946.000000,39895.000000
1713.000000,12587.000000,2953.000000,39659.000000
1725.000000,12581.000000,2967.000000,39668.000000
1701.000000,12543.000000,2975.000000,39638.000000
1683.000000,12571.000000,2960.000000,39683.000000
1973.000000,12619.000000,2924.000000,39884.000000
1696.000000,12555.000000,2940.000000,39657.000000
1702.000000,12565.000000,2938.000000,39653.000000
1678.000000,12608.000000,2959.000000,39654.000000
1696.000000,12580.000000,2933.000000,39619.000000
1680.000000,12543.000000,2943.000000,39637.000000
1698.000000,12552.000000,2954.000000,39639.000000
1687.000000,12583.000000,2928.000000,39636.000000
1692.000000,12555.000000,2919.000000,39638.000000
1622.000000,12513.000000,2881.000000,39615.000000
1668.000000,12543.000000,2897.000000,39606.000000
1653.000000,12523.000000,2915.000000,39604.000000
1633.000000,12543.000000,2887.000000,39599.000000
1623.000000,12533.000000,2892.000000,39604.000000
1636.000000,12524.000000,2865.000000,39605.000000
1609.000000,12531.000000,2867.000000,39617.000000
1585.000000,12529.000000,2845.000000,39596.000000
1859.000000,12490.000000,2871.000000,39567.000000
1595.000000,12459.000000,2815.000000,39599.000000
1618.000000,12553.000000,2869.000000,39596.000000
1574.000000,12468.000000,2829.000000,39573.000000
1564.000000,12461.000000,2787.000000,39539.000000
1527.000000,12463.000000,2809.000000,39555.000000
1552.000000,12491.000000,2791.000000,39567.000000
1564.000000,12467.000000,2815.000000,39544.000000
1530.000000,12445.000000,2764.000000,39572.000000
1529.000000,12447.000000,2778.000000,39548.000000
1515.000000,12455.000000,2776.000000,39519.000000
1525.000000,12412.000000,2744.000000,39795.000000
1509.000000,12412.000000,2717.000000,39545.000000
1499.000000,12420.000000,2766.000000,39513.000000
1511.000000,12425.000000,2739.000000,39531.000000
1484.000000,12411.000000,2719.000000,39534.000000
1499.000000,12423.000000,2742.000000,39520.000000
1503.000000,12391.000000,2748.000000,39780.000000
1484.000000,12431.000000,2740.000000,39504.000000
1461.000000,12347.000000,2732.000000,39513.000000
1488.000000,12387.000000,2725.000000,39775.000000
1452.000000,12411.000000,2703.000000,39526.000000
1451.000000,12412.000000,2733.000000,39508.000000
1469.000000,12399.000000,2723.000000,39521.000000
1459.000000,12386.000000,2713.000000,39534.000000
1447.000000,12383.000000,2665.000000,39495.000000
1436.000000,12392.000000,2687.000000,39763.000000
1450.000000,12360.000000,2694.000000,39483.000000
1415.000000,12372.000000,2685.000000,39495.000000
1429.000000,12358.000000,2673.000000,39512.000000
1375.000000,12383.000000,2684.000000,39486.000000
1372.000000,12313.000000,2675.000000,39473.000000
1368.000000,12323.000000,2630.000000,39452.000000
1373.000000,12339.000000,2625.000000,39460.000000
1379.000000,12318.000000,2629.000000,39468.000000
1309.000000,12281.000000,2604.000000,39444.000000
1341.000000,12319.000000,2614.000000,39438.000000
1316.000000,12303.000000,2610.000000,39464.000000
1307.000000,12293.000000,2612.000000,39441.000000
1325.000000,12275.000000,2616.000000,39437.000000
1316.000000,12316.000000,2573.000000,39436.000000
1287.000000,12267.000000,2563.000000,39421.000000
1295.000000,12257.000000,2575.000000,39437.000000
1256.000000,12239.000000,2559.000000,39397.000000
1253.000000,12252.000000,2548.000000,39423.000000
1273.000000,12213.000000,2497.000000,39387.000000
1225.000000,12224.000000,2477.000000,39399.000000
1231.000000,12195.000000,2507.000000,39383.000000
1234.000000,12237.000000,2469.000000,39367.000000
1203.000000,12200.000000,2477.000000,39375.000000
1225.000000,12224.000000,2520.000000,39375.000000
1224.000000,12227.000000,2512.000000,39363.000000
1209.000000,12156.000000,2444.000000,39356.000000
1172.000000,12189.000000,2449.000000,39351.000000
1163.000000,12155.000000,2454.000000,39336.000000
1175.000000,12165.000000,2455.000000,39381.000000
1161.000000,12145.000000,2431.000000,39332.000000
1169.000000,12169.000000,2415.000000,39356.000000
1139.000000,12167.000000,2412.000000,39343.000000
1125.000000,12171.000000,2432.000000,39329.000000
1108.000000,12164.000000,2423.000000,39364.000000
1113.000000,12119.000000,2401.000000,39348.000000
1117.000000,12119.000000,2399.000000,39293.000000
1090.000000,12135.000000,2384.000000,39303.000000
1085.000000,12103.000000,2365.000000,39295.000000
1063.000000,12127.000000,2375.000000,39335.000000
1096.000000,12131.000000,2360.000000,39321.000000
1046.000000,12069.000000,2329.000000,39319.000000
1039.000000,12077.000000,2303.000000,39309.000000
1033.000000,12055.000000,2299.000000,39301.000000
1027.000000,12259.000000,2308.000000,39248.000000
996.000000,12281.000000,2295.000000,39245.000000
981.000000,12281.000000,2251.000000,39259.000000
987.000000,12287.000000,2258.000000,39239.000000
965.000000,12263.000000,2261.000000,39241.000000
962.000000,12231.000000,2244.000000,39236.000000
933.000000,12281.000000,2226.000000,39247.000000
943.000000,12279.000000,2199.000000,39231.000000
899.000000,12249.000000,2228.000000,39235.000000
885.000000,12201.000000,2196.000000,39209.000000
886.000000,11948.000000,2194.000000,39224.000000
891.000000,12223.000000,2177.000000,39204.000000
876.000000,12221.000000,2195.000000,39219.000000
929.000000,12239.000000,2212.000000,39203.000000
891.000000,12219.000000,2184.000000,39187.000000
883.000000,12208.000000,2185.000000,39209.000000
928.000000,12197.000000,2223.000000,39180.000000
941.000000,11975.000000,2228.000000,39217.000000
947.000000,12227.000000,2219.000000,39224.000000
908.000000,12269.000000,2245.000000,39199.000000
923.000000,12255.000000,2223.000000,39211.000000
944.000000,12271.000000,2236.000000,39239.000000
921.000000,12271.000000,2246.000000,39239.000000
982.000000,12012.000000,2250.000000,39224.000000
939.000000,12271.000000,2255.000000,39255.000000
991.000000,12044.000000,2313.000000,39252.000000
1000.000000,12051.000000,2271.000000,39272.000000
983.000000,12035.000000,2298.000000,39271.000000
996.000000,12064.000000,2300.000000,39281.000000
1028.000000,12089.000000,2316.000000,39299.000000
1017.000000,12103.000000,2347.000000,39292.000000
1065.000000,12147.000000,2369.000000,39301.000000
1059.000000,12087.000000,2387.000000,39307.000000
1108.000000,12175.000000,2402.000000,39315.000000
1120.000000,12169.000000,2431.000000,39381.000000
1139.000000,12211.000000,2450.000000,39336.000000
1196.000000,12171.000000,2458.000000,39363.000000
1203.000000,12192.000000,2503.000000,39380.000000
1222.000000,12229.000000,2545.000000,39399.000000
1289.000000,12277.000000,2596.000000,39426.000000
1291.000000,12301.000000,2613.000000,39423.000000
1361.000000,12359.000000,2632.000000,39484.000000
1405.000000,12363.000000,2710.000000,39488.000000
1431.000000,12392.000000,2755.000000,39551.000000
1479.000000,12431.000000,2798.000000,39569.000000
1540.000000,12507.000000,2848.000000,39617.000000
1553.000000,12504.000000,2875.000000,39616.000000
1620.000000,12565.000000,2945.000000,39892.000000
1668.000000,12559.000000,2961.000000,39663.000000
1956.000000,12584.000000,2971.000000,39646.000000
1697.000000,12615.000000,3011.000000,39673.000000
1742.000000,12657.000000,3051.000000,39701.000000
1742.000000,12635.000000,3015.000000,39701.000000
1749.000000,12621.000000,3064.000000,39717.000000
1739.000000,12643.000000,3053.000000,39711.000000
1744.000000,12631.000000,3058.000000,39723.000000
1775.000000,12613.000000,3051.000000,39700.000000
1730.000000,12635.000000,3035.000000,39693.000000
1744.000000,12624.000000,3032.000000,39700.000000
1728.000000,12628.000000,3059.000000,39713.000000
1717.000000,12659.000000,3042.000000,39697.000000
1735.000000,12631.000000,3024.000000,39671.000000
1704.000000,12632.000000,3024.000000,39716.000000
1685.000000,12583.000000,3028.000000,39692.000000
1678.000000,12600.000000,2995.000000,39691.000000
1676.000000,12575.000000,2974.000000,39651.000000
1943.000000,12575.000000,3003.000000,39699.000000
1663.000000,12571.000000,2969.000000,39670.000000
1676.000000,12599.000000,2933.000000,39643.000000
1678.000000,12593.000000,3001.000000,39660.000000
1635.000000,12583.000000,2936.000000,39662.000000
1628.000000,12568.000000,2931.000000,39626.000000
1618.000000,12547.000000,2924.000000,39651.000000
1615.000000,12533.000000,2934.000000,39673.000000
1587.000000,12535.000000,2911.000000,39628.000000
1604.000000,12515.000000,2914.000000,39626.000000
1611.000000,12531.000000,2902.000000,39614.000000
1549.000000,12488.000000,2893.000000,39604.000000
1590.000000,12507.000000,2883.000000,39663.000000
1567.000000,12513.000000,2899.000000,39622.000000
1580.000000,12527.000000,2884.000000,39609.000000
1565.000000,12520.000000,2879.000000,39599.000000
1551.000000,12495.000000,2862.000000,39598.000000
1792.000000,12443.000000,2839.000000,39613.000000
1528.000000,12475.000000,2895.000000,39586.000000
1526.000000,12478.000000,2852.000000,39587.000000
1548.000000,12479.000000,2853.000000,39563.000000
1542.000000,12455.000000,2835.000000,39578.000000
1518.000000,12489.000000,2817.000000,39580.000000
1511.000000,12469.000000,2812.000000,39588.000000
1493.000000,12482.000000,2839.000000,39841.000000
1499.000000,12465.000000,2839.000000,39592.000000
1479.000000,12467.000000,2835.000000,39568.000000
1479.000000,12464.000000,2839.000000,39594.000000
1487.000000,12421.000000,2759.000000,39537.000000
1500.000000,12409.000000,2783.000000,39560.000000
1459.000000,12434.000000,2795.000000,39563.000000
1454.000000,12443.000000,2786.000000,39531.000000
1477.000000,12435.000000,2782.000000,39551.000000
1418.000000,12409.000000,2759.000000,39552.000000
1403.000000,12384.000000,2764.000000,39534.000000
1413.000000,12397.000000,2766.000000,39524.000000
1395.000000,12393.000000,2731.000000,39546.000000
1411.000000,12396.000000,2719.000000,39527.000000
1404.000000,12379.000000,2704.000000,39481.000000
1395.000000,12371.000000,2739.000000,39496.000000
1363.000000,12347.000000,2690.000000,39490.000000
1377.000000,12356.000000,2710.000000,39511.000000
1335.000000,12359.000000,2709.000000,39490.000000
1310.000000,12327.000000,2657.000000,39493.000000
1332.000000,12346.000000,2673.000000,39509.000000
1307.000000,12351.000000,2667.000000,39725.000000
1288.000000,12332.000000,2630.000000,39453.000000
1232.000000,12307.000000,2632.000000,39456.000000
1274.000000,12273.000000,2620.000000,39426.000000
1263.000000,12305.000000,2609.000000,39444.000000
1254.000000,12283.000000,2583.000000,39439.000000
1267.000000,12279.000000,2591.000000,39443.000000
1238.000000,12260.000000,2583.000000,39419.000000
1214.000000,12235.000000,2596.000000,39419.000000
1217.000000,12236.000000,2572.000000,39435.000000
1201.000000,12232.000000,2562.000000,39393.000000
1212.000000,12215.000000,2525.000000,39400.000000
1206.000000,12244.000000,2531.000000,39381.000000
1201.000000,12229.000000,2535.000000,39396.000000
1205.000000,12220.000000,2512.000000,39399.000000
1142.000000,12200.000000,2511.000000,39400.000000
1142.000000,12195.000000,2491.000000,39404.000000
1121.000000,12167.000000,2503.000000,39363.000000
1170.000000,12185.000000,2491.000000,39407.000000
1129.000000,12191.000000,2470.000000,39363.000000
1108.000000,12175.000000,2456.000000,39371.000000
1104.000000,12189.000000,2478.000000,39363.000000
1109.000000,12195.000000,2456.000000,39380.000000
1096.000000,12160.000000,2457.000000,39343.000000
1089.000000,12163.000000,2468.000000,39359.000000
1098.000000,12163.000000,2435.000000,39355.000000
1056.000000,12131.000000,2407.000000,39343.000000
1063.000000,12135.000000,2417.000000,39307.000000
1027.000000,12141.000000,2360.000000,39313.000000
1037.000000,12135.000000,2367.000000,39305.000000
1002.000000,12109.000000,2375.000000,39336.000000
983.000000,12107.000000,2360.000000,39320.000000
1001.000000,12068.000000,2335.000000,39287.000000
969.000000,12051.000000,2286.000000,39264.000000
940.000000,12016.000000,2293.000000,39291.000000
961.000000,12039.000000,2309.000000,39297.000000
929.000000,12283.000000,2306.000000,39253.000000
893.000000,12267.000000,2284.000000,39263.000000
901.000000,12271.000000,2267.000000,39231.000000
918.000000,12279.000000,2266.000000,39247.000000
909.000000,12031.000000,2288.000000,39260.000000
911.000000,12032.000000,2284.000000,39264.000000
923.000000,12020.000000,2279.000000,39252.000000
921.000000,12268.000000,2267.000000,39233.000000
923.000000,12285.000000,2293.000000,39223.000000
960.000000,12023.000000,2307.000000,39283.000000
953.000000,12060.000000,2281.000000,39264.000000
931.000000,12028.000000,2287.000000,39277.000000
928.000000,12281.000000,2305.000000,39245.000000
936.000000,12041.000000,2331.000000,39289.000000
966.000000,12087.000000,2296.000000,39283.000000
995.000000,12095.000000,2300.000000,39295.000000
991.000000,12077.000000,2343.000000,39271.000000
1007.000000,12107.000000,2361.000000,39311.000000
995.000000,12123.000000,2369.000000,39319.000000
1016.000000,12103.000000,2380.000000,39315.000000
1032.000000,12099.000000,2416.000000,39315.000000
1059.000000,12083.000000,2409.000000,39323.000000
1060.000000,12136.000000,2408.000000,39340.000000
1067.000000,12147.000000,2427.000000,39295.000000
1113.000000,12164.000000,2440.000000,39355.000000
1096.000000,12203.000000,2467.000000,39356.000000
1147.000000,12213.000000,2511.000000,39372.000000
1171.000000,12237.000000,2555.000000,39412.000000
1202.000000,12235.000000,2559.000000,39415.000000
1196.000000,12281.000000,2568.000000,39424.000000
1254.000000,12279.000000,2622.000000,39462.000000
1271.000000,12319.000000,2669.000000,39472.000000
1344.000000,12385.000000,2702.000000,39503.000000
1337.000000,12391.000000,2742.000000,39763.000000
1420.000000,12403.000000,2771.000000,39539.000000
1457.000000,12428.000000,2817.000000,39565.000000
1500.000000,12479.000000,2856.000000,39851.000000
1531.000000,12535.000000,2900.000000,39603.000000
1820.000000,12525.000000,2927.000000,39636.000000
1596.000000,12569.000000,2971.000000,39651.000000
1644.000000,12616.000000,3014.000000,39700.000000
1647.000000,12603.000000,3012.000000,39677.000000
1684.000000,12639.000000,3048.000000,39728.000000
1699.000000,12655.000000,3071.000000,39721.000000
1702.000000,12612.000000,3053.000000,39698.000000
1699.000000,12623.000000,3077.000000,39697.000000
1719.000000,12663.000000,3073.000000,39732.000000
1716.000000,12675.000000,3093.000000,39716.000000
1708.000000,12649.000000,3076.000000,39687.000000
1683.000000,12632.000000,3068.000000,39687.000000
1684.000000,12639.000000,3047.000000,39713.000000
1691.000000,12623.000000,3049.000000,39711.000000
1671.000000,12631.000000,3040.000000,39670.000000
1680.000000,12613.000000,3041.000000,39717.000000
1696.000000,12623.000000,3049.000000,39687.000000
1659.000000,12585.000000,3019.000000,39687.000000
1632.000000,12565.000000,3016.000000,39674.000000
1644.000000,12595.000000,3007.000000,39668.000000
1632.000000,12591.000000,2991.000000,39681.000000
1621.000000,12555.000000,2995.000000,39661.000000
1633.000000,12559.000000,2973.000000,39909.000000
1616.000000,12577.000000,2955.000000,39648.000000
1599.000000,12548.000000,2959.000000,39650.000000
1610.000000,12581.000000,2973.000000,39635.000000
1567.000000,12576.000000,2979.000000,39655.000000
1610.000000,12559.000000,2949.000000,39652.000000
1569.000000,12547.000000,2935.000000,39635.000000
1553.000000,12545.000000,2919.000000,39604.000000
1540.000000,12499.000000,2909.000000,39636.000000
1541.000000,12527.000000,2934.000000,39620.000000
1536.000000,12553.000000,2884.000000,39631.000000
1554.000000,12510.000000,2915.000000,39604.000000
1533.000000,12492.000000,2880.000000,39856.000000
1531.000000,12516.000000,2909.000000,39635.000000
1506.000000,12484.000000,2872.000000,39586.000000
1485.000000,12517.000000,2900.000000,39622.000000
1506.000000,12507.000000,2899.000000,39588.000000
1471.000000,12483.000000,2875.000000,39597.000000
1522.000000,12485.000000,2855.000000,39578.000000
1475.000000,12493.000000,2853.000000,39609.000000
1482.000000,12459.000000,2842.000000,39585.000000
1497.000000,12483.000000,2855.000000,39593.000000
1463.000000,12467.000000,2826.000000,39581.000000
1477.000000,12521.000000,2867.000000,39574.000000
1465.000000,12471.000000,2823.000000,39616.000000
1463.000000,12442.000000,2834.000000,39843.000000
1429.000000,12444.000000,2815.000000,39583.000000
1425.000000,12447.000000,2808.000000,39573.000000
1441.000000,12407.000000,2827.000000,39559.000000
1429.000000,12436.000000,2810.000000,39541.000000
1421.000000,12463.000000,2804.000000,39561.000000
1411.000000,12415.000000,2805.000000,39544.000000
1399.000000,12411.000000,2775.000000,39535.000000
1368.000000,12392.000000,2788.000000,39788.000000
1349.000000,12411.000000,2763.000000,39531.000000
1349.000000,12359.000000,2763.000000,39525.000000
1331.000000,12359.000000,2718.000000,39520.000000
1341.000000,12365.000000,2707.000000,39503.000000
1364.000000,12368.000000,2727.000000,39499.000000
1308.000000,12384.000000,2700.000000,39492.000000
1348.000000,12353.000000,2715.000000,39517.000000
1319.000000,12359.000000,2700.000000,39493.000000
1270.000000,12359.000000,2684.000000,39504.000000
1254.000000,12311.000000,2667.000000,39482.000000
1268.000000,12313.000000,2645.000000,39462.000000
1282.000000,12307.000000,2627.000000,39454.000000
1263.000000,12280.000000,2608.000000,39449.000000
1231.000000,12304.000000,2634.000000,39462.000000
1227.000000,12271.000000,2619.000000,39424.000000
1217.000000,12303.000000,2631.000000,39438.000000
1235.000000,12261.000000,2623.000000,39459.000000
1196.000000,12275.000000,2600.000000,39693.000000
1180.000000,12299.000000,2622.000000,39461.000000
1218.000000,12285.000000,2593.000000,39434.000000
1187.000000,12269.000000,2595.000000,39415.000000
1176.000000,12255.000000,2593.000000,39405.000000
1168.000000,12260.000000,2548.000000,39420.000000
1174.000000,12217.000000,2571.000000,39425.000000
1145.000000,12251.000000,2525.000000,39405.000000
1171.000000,12249.000000,2531.000000,39387.000000
1147.000000,12237.000000,2547.000000,39419.000000
1140.000000,12237.000000,2538.000000,39412.000000
1149.000000,12247.000000,2570.000000,39699.000000
1119.000000,12237.000000,2544.000000,39421.000000
1112.000000,12195.000000,2532.000000,39379.000000
1091.000000,12199.000000,2499.000000,39415.000000
1109.000000,12187.000000,2519.000000,39374.000000
1073.000000,12183.000000,2504.000000,39349.000000
1092.000000,12185.000000,2487.000000,39379.000000
1062.000000,12195.000000,2457.000000,39347.000000
1047.000000,12163.000000,2438.000000,39344.000000
1032.000000,12119.000000,2449.000000,39348.000000
988.000000,12136.000000,2409.000000,39327.000000
1013.000000,12120.000000,2441.000000,39332.000000
999.000000,12103.000000,2425.000000,39319.000000
943.000000,12137.000000,2380.000000,39323.000000
976.000000,12089.000000,2399.000000,39305.000000
980.000000,12052.000000,2359.000000,39307.000000
949.000000,12079.000000,2367.000000,39312.000000
928.000000,12105.000000,2345.000000,39288.000000
975.000000,12104.000000,2368.000000,39289.000000
940.000000,12083.000000,2373.000000,39308.000000
959.000000,12103.000000,2379.000000,39295.000000
955.000000,12095.000000,2411.000000,39335.000000
975.000000,12092.000000,2395.000000,39319.000000
967.000000,12099.000000,2419.000000,39319.000000
972.000000,12145.000000,2403.000000,39313.000000
992.000000,12144.000000,2424.000000,39348.000000
1033.000000,12156.000000,2405.000000,39328.000000
1025.000000,12147.000000,2432.000000,39329.000000
1009.000000,12139.000000,2433.000000,39311.000000
1012.000000,12159.000000,2445.000000,39336.000000
1021.000000,12163.000000,2433.000000,39340.000000
1069.000000,12188.000000,2495.000000,39328.000000
1062.000000,12207.000000,2503.000000,39352.000000
1071.000000,12193.000000,2498.000000,39359.000000
1091.000000,12239.000000,2517.000000,39400.000000
1125.000000,12208.000000,2553.000000,39389.000000
1129.000000,12233.000000,2568.000000,39428.000000
1118.000000,12235.000000,2547.000000,39415.000000
1136.000000,12220.000000,2587.000000,39687.000000
1189.000000,12273.000000,2621.000000,39419.000000
1181.000000,12321.000000,2634.000000,39467.000000
1210.000000,12321.000000,2645.000000,39435.000000
1216.000000,12340.000000,2685.000000,39463.000000
1299.000000,12387.000000,2717.000000,39489.000000
1315.000000,12391.000000,2759.000000,39522.000000
1393.000000,12453.000000,2762.000000,39552.000000
1427.000000,12436.000000,2855.000000,39576.000000
1451.000000,12527.000000,2876.000000,39604.000000
1488.000000,12544.000000,2951.000000,39621.000000
1540.000000,12548.000000,2943.000000,39637.000000
1576.000000,12588.000000,2987.000000,39650.000000
1624.000000,12607.000000,3035.000000,39685.000000
1649.000000,12679.000000,3089.000000,39680.000000
1693.000000,12665.000000,3109.000000,39723.000000
1749.000000,12684.000000,3153.000000,39743.000000
1794.000000,12756.000000,3165.000000,39767.000000
1764.000000,12760.000000,3155.000000,39808.000000
1769.000000,12763.000000,3196.000000,39783.000000
1760.000000,12751.000000,3210.000000,39808.000000
1800.000000,12751.000000,3202.000000,39775.000000
1809.000000,12763.000000,3209.000000,39792.000000
1795.000000,12765.000000,3184.000000,39777.000000
1787.000000,12740.000000,3223.000000,39800.000000
1785.000000,12751.000000,3188.000000,39785.000000
1784.000000,12736.000000,3163.000000,39777.000000
1779.000000,12773.000000,3168.000000,39763.000000
1777.000000,12743.000000,3146.000000,39756.000000
1773.000000,12756.000000,3172.000000,39775.000000
1762.000000,12736.000000,3153.000000,39729.000000
1793.000000,12719.000000,3139.000000,39748.000000
1736.000000,12755.000000,3141.000000,39775.000000
1739.000000,12704.000000,3162.000000,39737.000000
1695.000000,12695.000000,3138.000000,39756.000000
1701.000000,12737.000000,3126.000000,39749.000000
1726.000000,12671.000000,3122.000000,39759.000000
1696.000000,12703.000000,3095.000000,39715.000000
1692.000000,12683.000000,3107.000000,39724.000000
1697.000000,12672.000000,3092.000000,39729.000000
1703.000000,12688.000000,3098.000000,39679.000000
1682.000000,12676.000000,3040.000000,39688.000000
1686.000000,12680.000000,3069.000000,39687.000000
1654.000000,12660.000000,3062.000000,39689.000000
1648.000000,12691.000000,3068.000000,39701.000000
1636.000000,12671.000000,3048.000000,39668.000000
1646.000000,12657.000000,3037.000000,39717.000000
1599.000000,12647.000000,3036.000000,39680.000000
1875.000000,12659.000000,3039.000000,39701.000000
1631.000000,12656.000000,3013.000000,39691.000000
1631.000000,12619.000000,3009.000000,39674.000000
1585.000000,12619.000000,2996.000000,39668.000000
1606.000000,12631.000000,3027.000000,39924.000000
1608.000000,12627.000000,3032.000000,39689.000000
1574.000000,12589.000000,3009.000000,39666.000000
1603.000000,12600.000000,3001.000000,39671.000000
1567.000000,12591.000000,2979.000000,39680.000000
1585.000000,12603.000000,2981.000000,39646.000000
1575.000000,12600.000000,3013.000000,39652.000000
1588.000000,12567.000000,2945.000000,39620.000000
1545.000000,12601.000000,2976.000000,39663.000000
1549.000000,12605.000000,2953.000000,39895.000000
1546.000000,12564.000000,2978.000000,39871.000000
1505.000000,12591.000000,2937.000000,39601.000000
1533.000000,12551.000000,2957.000000,39629.000000
1531.000000,12571.000000,2969.000000,39627.000000
1503.000000,12545.000000,2900.000000,39634.000000
1514.000000,12567.000000,2924.000000,39625.000000
1483.000000,12555.000000,2888.000000,39600.000000
1503.000000,12547.000000,2927.000000,39617.000000
1491.000000,12511.000000,2891.000000,39604.000000
1457.000000,12518.000000,2920.000000,39607.000000
1459.000000,12519.000000,2873.000000,39605.000000
1441.000000,12506.000000,2849.000000,39567.000000
1430.000000,12509.000000,2881.000000,39607.000000
1443.000000,12504.000000,2857.000000,39564.000000
1433.000000,12473.000000,2835.000000,39564.000000
1392.000000,12453.000000,2790.000000,39559.000000
1419.000000,12459.000000,2804.000000,39523.000000
1416.000000,12479.000000,2822.000000,39528.000000
1414.000000,12457.000000,2781.000000,39539.000000
1400.000000,12447.000000,2817.000000,39507.000000
1375.000000,12426.000000,2773.000000,39552.000000
1372.000000,12415.000000,2763.000000,39513.000000
1365.000000,12419.000000,2786.000000,39536.000000
1359.000000,12457.000000,2727.000000,39523.000000
1319.000000,12394.000000,2723.000000,39501.000000
1311.000000,12385.000000,2664.000000,39487.000000
1313.000000,12384.000000,2702.000000,39471.000000
1287.000000,12359.000000,2724.000000,39494.000000
1281.000000,12353.000000,2672.000000,39466.000000
1303.000000,12371.000000,2700.000000,39463.000000
1266.000000,12367.000000,2642.000000,39488.000000
1272.000000,12361.000000,2643.000000,39483.000000
1264.000000,12348.000000,2646.000000,39459.000000
1274.000000,12359.000000,2673.000000,39467.000000
1245.000000,12323.000000,2640.000000,39459.000000
1233.000000,12299.000000,2639.000000,39446.000000
1226.000000,12335.000000,2625.000000,39459.000000
1203.000000,12291.000000,2624.000000,39462.000000
1217.000000,12355.000000,2607.000000,39443.000000
1194.000000,12349.000000,2632.000000,39438.000000
1200.000000,12287.000000,2612.000000,39427.000000
1185.000000,12268.000000,2565.000000,39395.000000
1168.000000,12268.000000,2565.000000,39437.000000
1175.000000,12255.000000,2586.000000,39383.000000
1155.000000,12256.000000,2529.000000,39399.000000
1175.000000,12263.000000,2527.000000,39393.000000
1133.000000,12284.000000,2510.000000,39367.000000
1143.000000,12231.000000,2511.000000,39381.000000
1121.000000,12225.000000,2507.000000,39343.000000
1078.000000,12215.000000,2477.000000,39351.000000
1054.000000,12183.000000,2471.000000,39315.000000
1071.000000,12169.000000,2449.000000,39331.000000
1027.000000,12195.000000,2447.000000,39341.000000
1028.000000,12207.000000,2421.000000,39336.000000
1031.000000,12168.000000,2429.000000,39340.000000
1016.000000,12187.000000,2395.000000,39311.000000
1008.000000,12188.000000,2397.000000,39311.000000
1011.000000,12105.000000,2386.000000,39336.000000
1019.000000,12167.000000,2412.000000,39304.000000
1013.000000,12175.000000,2424.000000,39323.000000
1003.000000,12151.000000,2400.000000,39335.000000
1046.000000,12167.000000,2391.000000,39313.000000
1003.000000,12191.000000,2447.000000,39331.000000
1033.000000,12201.000000,2395.000000,39331.000000
1026.000000,12208.000000,2424.000000,39327.000000
1051.000000,12224.000000,2455.000000,39355.000000
1034.000000,12188.000000,2434.000000,39335.000000
1065.000000,12195.000000,2436.000000,39331.000000
1085.000000,12191.000000,2459.000000,39355.000000
1041.000000,12200.000000,2440.000000,39365.000000
1087.000000,12237.000000,2470.000000,39333.000000
1120.000000,12215.000000,2489.000000,39331.000000
1089.000000,12241.000000,2488.000000,39387.000000
1131.000000,12248.000000,2525.000000,39375.000000
1151.000000,12275.000000,2539.000000,39411.000000
1174.000000,12303.000000,2548.000000,39401.000000
1174.000000,12310.000000,2564.000000,39426.000000
1172.000000,12320.000000,2611.000000,39417.000000
1215.000000,12328.000000,2590.000000,39434.000000
1211.000000,12339.000000,2630.000000,39415.000000
1288.000000,12381.000000,2641.000000,39459.000000
1299.000000,12405.000000,2672.000000,39455.000000
1316.000000,12383.000000,2707.000000,39503.000000
1351.000000,12440.000000,2697.000000,39485.000000
1387.000000,12464.000000,2792.000000,39512.000000
1426.000000,12483.000000,2808.000000,39552.000000
1458.000000,12511.000000,2835.000000,39551.000000
1525.000000,12547.000000,2876.000000,39588.000000
1807.000000,12585.000000,2911.000000,39861.000000
1588.000000,12608.000000,2970.000000,39648.000000
1671.000000,12640.000000,3007.000000,39654.000000
1683.000000,12687.000000,3028.000000,39700.000000
1725.000000,12693.000000,3078.000000,39699.000000
1775.000000,12736.000000,3104.000000,39708.000000
1817.000000,12767.000000,3183.000000,39767.000000
1817.000000,12771.000000,3173.000000,39776.000000
1868.000000,12791.000000,3180.000000,39773.000000
1855.000000,13065.000000,3212.000000,39799.000000
1865.000000,12813.000000,3213.000000,39789.000000
1891.000000,13079.000000,3225.000000,39799.000000
1897.000000,12829.000000,3252.000000,39804.000000
1865.000000,12831.000000,3215.000000,39809.000000
1891.000000,12816.000000,3212.000000,39775.000000
1891.000000,13068.000000,3203.000000,39799.000000
1860.000000,13067.000000,3216.000000,39803.000000
1892.000000,12806.000000,3194.000000,39756.000000
1903.000000,12824.000000,3217.000000,39768.000000
1882.000000,12796.000000,3231.000000,39783.000000
1848.000000,12792.000000,3221.000000,39779.000000
1855.000000,12755.000000,3185.000000,39768.000000
1824.000000,12787.000000,3187.000000,39781.000000
1801.000000,12747.000000,3168.000000,39755.000000
1799.000000,12759.000000,3155.000000,39755.000000
1805.000000,12767.000000,3141.000000,39747.000000
1825.000000,12745.000000,3110.000000,39723.000000
1810.000000,12767.000000,3132.000000,39751.000000
1793.000000,12711.000000,3136.000000,39743.000000
1775.000000,12739.000000,3104.000000,39720.000000
1767.000000,12719.000000,3101.000000,39711.000000
1772.000000,12715.000000,3073.000000,39705.000000
1761.000000,12719.000000,3057.000000,39715.000000
1758.000000,12719.000000,3055.000000,39704.000000
1728.000000,12687.000000,3071.000000,39691.000000
1749.000000,12680.000000,3077.000000,39705.000000
1754.000000,12677.000000,3055.000000,39707.000000
1764.000000,12679.000000,3081.000000,39715.000000
1711.000000,12719.000000,3019.000000,39696.000000
1707.000000,12683.000000,3034.000000,39679.000000
1660.000000,12699.000000,3047.000000,39703.000000
1705.000000,12651.000000,3028.000000,39659.000000
1688.000000,12643.000000,3028.000000,39662.000000
1656.000000,12663.000000,3031.000000,39680.000000
1675.000000,12667.000000,2996.000000,39687.000000
1663.000000,12627.000000,3007.000000,39667.000000
1636.000000,12653.000000,2996.000000,39638.000000
1639.000000,12655.000000,3000.000000,39672.000000
1667.000000,12661.000000,2966.000000,39665.000000
1653.000000,12583.000000,2971.000000,39652.000000
1673.000000,12632.000000,2994.000000,39653.000000
1659.000000,12636.000000,2971.000000,39641.000000
1632.000000,12589.000000,2943.000000,39624.000000
1637.000000,12635.000000,2959.000000,39644.000000
1592.000000,12593.000000,2981.000000,39622.000000
1641.000000,12623.000000,2975.000000,39649.000000
1633.000000,12579.000000,2975.000000,39633.000000
1582.000000,12609.000000,2939.000000,39623.000000
1603.000000,12573.000000,2928.000000,39650.000000
1612.000000,12597.000000,2949.000000,39636.000000
1569.000000,12580.000000,2899.000000,39881.000000
1516.000000,12552.000000,2903.000000,39854.000000
1566.000000,12576.000000,2844.000000,39594.000000
1584.000000,12556.000000,2908.000000,39823.000000
1536.000000,12535.000000,2869.000000,39598.000000
1539.000000,12541.000000,2863.000000,39570.000000
1519.000000,12531.000000,2859.000000,39588.000000
1514.000000,12567.000000,2879.000000,39585.000000
1489.000000,12518.000000,2841.000000,39562.000000
1517.000000,12515.000000,2841.000000,39804.000000
1473.000000,12508.000000,2839.000000,39562.000000
1434.000000,12484.000000,2790.000000,39571.000000
1447.000000,12501.000000,2791.000000,39533.000000
1419.000000,12497.000000,2770.000000,39523.000000
1421.000000,12474.000000,2770.000000,39531.000000
1431.000000,12472.000000,2711.000000,39493.000000
1451.000000,12455.000000,2752.000000,39528.000000
1397.000000,12448.000000,2738.000000,39488.000000
1400.000000,12423.000000,2726.000000,39519.000000
1375.000000,12435.000000,2706.000000,39507.000000
1394.000000,12421.000000,2722.000000,39494.000000
1417.000000,12433.000000,2708.000000,39743.000000
1355.000000,12407.000000,2741.000000,39756.000000
1356.000000,12407.000000,2698.000000,39499.000000
1361.000000,12379.000000,2691.000000,39468.000000
1311.000000,12384.000000,2948.000000,39492.000000
1308.000000,12372.000000,2658.000000,39466.000000
1337.000000,12373.000000,2645.000000,39467.000000
1337.000000,12362.000000,2649.000000,39450.000000
1300.000000,12341.000000,2647.000000,39473.000000
1311.000000,12356.000000,2632.000000,39461.000000
1311.000000,12358.000000,2648.000000,39432.000000
1309.000000,12320.000000,2619.000000,39421.000000
1291.000000,12320.000000,2626.000000,39447.000000
1281.000000,12313.000000,2592.000000,39420.000000
1285.000000,12343.000000,2609.000000,39451.000000
1252.000000,12324.000000,2578.000000,39407.000000
1239.000000,12311.000000,2565.000000,39437.000000
1231.000000,12287.000000,2584.000000,39403.000000
1239.000000,12325.000000,2578.000000,39387.000000
1192.000000,12289.000000,2531.000000,39388.000000
1172.000000,12283.000000,2531.000000,39377.000000
1152.000000,12272.000000,2517.000000,39385.000000
1172.000000,12232.000000,2471.000000,39332.000000
1162.000000,12225.000000,2468.000000,39376.000000
1130.000000,12235.000000,2470.000000,39352.000000
1141.000000,12225.000000,2452.000000,39345.000000
1125.000000,12227.000000,2433.000000,39348.000000
1096.000000,12188.000000,2433.000000,39329.000000
1113.000000,12199.000000,2435.000000,39351.000000
1069.000000,12175.000000,2443.000000,39336.000000
1100.000000,12197.000000,2431.000000,39339.000000
1095.000000,12187.000000,2429.000000,39297.000000
1076.000000,12184.000000,2408.000000,39315.000000
1101.000000,12191.000000,2427.000000,39339.000000
1094.000000,12199.000000,2455.000000,39343.000000
1126.000000,12211.000000,2455.000000,39329.000000
1122.000000,12217.000000,2441.000000,39319.000000
1137.000000,12213.000000,2443.000000,39332.000000
1170.000000,12216.000000,2440.000000,39336.000000
1129.000000,12245.000000,2444.000000,39336.000000
1142.000000,12265.000000,2477.000000,39360.000000
1192.000000,12252.000000,2484.000000,39360.000000
1209.000000,12267.000000,2514.000000,39383.000000
1178.000000,12265.000000,2504.000000,39393.000000
1203.000000,12284.000000,2544.000000,39383.000000
1207.000000,12307.000000,2562.000000,39386.000000
1239.000000,12295.000000,2586.000000,39428.000000
1244.000000,12327.000000,2528.000000,39423.000000
1271.000000,12312.000000,2599.000000,39444.000000
1268.000000,12340.000000,2588.000000,39427.000000
1329.000000,12356.000000,2597.000000,39448.000000
1307.000000,12357.000000,2630.000000,39436.000000
1356.000000,12384.000000,2673.000000,39477.000000
1343.000000,12393.000000,2669.000000,39486.000000
1381.000000,12393.000000,2702.000000,39472.000000
1428.000000,12448.000000,2732.000000,39751.000000
1480.000000,12469.000000,2785.000000,39504.000000
1491.000000,12489.000000,2798.000000,39513.000000
1558.000000,12552.000000,2854.000000,39567.000000
1572.000000,12563.000000,2895.000000,39620.000000
1634.000000,12567.000000,2911.000000,39632.000000
1652.000000,12653.000000,2974.000000,39677.000000
1719.000000,12683.000000,2995.000000,39652.000000
1741.000000,12699.000000,3062.000000,39687.000000
1799.000000,12745.000000,3149.000000,39751.000000
1823.000000,12765.000000,3126.000000,39768.000000
1896.000000,12797.000000,3161.000000,39763.000000
1916.000000,13081.000000,3213.000000,39807.000000
1959.000000,13107.000000,3269.000000,39823.000000
1938.000000,12837.000000,3263.000000,39808.000000
1971.000000,12859.000000,3267.000000,39831.000000
1994.000000,12885.000000,3295.000000,39851.000000
2008.000000,12883.000000,3285.000000,39816.000000
2006.000000,12863.000000,3283.000000,39849.000000
2007.000000,13121.000000,3303.000000,39805.000000
2003.000000,12898.000000,3293.000000,39823.000000
1981.000000,12879.000000,3258.000000,39832.000000
2023.000000,12861.000000,3274.000000,39821.000000
1991.000000,13144.000000,3285.000000,39823.000000
1984.000000,13117.000000,3260.000000,39839.000000
1981.000000,13109.000000,3254.000000,39819.000000
2016.000000,13132.000000,3252.000000,39843.000000
1987.000000,12844.000000,3278.000000,39843.000000
1952.000000,12866.000000,3281.000000,39825.000000
1971.000000,13083.000000,3236.000000,39803.000000
1951.000000,13077.000000,3239.000000,39813.000000
1948.000000,12827.000000,3222.000000,39808.000000
1941.000000,12797.000000,3231.000000,39780.000000
1915.000000,12811.000000,3202.000000,39771.000000
1931.000000,12797.000000,3194.000000,39788.000000
1888.000000,12819.000000,3190.000000,39775.000000
1903.000000,13067.000000,3222.000000,39783.000000
1889.000000,12799.000000,3148.000000,39784.000000
1888.000000,12771.000000,3180.000000,39749.000000
1887.000000,12773.000000,3179.000000,39783.000000
1853.000000,12761.000000,3146.000000,39755.000000
1828.000000,12783.000000,3153.000000,39761.000000
1853.000000,12768.000000,3139.000000,39744.000000
1856.000000,12764.000000,3134.000000,39731.000000
1789.000000,12769.000000,3113.000000,39737.000000
1827.000000,12748.000000,3111.000000,39715.000000
1815.000000,12719.000000,3076.000000,39736.000000
1809.000000,12719.000000,3107.000000,39715.000000
1807.000000,12751.000000,3116.000000,39723.000000
1827.000000,12716.000000,3090.000000,39721.000000
1809.000000,12720.000000,3067.000000,39701.000000
1787.000000,12723.000000,3094.000000,39737.000000
1796.000000,12732.000000,3066.000000,39707.000000
1781.000000,12703.000000,3048.000000,39697.000000
1768.000000,12703.000000,3067.000000,39731.000000
1745.000000,12703.000000,3046.000000,39685.000000
1774.000000,12684.000000,3047.000000,39695.000000
1769.000000,12704.000000,3043.000000,39695.000000
1770.000000,12695.000000,3023.000000,39688.000000
1749.000000,12735.000000,3054.000000,39687.000000
1732.000000,12683.000000,3037.000000,39667.000000
1763.000000,12661.000000,3008.000000,39661.000000
1736.000000,12647.000000,3012.000000,39681.000000
1744.000000,12665.000000,3003.000000,39924.000000
1722.000000,12647.000000,3016.000000,39669.000000
1979.000000,12663.000000,3016.000000,39664.000000
1697.000000,12651.000000,3019.000000,39662.000000
1684.000000,12637.000000,2955.000000,39673.000000
1690.000000,12647.000000,2939.000000,39625.000000
1677.000000,12633.000000,2950.000000,39639.000000
1658.000000,12609.000000,2935.000000,39632.000000
1637.000000,12577.000000,2927.000000,39640.000000
1653.000000,12591.000000,2911.000000,39638.000000
1625.000000,12587.000000,2903.000000,39621.000000
1613.000000,12572.000000,2884.000000,39596.000000
1601.000000,12580.000000,2906.000000,39831.000000
1584.000000,12596.000000,2894.000000,39578.000000
1589.000000,12587.000000,2905.000000,39596.000000
1599.000000,12549.000000,2844.000000,39557.000000
1564.000000,12559.000000,2838.000000,39577.000000
1579.000000,12538.000000,2864.000000,39594.000000
1568.000000,12528.000000,2798.000000,39576.000000
1800.000000,12520.000000,2848.000000,39559.000000
1529.000000,12515.000000,2794.000000,39586.000000
1535.000000,12465.000000,2795.000000,39538.000000
1528.000000,12513.000000,2828.000000,39558.000000
1496.000000,12497.000000,2803.000000,39545.000000
1485.000000,12477.000000,2765.000000,39527.000000
1489.000000,12505.000000,2790.000000,39554.000000
1487.000000,12472.000000,2733.000000,39522.000000
1465.000000,12452.000000,2773.000000,39504.000000
1452.000000,12469.000000,2742.000000,39505.000000
1463.000000,12448.000000,2754.000000,39516.000000
1478.000000,12441.000000,2729.000000,39507.000000
1443.000000,12415.000000,2710.000000,39498.000000
1429.000000,12467.000000,2712.000000,39540.000000
1428.000000,12427.000000,2738.000000,39771.000000
1419.000000,12428.000000,2706.000000,39506.000000
1408.000000,12421.000000,2729.000000,39518.000000
1412.000000,12417.000000,2677.000000,39478.000000
1423.000000,12384.000000,2671.000000,39441.000000
1377.000000,12431.000000,2664.000000,39487.000000
1381.000000,12410.000000,2659.000000,39462.000000
1362.000000,12383.000000,2658.000000,39479.000000
1339.000000,12364.000000,2620.000000,39461.000000
1367.000000,12373.000000,2636.000000,39455.000000
1315.000000,12347.000000,2617.000000,39453.000000
1316.000000,12361.000000,2581.000000,39692.000000
1303.000000,12336.000000,2568.000000,39401.000000
1307.000000,12343.000000,2567.000000,39424.000000
1270.000000,12295.000000,2541.000000,39383.000000
1219.000000,12307.000000,2565.000000,39404.000000
1266.000000,12265.000000,2531.000000,39425.000000
1228.000000,12291.000000,2542.000000,39409.000000
1196.000000,12273.000000,2496.000000,39364.000000
1225.000000,12255.000000,2535.000000,39379.000000
1191.000000,12224.000000,2495.000000,39365.000000
1186.000000,12268.000000,2511.000000,39367.000000
1220.000000,12275.000000,2519.000000,39376.000000
1235.000000,12279.000000,2496.000000,39399.000000
1221.000000,12252.000000,2491.000000,39399.000000
1200.000000,12269.000000,2508.000000,39392.000000
1260.000000,12300.000000,2543.000000,39405.000000
1239.000000,12245.000000,2529.000000,39388.000000
1249.000000,12294.000000,2559.000000,39419.000000
1246.000000,12275.000000,2540.000000,39401.000000
1281.000000,12347.000000,2535.000000,39450.000000
1260.000000,12331.000000,2584.000000,39435.000000
1279.000000,12316.000000,2592.000000,39425.000000
1301.000000,12324.000000,2584.000000,39425.000000
1300.000000,12353.000000,2602.000000,39407.000000
1299.000000,12358.000000,2609.000000,39469.000000
1367.000000,12365.000000,2615.000000,39436.000000
1388.000000,12373.000000,2630.000000,39437.000000
1405.000000,12367.000000,2645.000000,39460.000000
1392.000000,12368.000000,2670.000000,39464.000000
1397.000000,12420.000000,2662.000000,39464.000000
1431.000000,12420.000000,2719.000000,39756.000000
1429.000000,12431.000000,2690.000000,39521.000000
1484.000000,12475.000000,2746.000000,39522.000000
1455.000000,12473.000000,2763.000000,39516.000000
1539.000000,12483.000000,2790.000000,39543.000000
1540.000000,12498.000000,2831.000000,39557.000000
1568.000000,12535.000000,2833.000000,39583.000000
1621.000000,12580.000000,2905.000000,39615.000000
1629.000000,12619.000000,2965.000000,39617.000000
1673.000000,12629.000000,2934.000000,39652.000000
1741.000000,12671.000000,3016.000000,39672.000000
1758.000000,12711.000000,3040.000000,39720.000000
1817.000000,12752.000000,3098.000000,39725.000000
1849.000000,12781.000000,3134.000000,39789.000000
1862.000000,13059.000000,3145.000000,39777.000000
1947.000000,13087.000000,3204.000000,39773.000000
1992.000000,12839.000000,3225.000000,39823.000000
2043.000000,13131.000000,3277.000000,39821.000000
2040.000000,12883.000000,3312.000000,39852.000000
2080.000000,13197.000000,3336.000000,39868.000000
2086.000000,13203.000000,3367.000000,39895.000000
2108.000000,13183.000000,3361.000000,39880.000000
2088.000000,12944.000000,3353.000000,39865.000000
2097.000000,13176.000000,3343.000000,39867.000000
2093.000000,12920.000000,3359.000000,39892.000000
2128.000000,12931.000000,3336.000000,39888.000000
2105.000000,13191.000000,3336.000000,39879.000000
2102.000000,13191.000000,3355.000000,39877.000000
2111.000000,12921.000000,3360.000000,39860.000000
2092.000000,13193.000000,3356.000000,39881.000000
2083.000000,12927.000000,3328.000000,39852.000000
2068.000000,13172.000000,3327.000000,39869.000000
2034.000000,13169.000000,3335.000000,39847.000000
2087.000000,13167.000000,3310.000000,39855.000000
2058.000000,13169.000000,3313.000000,39847.000000
2036.000000,12895.000000,3313.000000,39843.000000
2044.000000,12891.000000,3292.000000,39840.000000
2034.000000,12885.000000,3305.000000,39855.000000
1982.000000,12889.000000,3288.000000,39839.000000
2015.000000,13101.000000,3300.000000,39821.000000
2015.000000,13123.000000,3285.000000,39827.000000
1986.000000,13103.000000,3263.000000,39804.000000
1981.000000,13117.000000,3240.000000,39817.000000
1979.000000,12839.000000,3226.000000,39811.000000
1983.000000,12837.000000,3214.000000,39796.000000
1988.000000,13107.000000,3222.000000,39791.000000
1951.000000,13063.000000,3215.000000,39792.000000
1969.000000,13085.000000,3195.000000,39788.000000
1940.000000,13083.000000,3201.000000,39795.000000
1957.000000,13087.000000,3208.000000,39791.000000
1941.000000,12804.000000,3187.000000,39783.000000
1921.000000,12803.000000,3183.000000,39773.000000
1904.000000,12793.000000,3186.000000,39793.000000
1919.000000,12804.000000,3158.000000,39767.000000
1909.000000,12804.000000,3156.000000,39769.000000
1898.000000,12780.000000,3152.000000,39739.000000
1933.000000,12807.000000,3181.000000,39789.000000
1927.000000,13077.000000,3169.000000,39755.000000
1920.000000,12785.000000,3179.000000,39772.000000
1883.000000,12773.000000,3139.000000,39769.000000
1892.000000,12781.000000,3163.000000,39792.000000
1883.000000,12785.000000,3148.000000,39767.000000
1871.000000,12773.000000,3119.000000,39759.000000
1878.000000,12776.000000,3159.000000,39761.000000
1868.000000,12741.000000,3132.000000,39744.000000
1853.000000,12755.000000,3110.000000,39748.000000
1823.000000,12735.000000,3088.000000,39751.000000
1840.000000,12724.000000,3071.000000,39736.000000
1857.000000,12756.000000,3095.000000,39708.000000
1845.000000,12739.000000,3090.000000,39715.000000
1823.000000,12728.000000,3083.000000,39735.000000
1820.000000,12705.000000,3082.000000,39703.000000
1800.000000,12711.000000,3040.000000,39721.000000
1786.000000,12719.000000,3054.000000,39703.000000
1764.000000,12675.000000,3009.000000,39687.000000
1731.000000,12691.000000,2998.000000,39684.000000
1746.000000,12677.000000,3021.000000,39675.000000
1719.000000,12648.000000,2985.000000,39673.000000
1735.000000,12649.000000,2988.000000,39644.000000
1697.000000,12628.000000,2988.000000,39666.000000
1676.000000,12627.000000,2974.000000,39625.000000
1923.000000,12611.000000,2959.000000,39607.000000
1702.000000,12615.000000,2941.000000,39612.000000
1655.000000,12607.000000,2933.000000,39659.000000
1644.000000,12588.000000,2920.000000,39625.000000
1606.000000,12576.000000,2901.000000,39596.000000
1632.000000,12591.000000,2899.000000,39626.000000
1603.000000,12572.000000,2891.000000,39872.000000
1611.000000,12571.000000,2871.000000,39603.000000
1624.000000,12563.000000,2849.000000,39561.000000
1580.000000,12560.000000,2866.000000,39609.000000
1567.000000,12523.000000,2840.000000,39563.000000
1584.000000,12551.000000,2864.000000,39582.000000
1553.000000,12547.000000,2857.000000,39601.000000
1590.000000,12519.000000,2833.000000,39579.000000
1522.000000,12528.000000,2810.000000,39552.000000
1571.000000,12555.000000,2822.000000,39564.000000
1523.000000,12535.000000,2823.000000,39583.000000
1792.000000,12517.000000,2810.000000,39554.000000
1543.000000,12506.000000,2816.000000,39577.000000
1520.000000,12507.000000,2780.000000,39571.000000
1499.000000,12460.000000,2742.000000,39528.000000
1486.000000,12465.000000,2761.000000,39535.000000
1482.000000,12451.000000,2768.000000,39528.000000
1451.000000,12455.000000,2733.000000,39515.000000
1443.000000,12451.000000,2747.000000,39520.000000
1432.000000,12432.000000,2709.000000,39518.000000
1464.000000,12425.000000,2684.000000,39488.000000
1423.000000,12436.000000,2693.000000,39504.000000
1403.000000,12413.000000,2704.000000,39501.000000
1384.000000,12416.000000,2668.000000,39470.000000
1390.000000,12400.000000,2669.000000,39472.000000
1343.000000,12378.000000,2666.000000,39480.000000
1337.000000,12368.000000,2637.000000,39475.000000
1320.000000,12351.000000,2609.000000,39431.000000
1315.000000,12343.000000,2608.000000,39459.000000
1311.000000,12332.000000,2583.000000,39432.000000
1308.000000,12348.000000,2592.000000,39420.000000
1299.000000,12319.000000,2577.000000,39419.000000
1301.000000,12303.000000,2544.000000,39437.000000
1307.000000,12345.000000,2592.000000,39381.000000
1300.000000,12345.000000,2593.000000,39403.000000
1284.000000,12303.000000,2554.000000,39431.000000
1312.000000,12355.000000,2561.000000,39453.000000
1325.000000,12371.000000,2609.000000,39413.000000
1341.000000,12348.000000,2624.000000,39471.000000
1343.000000,12351.000000,2612.000000,39439.000000
1349.000000,12339.000000,2629.000000,39457.000000
1331.000000,12363.000000,2628.000000,39473.000000
1347.000000,12385.000000,2649.000000,39441.000000
1367.000000,12376.000000,2636.000000,39471.000000
1356.000000,12385.000000,2639.000000,39473.000000
1416.000000,12425.000000,2671.000000,39464.000000
1383.000000,12419.000000,2674.000000,39472.000000
1433.000000,12413.000000,2703.000000,39475.000000
1433.000000,12435.000000,2712.000000,39491.000000
