660nm,730nm,850nm,940nm
11717.000000,17445.000000,8098.000000,42784.000000
11759.000000,17450.000000,8105.000000,42801.000000
11807.000000,17510.000000,8183.000000,42839.000000
11874.000000,17542.000000,8250.000000,42876.000000
11912.000000,17587.000000,8263.000000,42920.000000
11959.000000,17616.000000,8338.000000,42973.000000
12012.000000,17671.000000,8396.000000,42995.000000
12065.000000,17655.000000,8463.000000,42992.000000
12139.000000,17743.000000,8512.000000,43053.000000
12187.000000,17815.000000,8617.000000,43131.000000
12240.000000,17799.000000,8636.000000,43144.000000
12287.000000,17903.000000,8737.000000,43164.000000
12370.000000,17942.000000,8810.000000,43220.000000
12431.000000,17993.000000,8886.000000,43237.000000
12506.000000,18300.000000,8977.000000,43285.000000
12531.000000,18101.000000,9057.000000,43337.000000
12639.000000,18147.000000,9095.000000,43385.000000
12678.000000,18181.000000,9159.000000,43393.000000
12742.000000,18225.000000,9210.000000,43463.000000
12842.000000,18311.000000,9306.000000,43487.000000
12892.000000,18348.000000,9339.000000,43522.000000
12912.000000,18347.000000,9367.000000,43552.000000
12947.000000,18376.000000,9388.000000,43571.000000
12922.000000,18347.000000,9410.000000,43547.000000
12928.000000,18371.000000,9408.000000,43542.000000
12965.000000,18364.000000,9408.000000,43564.000000
12914.000000,18367.000000,9378.000000,43517.000000
12898.000000,18373.000000,9353.000000,43537.000000
12906.000000,18340.000000,9334.000000,43523.000000
12896.000000,18351.000000,9325.000000,43496.000000
12885.000000,18315.000000,9301.000000,43525.000000
12877.000000,18293.000000,9265.000000,43469.000000
12832.000000,18265.000000,9268.000000,43451.000000
12805.000000,18301.000000,9226.000000,43456.000000
12799.000000,18237.000000,9208.000000,43439.000000
12766.000000,18237.000000,9184.000000,43428.000000
12768.000000,18249.000000,9182.000000,43443.000000
12757.000000,18187.000000,9166.000000,43431.000000
12700.000000,18200.000000,9120.000000,43409.000000
12725.000000,18199.000000,9098.000000,43387.000000
12673.000000,18157.000000,9088.000000,43363.000000
12674.000000,18375.000000,9044.000000,43355.000000
12657.000000,18136.000000,9039.000000,43312.000000
12635.000000,18087.000000,8991.000000,43304.000000
12615.000000,18084.000000,8991.000000,43319.000000
12596.000000,18065.000000,8959.000000,43343.000000
12569.000000,18058.000000,8964.000000,43297.000000
12557.000000,18066.000000,8932.000000,43266.000000
12544.000000,18025.000000,8913.000000,43283.000000
12549.000000,18296.000000,8887.000000,43262.000000
12521.000000,18015.000000,8847.000000,43251.000000
12487.000000,17977.000000,8845.000000,43226.000000
12469.000000,18004.000000,8833.000000,43225.000000
12469.000000,17942.000000,8806.000000,43229.000000
12464.000000,18205.000000,8764.000000,43194.000000
12454.000000,17955.000000,8777.000000,43223.000000
12421.000000,17940.000000,8764.000000,43186.000000
12409.000000,17919.000000,8712.000000,43186.000000
12432.000000,17892.000000,8686.000000,43134.000000
12335.000000,17899.000000,8668.000000,43147.000000
12393.000000,17868.000000,8695.000000,43146.000000
12358.000000,17888.000000,8648.000000,43110.000000
12311.000000,17855.000000,8591.000000,43135.000000
12325.000000,17829.000000,8603.000000,43105.000000
12302.000000,17839.000000,8591.000000,43119.000000
12287.000000,17818.000000,8558.000000,43097.000000
12292.000000,17799.000000,8531.000000,43095.000000
12268.000000,17813.000000,8541.000000,43101.000000
12259.000000,17763.000000,8502.000000,43049.000000
12242.000000,17767.000000,8491.000000,43061.000000
12189.000000,17781.000000,8506.000000,43040.000000
12199.000000,17747.000000,8454.000000,43046.000000
12175.000000,17706.000000,8443.000000,43023.000000
12169.000000,17691.000000,8416.000000,43002.000000
12118.000000,17711.000000,8375.000000,42980.000000
12148.000000,17695.000000,8366.000000,42975.000000
12094.000000,17651.000000,8316.000000,42953.000000
12119.000000,17633.000000,8316.000000,42948.000000
12073.000000,17639.000000,8300.000000,42974.000000
12067.000000,17620.000000,8270.000000,42913.000000
12061.000000,17638.000000,8234.000000,42951.000000
12048.000000,17611.000000,8245.000000,42899.000000
12013.000000,17590.000000,8226.000000,42908.000000
12004.000000,17581.000000,8205.000000,42908.000000
12003.000000,17561.000000,8213.000000,42879.000000
11997.000000,17544.000000,8220.000000,42868.000000
11992.000000,17560.000000,8169.000000,42847.000000
11944.000000,17552.000000,8147.000000,42877.000000
11965.000000,17532.000000,8086.000000,42847.000000
11956.000000,17515.000000,8126.000000,42861.000000
11949.000000,17495.000000,8081.000000,42827.000000
11899.000000,17480.000000,8079.000000,42808.000000
11903.000000,17491.000000,8065.000000,42831.000000
11910.000000,17477.000000,8078.000000,42815.000000
11855.000000,17467.000000,8043.000000,42788.000000
11836.000000,17437.000000,8023.000000,42786.000000
11840.000000,17473.000000,8028.000000,42790.000000
11835.000000,17415.000000,8000.000000,42763.000000
11803.000000,17407.000000,7980.000000,42775.000000
11777.000000,17408.000000,7960.000000,42761.000000
11763.000000,17383.000000,7940.000000,42746.000000
11803.000000,17383.000000,7917.000000,42718.000000
11780.000000,17375.000000,7912.000000,42722.000000
11769.000000,17367.000000,7883.000000,42736.000000
11760.000000,17363.000000,7899.000000,42712.000000
11745.000000,17367.000000,7882.000000,42710.000000
11738.000000,17327.000000,7829.000000,42713.000000
11714.000000,17329.000000,7839.000000,42680.000000
11716.000000,17353.000000,7792.000000,42678.000000
11653.000000,17295.000000,7790.000000,42663.000000
11666.000000,17275.000000,7752.000000,42623.000000
11625.000000,17239.000000,7749.000000,42638.000000
11647.000000,17273.000000,7724.000000,42626.000000
11617.000000,17231.000000,7697.000000,42598.000000
11555.000000,17231.000000,7679.000000,42578.000000
11603.000000,17193.000000,7641.000000,42562.000000
11527.000000,17171.000000,7626.000000,42554.000000
11509.000000,17187.000000,7592.000000,42573.000000
11524.000000,17147.000000,7595.000000,42590.000000
11452.000000,17146.000000,7558.000000,42523.000000
11468.000000,17153.000000,7560.000000,42542.000000
11470.000000,17087.000000,7545.000000,42546.000000
11439.000000,17106.000000,7523.000000,42521.000000
11443.000000,17148.000000,7525.000000,42519.000000
11455.000000,17100.000000,7531.000000,42513.000000
11446.000000,17127.000000,7535.000000,42492.000000
11439.000000,17098.000000,7564.000000,42546.000000
11485.000000,17387.000000,7557.000000,42545.000000
11479.000000,17136.000000,7541.000000,42550.000000
11520.000000,17138.000000,7599.000000,42542.000000
11521.000000,17161.000000,7587.000000,42543.000000
11535.000000,17175.000000,7601.000000,42556.000000
11572.000000,17191.000000,7655.000000,42566.000000
11579.000000,17187.000000,7645.000000,42548.000000
11624.000000,17221.000000,7701.000000,42589.000000
11629.000000,17243.000000,7704.000000,42641.000000
11645.000000,17279.000000,7705.000000,42640.000000
11683.000000,17279.000000,7761.000000,42642.000000
11708.000000,17284.000000,7805.000000,42664.000000
11777.000000,17339.000000,7853.000000,42686.000000
11797.000000,17388.000000,7922.000000,42756.000000
11822.000000,17421.000000,7938.000000,42765.000000
11873.000000,17429.000000,7986.000000,42767.000000
11915.000000,17442.000000,8011.000000,42814.000000
11945.000000,17477.000000,8103.000000,42872.000000
12010.000000,17534.000000,8140.000000,42857.000000
12060.000000,17558.000000,8164.000000,42899.000000
12117.000000,17608.000000,8237.000000,42936.000000
12197.000000,17663.000000,8316.000000,42984.000000
12211.000000,17692.000000,8363.000000,43010.000000
12275.000000,17759.000000,8446.000000,43055.000000
12372.000000,17765.000000,8511.000000,43071.000000
12440.000000,17835.000000,8590.000000,43116.000000
12523.000000,17901.000000,8667.000000,43190.000000
12587.000000,17949.000000,8740.000000,43223.000000
12645.000000,17951.000000,8818.000000,43307.000000
12729.000000,18297.000000,8886.000000,43329.000000
12768.000000,18095.000000,8938.000000,43328.000000
12823.000000,18131.000000,8979.000000,43384.000000
12865.000000,18172.000000,9043.000000,43425.000000
12869.000000,18192.000000,9083.000000,43436.000000
12909.000000,18233.000000,9088.000000,43408.000000
12947.000000,18217.000000,9089.000000,43419.000000
12942.000000,18225.000000,9104.000000,43437.000000
12962.000000,18231.000000,9127.000000,43429.000000
12913.000000,18184.000000,9123.000000,43435.000000
12957.000000,18243.000000,9132.000000,43459.000000
12891.000000,18225.000000,9093.000000,43436.000000
12922.000000,18193.000000,9102.000000,43439.000000
12863.000000,18176.000000,9047.000000,43418.000000
12888.000000,18193.000000,9062.000000,43405.000000
12889.000000,18147.000000,9059.000000,43405.000000
12850.000000,18145.000000,9029.000000,43371.000000
12818.000000,18157.000000,8979.000000,43344.000000
12809.000000,18121.000000,8983.000000,43353.000000
12806.000000,18127.000000,8981.000000,43352.000000
12782.000000,18099.000000,8958.000000,43321.000000
12783.000000,18087.000000,8937.000000,43351.000000
12787.000000,18085.000000,8929.000000,43319.000000
12705.000000,18049.000000,8908.000000,43321.000000
12748.000000,18055.000000,8899.000000,43312.000000
12694.000000,18058.000000,8872.000000,43276.000000
12715.000000,18035.000000,8864.000000,43300.000000
12707.000000,18028.000000,8838.000000,43275.000000
12696.000000,18017.000000,8814.000000,43247.000000
12643.000000,17971.000000,8853.000000,43279.000000
12665.000000,17978.000000,8782.000000,43257.000000
12637.000000,17985.000000,8804.000000,43257.000000
12615.000000,17956.000000,8752.000000,43232.000000
12581.000000,17948.000000,8729.000000,43228.000000
12569.000000,17941.000000,8712.000000,43223.000000
12597.000000,17928.000000,8721.000000,43203.000000
12559.000000,17903.000000,8690.000000,43183.000000
12545.000000,17891.000000,8682.000000,43202.000000
12518.000000,17891.000000,8671.000000,43189.000000
12520.000000,17868.000000,8649.000000,43166.000000
12500.000000,17871.000000,8632.000000,43152.000000
12482.000000,17875.000000,8613.000000,43161.000000
12454.000000,17853.000000,8582.000000,43155.000000
12475.000000,17855.000000,8598.000000,43140.000000
12422.000000,17783.000000,8586.000000,43155.000000
12444.000000,17791.000000,8573.000000,43125.000000
12415.000000,17823.000000,8538.000000,43107.000000
12394.000000,17803.000000,8533.000000,43120.000000
12392.000000,17781.000000,8500.000000,43121.000000
12376.000000,17759.000000,8490.000000,43036.000000
12334.000000,17764.000000,8467.000000,43095.000000
12336.000000,17737.000000,8422.000000,43057.000000
12343.000000,17712.000000,8399.000000,43037.000000
12324.000000,17683.000000,8392.000000,43028.000000
12292.000000,17683.000000,8386.000000,43007.000000
12254.000000,17677.000000,8355.000000,43014.000000
12240.000000,17660.000000,8354.000000,42992.000000
12226.000000,17647.000000,8369.000000,42998.000000
12218.000000,17640.000000,8317.000000,42999.000000
12230.000000,17658.000000,8318.000000,42983.000000
12223.000000,17605.000000,8284.000000,42979.000000
12131.000000,17601.000000,8295.000000,42976.000000
12172.000000,17613.000000,8272.000000,42960.000000
12148.000000,17585.000000,8269.000000,42959.000000
12174.000000,17574.000000,8244.000000,42932.000000
12112.000000,17547.000000,8197.000000,42915.000000
12137.000000,17577.000000,8229.000000,42933.000000
12103.000000,17586.000000,8202.000000,42919.000000
12094.000000,17551.000000,8187.000000,42919.000000
12108.000000,17535.000000,8182.000000,42936.000000
12083.000000,17543.000000,8146.000000,42913.000000
12093.000000,17526.000000,8153.000000,42893.000000
12064.000000,17531.000000,8178.000000,42889.000000
12033.000000,17528.000000,8116.000000,42891.000000
12002.000000,17511.000000,8087.000000,42863.000000
12043.000000,17488.000000,8107.000000,42883.000000
11994.000000,17474.000000,8047.000000,42845.000000
11995.000000,17470.000000,8072.000000,42832.000000
11960.000000,17429.000000,8025.000000,42835.000000
11932.000000,17422.000000,8045.000000,42823.000000
11909.000000,17425.000000,8004.000000,42787.000000
11886.000000,17403.000000,7982.000000,42812.000000
11898.000000,17375.000000,7939.000000,42791.000000
11873.000000,17385.000000,7952.000000,42755.000000
11869.000000,17356.000000,7949.000000,42775.000000
11857.000000,17359.000000,7919.000000,42755.000000
11849.000000,17372.000000,7904.000000,42743.000000
11828.000000,17351.000000,7920.000000,42748.000000
11812.000000,17327.000000,7876.000000,42740.000000
11815.000000,17333.000000,7884.000000,42739.000000
11788.000000,17320.000000,7848.000000,42724.000000
11770.000000,17313.000000,7836.000000,42718.000000
11767.000000,17296.000000,7835.000000,42723.000000
11749.000000,17273.000000,7808.000000,42674.000000
11755.000000,17264.000000,7795.000000,42698.000000
11746.000000,17267.000000,7783.000000,42657.000000
11663.000000,17247.000000,7725.000000,42645.000000
11646.000000,17211.000000,7689.000000,42659.000000
11664.000000,17212.000000,7713.000000,42642.000000
11607.000000,17167.000000,7679.000000,42618.000000
11602.000000,17191.000000,7626.000000,42605.000000
11580.000000,17145.000000,7619.000000,42603.000000
11565.000000,17392.000000,7579.000000,42580.000000
11536.000000,17119.000000,7584.000000,42547.000000
11524.000000,17091.000000,7552.000000,42555.000000
11516.000000,17101.000000,7577.000000,42556.000000
11482.000000,17085.000000,7552.000000,42555.000000
11484.000000,17344.000000,7524.000000,42525.000000
11500.000000,17075.000000,7533.000000,42531.000000
11512.000000,17057.000000,7520.000000,42541.000000
11493.000000,17084.000000,7562.000000,42544.000000
11493.000000,17111.000000,7537.000000,42540.000000
11528.000000,17074.000000,7544.000000,42535.000000
11560.000000,17351.000000,7559.000000,42603.000000
11574.000000,17109.000000,7586.000000,42575.000000
11579.000000,17179.000000,7624.000000,42585.000000
11595.000000,17147.000000,7629.000000,42558.000000
11601.000000,17153.000000,7654.000000,42611.000000
11623.000000,17180.000000,7659.000000,42610.000000
11643.000000,17180.000000,7680.000000,42631.000000
11666.000000,17205.000000,7708.000000,42640.000000
11696.000000,17227.000000,7747.000000,42652.000000
11757.000000,17260.000000,7781.000000,42694.000000
11775.000000,17263.000000,7827.000000,42734.000000
11802.000000,17295.000000,7871.000000,42709.000000
11861.000000,17331.000000,7913.000000,42763.000000
11883.000000,17353.000000,7944.000000,42751.000000
11888.000000,17387.000000,7993.000000,42815.000000
11946.000000,17392.000000,8032.000000,42808.000000
12036.000000,17440.000000,8095.000000,42847.000000
12074.000000,17484.000000,8137.000000,42868.000000
12115.000000,17545.000000,8180.000000,42928.000000
12161.000000,17575.000000,8244.000000,42955.000000
12211.000000,17575.000000,8318.000000,43021.000000
12249.000000,17642.000000,8355.000000,43056.000000
12347.000000,17665.000000,8446.000000,43057.000000
12372.000000,17761.000000,8525.000000,43117.000000
12473.000000,17823.000000,8624.000000,43192.000000
12545.000000,17863.000000,8684.000000,43188.000000
12613.000000,17915.000000,8754.000000,43259.000000
12676.000000,18229.000000,8852.000000,43287.000000
12770.000000,18284.000000,8917.000000,43339.000000
12780.000000,18094.000000,8944.000000,43361.000000
12894.000000,18122.000000,8993.000000,43415.000000
12915.000000,18130.000000,9044.000000,43419.000000
12966.000000,18154.000000,9114.000000,43453.000000
13013.000000,18189.000000,9127.000000,43489.000000
13025.000000,18181.000000,9149.000000,43492.000000
13030.000000,18224.000000,9166.000000,43485.000000
12990.000000,18223.000000,9146.000000,43479.000000
12977.000000,18199.000000,9150.000000,43480.000000
13002.000000,18185.000000,9166.000000,43488.000000
12984.000000,18164.000000,9140.000000,43454.000000
12992.000000,18176.000000,9093.000000,43450.000000
12962.000000,18161.000000,9137.000000,43471.000000
12961.000000,18149.000000,9080.000000,43443.000000
12963.000000,18159.000000,9103.000000,43452.000000
12944.000000,18412.000000,9089.000000,43453.000000
12925.000000,18129.000000,9082.000000,43421.000000
12922.000000,18138.000000,9061.000000,43416.000000
12912.000000,18127.000000,9040.000000,43440.000000
12886.000000,18101.000000,9061.000000,43410.000000
12909.000000,18141.000000,9023.000000,43395.000000
12885.000000,18096.000000,9011.000000,43400.000000
12910.000000,18092.000000,8989.000000,43377.000000
12908.000000,18070.000000,8992.000000,43417.000000
12863.000000,18096.000000,8985.000000,43422.000000
12834.000000,18304.000000,8959.000000,43359.000000
12800.000000,18085.000000,8968.000000,43351.000000
12845.000000,18061.000000,8953.000000,43386.000000
12795.000000,18045.000000,8951.000000,43359.000000
12809.000000,18028.000000,8915.000000,43351.000000
12808.000000,18043.000000,8923.000000,43355.000000
12773.000000,18015.000000,8879.000000,43308.000000
12791.000000,17978.000000,8871.000000,43317.000000
12754.000000,18199.000000,8854.000000,43335.000000
12761.000000,17962.000000,8863.000000,43333.000000
12735.000000,17976.000000,8845.000000,43313.000000
12704.000000,18211.000000,8822.000000,43313.000000
12695.000000,17957.000000,8786.000000,43288.000000
12693.000000,17973.000000,8802.000000,43265.000000
12716.000000,17885.000000,8789.000000,43276.000000
12689.000000,17949.000000,8783.000000,43295.000000
12657.000000,17909.000000,8753.000000,43276.000000
12651.000000,17899.000000,8747.000000,43246.000000
12668.000000,17895.000000,8721.000000,43238.000000
12638.000000,17875.000000,8703.000000,43279.000000
12588.000000,17901.000000,8702.000000,43248.000000
12610.000000,17887.000000,8669.000000,43214.000000
12613.000000,17887.000000,8687.000000,43234.000000
12599.000000,17853.000000,8680.000000,43212.000000
12575.000000,17829.000000,8629.000000,43183.000000
12540.000000,17795.000000,8639.000000,43175.000000
12494.000000,17835.000000,8614.000000,43179.000000
12511.000000,17769.000000,8572.000000,43150.000000
12478.000000,17785.000000,8594.000000,43155.000000
12489.000000,17784.000000,8551.000000,43151.000000
12484.000000,17776.000000,8564.000000,43151.000000
12459.000000,17724.000000,8517.000000,43128.000000
12474.000000,17761.000000,8505.000000,43106.000000
12438.000000,17732.000000,8504.000000,43090.000000
12420.000000,17751.000000,8464.000000,43115.000000
12427.000000,17675.000000,8493.000000,43105.000000
12402.000000,17683.000000,8441.000000,43073.000000
12365.000000,17718.000000,8414.000000,43085.000000
12366.000000,17641.000000,8400.000000,43065.000000
12360.000000,17671.000000,8419.000000,43037.000000
12326.000000,17654.000000,8388.000000,43034.000000
12319.000000,17648.000000,8389.000000,43029.000000
12317.000000,17630.000000,8340.000000,43043.000000
12274.000000,17603.000000,8316.000000,43075.000000
12283.000000,17587.000000,8303.000000,42995.000000
12264.000000,17579.000000,8274.000000,42979.000000
12239.000000,17589.000000,8276.000000,42981.000000
12243.000000,17583.000000,8257.000000,43001.000000
12217.000000,17561.000000,8255.000000,42957.000000
12218.000000,17582.000000,8240.000000,42996.000000
12211.000000,17562.000000,8229.000000,42957.000000
12178.000000,17530.000000,8237.000000,42955.000000
12225.000000,17524.000000,8212.000000,42976.000000
12156.000000,17545.000000,8232.000000,42935.000000
12193.000000,17527.000000,8210.000000,42955.000000
12170.000000,17512.000000,8223.000000,42935.000000
12157.000000,17483.000000,8153.000000,42934.000000
12115.000000,17475.000000,8146.000000,42945.000000
12096.000000,17466.000000,8120.000000,42889.000000
12072.000000,17478.000000,8142.000000,42905.000000
12100.000000,17465.000000,8087.000000,42904.000000
12051.000000,17436.000000,8100.000000,42920.000000
12087.000000,17415.000000,8080.000000,42873.000000
12083.000000,17430.000000,8066.000000,42856.000000
12035.000000,17404.000000,8038.000000,42871.000000
12055.000000,17421.000000,8052.000000,42871.000000
11997.000000,17363.000000,8000.000000,42831.000000
11969.000000,17356.000000,8016.000000,42814.000000
11984.000000,17368.000000,8009.000000,42834.000000
11959.000000,17359.000000,7977.000000,42827.000000
11931.000000,17335.000000,7930.000000,42785.000000
11905.000000,17359.000000,7946.000000,42755.000000
11883.000000,17296.000000,7923.000000,42795.000000
11901.000000,17323.000000,7898.000000,42765.000000
11861.000000,17295.000000,7867.000000,42764.000000
11831.000000,17224.000000,7837.000000,42716.000000
11823.000000,17239.000000,7798.000000,42730.000000
11799.000000,17243.000000,7803.000000,42701.000000
11790.000000,17216.000000,7807.000000,42713.000000
11766.000000,17237.000000,7770.000000,42698.000000
11798.000000,17227.000000,7770.000000,42704.000000
11775.000000,17231.000000,7792.000000,42710.000000
11788.000000,17200.000000,7751.000000,42698.000000
11780.000000,17248.000000,7758.000000,42719.000000
11811.000000,17229.000000,7791.000000,42715.000000
11820.000000,17243.000000,7775.000000,42695.000000
11820.000000,17243.000000,7800.000000,42751.000000
11828.000000,17259.000000,7799.000000,42732.000000
11853.000000,17271.000000,7828.000000,42735.000000
11880.000000,17295.000000,7870.000000,42786.000000
11860.000000,17287.000000,7869.000000,42777.000000
11911.000000,17300.000000,7923.000000,42773.000000
11976.000000,17347.000000,7943.000000,42819.000000
11952.000000,17295.000000,7968.000000,42797.000000
12012.000000,17355.000000,8018.000000,42847.000000
12003.000000,17407.000000,8035.000000,42859.000000
12049.000000,17421.000000,8078.000000,42904.000000
12115.000000,17428.000000,8124.000000,42902.000000
12123.000000,17438.000000,8164.000000,42927.000000
12169.000000,17502.000000,8212.000000,42971.000000
12212.000000,17495.000000,8250.000000,42965.000000
12227.000000,17541.000000,8274.000000,42981.000000
12292.000000,17588.000000,8338.000000,43059.000000
12314.000000,17609.000000,8412.000000,43081.000000
12372.000000,17676.000000,8451.000000,43095.000000
12441.000000,17707.000000,8529.000000,43149.000000
12496.000000,17708.000000,8565.000000,43167.000000
12563.000000,17785.000000,8665.000000,43191.000000
12656.000000,17875.000000,8769.000000,43285.000000
12715.000000,17907.000000,8803.000000,43315.000000
12782.000000,17994.000000,8887.000000,43365.000000
12865.000000,18007.000000,8958.000000,43393.000000
12903.000000,18051.000000,9053.000000,43440.000000
12976.000000,18151.000000,9102.000000,43516.000000
13053.000000,18169.000000,9217.000000,43503.000000
13097.000000,18204.000000,9239.000000,43528.000000
13168.000000,18243.000000,9300.000000,43584.000000
13180.000000,18279.000000,9319.000000,43611.000000
13230.000000,18313.000000,9405.000000,43639.000000
13233.000000,18303.000000,9395.000000,43647.000000
13259.000000,18332.000000,9402.000000,43648.000000
13221.000000,18329.000000,9434.000000,43682.000000
13228.000000,18332.000000,9410.000000,43639.000000
13239.000000,18343.000000,9369.000000,43637.000000
13234.000000,18255.000000,9351.000000,43605.000000
13205.000000,18271.000000,9308.000000,43634.000000
13140.000000,18287.000000,9336.000000,43607.000000
13167.000000,18263.000000,9299.000000,43591.000000
13161.000000,18220.000000,9276.000000,43572.000000
13159.000000,18205.000000,9263.000000,43542.000000
13101.000000,18245.000000,9238.000000,43562.000000
13075.000000,18191.000000,9203.000000,43536.000000
13049.000000,18191.000000,9245.000000,43539.000000
13038.000000,18180.000000,9180.000000,43493.000000
13036.000000,18161.000000,9173.000000,43528.000000
13052.000000,18151.000000,9187.000000,43512.000000
12999.000000,18151.000000,9160.000000,43499.000000
12976.000000,18385.000000,9123.000000,43460.000000
12971.000000,18120.000000,9116.000000,43486.000000
12967.000000,18101.000000,9111.000000,43433.000000
12951.000000,18101.000000,9082.000000,43475.000000
12955.000000,18086.000000,9072.000000,43447.000000
12949.000000,18076.000000,9027.000000,43434.000000
12902.000000,18066.000000,9014.000000,43436.000000
12938.000000,18064.000000,9045.000000,43421.000000
12889.000000,18027.000000,9006.000000,43391.000000
12888.000000,18319.000000,8979.000000,43419.000000
12869.000000,17991.000000,8977.000000,43391.000000
12833.000000,18007.000000,8934.000000,43398.000000
12861.000000,18001.000000,8947.000000,43383.000000
12821.000000,17984.000000,8931.000000,43353.000000
12820.000000,17980.000000,8940.000000,43413.000000
13080.000000,18224.000000,8900.000000,43353.000000
12803.000000,17959.000000,8887.000000,43346.000000
12778.000000,17955.000000,8873.000000,43348.000000
12730.000000,17948.000000,8862.000000,43363.000000
12743.000000,18189.000000,8820.000000,43335.000000
12719.000000,17899.000000,8814.000000,43314.000000
12722.000000,17899.000000,8793.000000,43313.000000
12689.000000,17867.000000,8793.000000,43268.000000
12708.000000,17883.000000,8758.000000,43272.000000
12653.000000,17827.000000,8745.000000,43283.000000
12613.000000,17845.000000,8710.000000,43272.000000
12647.000000,17812.000000,8706.000000,43275.000000
12597.000000,17847.000000,8676.000000,43234.000000
12590.000000,17796.000000,8646.000000,43226.000000
12565.000000,17815.000000,8657.000000,43238.000000
12583.000000,17821.000000,8657.000000,43214.000000
12553.000000,17795.000000,8630.000000,43214.000000
12515.000000,17765.000000,8610.000000,43190.000000
12543.000000,17744.000000,8588.000000,43204.000000
12530.000000,17727.000000,8590.000000,43206.000000
12466.000000,17747.000000,8553.000000,43172.000000
12454.000000,17696.000000,8579.000000,43147.000000
12469.000000,17703.000000,8538.000000,43175.000000
12467.000000,17692.000000,8518.000000,43140.000000
12461.000000,17671.000000,8518.000000,43145.000000
12450.000000,17685.000000,8509.000000,43132.000000
12438.000000,17649.000000,8457.000000,43135.000000
12415.000000,17679.000000,8479.000000,43098.000000
12383.000000,17644.000000,8452.000000,43097.000000
12370.000000,17617.000000,8463.000000,43105.000000
12357.000000,17614.000000,8454.000000,43124.000000
12360.000000,17600.000000,8427.000000,43125.000000
12326.000000,17594.000000,8373.000000,43073.000000
12302.000000,17586.000000,8384.000000,43035.000000
12270.000000,17561.000000,8363.000000,43022.000000
12264.000000,17541.000000,8314.000000,43020.000000
12264.000000,17533.000000,8286.000000,43025.000000
12200.000000,17518.000000,8290.000000,42985.000000
12207.000000,17516.000000,8275.000000,42992.000000
12222.000000,17482.000000,8258.000000,42987.000000
12190.000000,17490.000000,8244.000000,43023.000000
12180.000000,17469.000000,8225.000000,42973.000000
12202.000000,17469.000000,8217.000000,42989.000000
12173.000000,17477.000000,8198.000000,42987.000000
12154.000000,17457.000000,8210.000000,42978.000000
12141.000000,17466.000000,8175.000000,42926.000000
12145.000000,17440.000000,8222.000000,42964.000000
12139.000000,17445.000000,8165.000000,42967.000000
12135.000000,17433.000000,8187.000000,42945.000000
12096.000000,17418.000000,8123.000000,42929.000000
12103.000000,17422.000000,8136.000000,42928.000000
12081.000000,17413.000000,8113.000000,42900.000000
12080.000000,17357.000000,8059.000000,42893.000000
12047.000000,17379.000000,8014.000000,42847.000000
12015.000000,17343.000000,8018.000000,42867.000000
12007.000000,17331.000000,8017.000000,42868.000000
11976.000000,17303.000000,7962.000000,42830.000000
11959.000000,17315.000000,7944.000000,42831.000000
11912.000000,17277.000000,7933.000000,42804.000000
12157.000000,17272.000000,7915.000000,42795.000000
11850.000000,17211.000000,7844.000000,42759.000000
11889.000000,17244.000000,7850.000000,42760.000000
11848.000000,17191.000000,7800.000000,42735.000000
11820.000000,17169.000000,7800.000000,42736.000000
11835.000000,17203.000000,7785.000000,42732.000000
11804.000000,17176.000000,7784.000000,42731.000000
11802.000000,17175.000000,7740.000000,42746.000000
11816.000000,17165.000000,7745.000000,42694.000000
11819.000000,17165.000000,7754.000000,42712.000000
11815.000000,17148.000000,7752.000000,42728.000000
11788.000000,17147.000000,7741.000000,42718.000000
11828.000000,17156.000000,7768.000000,42724.000000
11812.000000,17180.000000,7751.000000,42755.000000
11822.000000,17161.000000,7779.000000,42740.000000
11856.000000,17187.000000,7797.000000,42733.000000
11849.000000,17189.000000,7792.000000,42724.000000
11862.000000,17208.000000,7810.000000,42737.000000
11867.000000,17224.000000,7826.000000,42760.000000
11897.000000,17223.000000,7865.000000,42764.000000
11938.000000,17255.000000,7856.000000,42800.000000
11985.000000,17275.000000,7903.000000,42797.000000
11998.000000,17303.000000,7932.000000,42840.000000
12055.000000,17319.000000,7979.000000,42865.000000
12061.000000,17303.000000,8001.000000,42863.000000
12096.000000,17365.000000,8038.000000,42927.000000
12112.000000,17375.000000,8057.000000,42937.000000
12166.000000,17426.000000,8089.000000,42921.000000
12175.000000,17441.000000,8187.000000,42963.000000
12228.000000,17463.000000,8184.000000,42967.000000
12268.000000,17464.000000,8274.000000,43007.000000
12333.000000,17519.000000,8315.000000,43031.000000
12400.000000,17587.000000,8335.000000,43108.000000
12418.000000,17595.000000,8415.000000,43106.000000
12512.000000,17654.000000,8466.000000,43134.000000
12552.000000,17699.000000,8522.000000,43217.000000
12645.000000,17765.000000,8611.000000,43241.000000
12699.000000,17799.000000,8670.000000,43268.000000
12763.000000,17803.000000,8741.000000,43309.000000
12840.000000,17888.000000,8819.000000,43359.000000
12872.000000,18227.000000,8906.000000,43405.000000
12951.000000,18010.000000,9005.000000,43458.000000
13038.000000,18071.000000,9055.000000,43487.000000
13120.000000,18099.000000,9112.000000,43526.000000
13151.000000,18159.000000,9197.000000,43560.000000
13196.000000,18158.000000,9222.000000,43557.000000
13243.000000,18151.000000,9274.000000,43627.000000
13279.000000,18227.000000,9289.000000,43599.000000
13276.000000,18264.000000,9297.000000,43606.000000
13286.000000,18263.000000,9285.000000,43631.000000
13315.000000,18241.000000,9301.000000,43625.000000
13259.000000,18233.000000,9293.000000,43588.000000
13281.000000,18243.000000,9272.000000,43596.000000
13248.000000,18227.000000,9239.000000,43603.000000
13220.000000,18204.000000,9217.000000,43582.000000
13224.000000,18187.000000,9193.000000,43555.000000
13228.000000,18197.000000,9191.000000,43570.000000
13207.000000,18201.000000,9172.000000,43549.000000
13198.000000,18170.000000,9167.000000,43565.000000
13137.000000,18127.000000,9138.000000,43516.000000
13136.000000,18141.000000,9107.000000,43525.000000
13132.000000,18084.000000,9094.000000,43498.000000
13108.000000,18081.000000,9041.000000,43511.000000
13086.000000,18088.000000,9030.000000,43487.000000
13096.000000,18040.000000,9019.000000,43463.000000
13046.000000,18014.000000,8996.000000,43455.000000
13033.000000,18029.000000,9002.000000,43445.000000
13060.000000,18026.000000,8962.000000,43443.000000
13014.000000,18032.000000,8943.000000,43441.000000
13024.000000,18025.000000,8943.000000,43463.000000
12978.000000,17969.000000,8894.000000,43394.000000
12957.000000,17981.000000,8889.000000,43408.000000
12978.000000,17994.000000,8879.000000,43389.000000
12948.000000,17949.000000,8854.000000,43372.000000
12922.000000,17928.000000,8825.000000,43378.000000
12915.000000,17916.000000,8801.000000,43358.000000
12892.000000,17916.000000,8802.000000,43329.000000
12941.000000,17913.000000,8763.000000,43335.000000
12887.000000,17895.000000,8762.000000,43333.000000
12846.000000,17899.000000,8755.000000,43328.000000
12875.000000,17900.000000,8740.000000,43327.000000
12844.000000,17892.000000,8706.000000,43276.000000
12823.000000,17848.000000,8707.000000,43318.000000
12812.000000,17823.000000,8662.000000,43281.000000
12790.000000,17831.000000,8658.000000,43271.000000
12780.000000,17828.000000,8622.000000,43296.000000
12763.000000,17779.000000,8604.000000,43265.000000
12749.000000,17773.000000,8585.000000,43236.000000
12738.000000,17760.000000,8564.000000,43253.000000
12717.000000,17759.000000,8562.000000,43204.000000
12715.000000,17745.000000,8557.000000,43221.000000
12697.000000,17716.000000,8522.000000,43211.000000
12674.000000,17735.000000,8523.000000,43223.000000
12651.000000,17739.000000,8496.000000,43189.000000
12634.000000,17679.000000,8471.000000,43149.000000
12628.000000,17684.000000,8457.000000,43167.000000
12651.000000,17660.000000,8431.000000,43169.000000
12614.000000,17653.000000,8395.000000,43154.000000
12598.000000,17665.000000,8388.000000,43127.000000
12553.000000,17646.000000,8347.000000,43114.000000
12541.000000,17601.000000,8343.000000,43117.000000
12532.000000,17604.000000,8351.000000,43107.000000
12511.000000,17582.000000,8321.000000,43110.000000
12522.000000,17581.000000,8326.000000,43086.000000
12467.000000,17535.000000,8275.000000,43052.000000
12475.000000,17541.000000,8284.000000,43074.000000
12446.000000,17528.000000,8248.000000,43059.000000
12428.000000,17513.000000,8247.000000,43031.000000
12441.000000,17525.000000,8210.000000,43023.000000
12416.000000,17487.000000,8205.000000,43043.000000
12417.000000,17474.000000,8182.000000,43050.000000
12402.000000,17487.000000,8190.000000,43007.000000
12359.000000,17467.000000,8153.000000,43017.000000
12349.000000,17480.000000,8145.000000,42984.000000
12335.000000,17433.000000,8125.000000,42975.000000
12332.000000,17465.000000,8127.000000,42985.000000
12304.000000,17419.000000,8082.000000,42917.000000
12262.000000,17397.000000,8064.000000,42956.000000
12287.000000,17407.000000,8074.000000,42965.000000
12269.000000,17391.000000,8044.000000,42920.000000
12249.000000,17379.000000,8026.000000,42924.000000
12231.000000,17339.000000,8017.000000,42906.000000
12245.000000,17355.000000,7974.000000,42898.000000
12201.000000,17357.000000,7980.000000,42896.000000
12226.000000,17367.000000,7959.000000,42888.000000
12191.000000,17296.000000,7937.000000,42893.000000
12201.000000,17317.000000,7920.000000,42892.000000
12193.000000,17319.000000,7908.000000,42853.000000
12157.000000,17304.000000,7885.000000,42867.000000
12133.000000,17285.000000,7898.000000,42840.000000
12129.000000,17231.000000,7877.000000,42802.000000
12171.000000,17275.000000,7870.000000,42847.000000
12116.000000,17256.000000,7849.000000,42827.000000
12104.000000,17223.000000,7825.000000,42808.000000
12109.000000,17227.000000,7838.000000,42820.000000
12053.000000,17197.000000,7822.000000,42795.000000
12057.000000,17219.000000,7808.000000,42772.000000
12051.000000,17211.000000,7777.000000,42775.000000
12020.000000,17175.000000,7747.000000,42745.000000
12018.000000,17184.000000,7748.000000,42749.000000
11989.000000,17155.000000,7719.000000,42763.000000
11961.000000,17148.000000,7701.000000,42751.000000
11938.000000,17123.000000,7646.000000,42722.000000
11939.000000,17095.000000,7674.000000,42712.000000
11908.000000,17332.000000,7630.000000,42702.000000
11868.000000,17073.000000,7588.000000,42663.000000
11891.000000,17050.000000,7560.000000,42675.000000
11851.000000,17291.000000,7537.000000,42650.000000
11795.000000,17031.000000,7531.000000,42641.000000
11799.000000,17023.000000,7484.000000,42653.000000
11762.000000,16955.000000,7493.000000,42602.000000
11807.000000,16969.000000,7488.000000,42608.000000
11738.000000,16987.000000,7461.000000,42599.000000
11768.000000,16951.000000,7456.000000,42581.000000
11769.000000,16997.000000,7448.000000,42588.000000
11738.000000,16935.000000,7459.000000,42587.000000
11766.000000,16997.000000,7471.000000,42585.000000
11787.000000,16993.000000,7478.000000,42610.000000
11775.000000,17010.000000,7473.000000,42624.000000
11803.000000,16988.000000,7501.000000,42601.000000
11785.000000,17015.000000,7485.000000,42628.000000
11809.000000,16982.000000,7530.000000,42632.000000
11836.000000,17023.000000,7552.000000,42646.000000
12111.000000,17052.000000,7540.000000,42655.000000
11869.000000,17054.000000,7581.000000,42672.000000
11922.000000,17048.000000,7587.000000,42689.000000
11927.000000,17086.000000,7627.000000,42698.000000
11941.000000,17112.000000,7655.000000,42691.000000
11995.000000,17365.000000,7722.000000,42705.000000
12018.000000,17152.000000,7739.000000,42743.000000
12072.000000,17189.000000,7743.000000,42787.000000
12080.000000,17208.000000,7814.000000,42794.000000
12116.000000,17233.000000,7841.000000,42819.000000
12166.000000,17259.000000,7903.000000,42834.000000
12186.000000,17279.000000,7914.000000,42864.000000
12251.000000,17365.000000,7982.000000,42934.000000
12282.000000,17353.000000,8050.000000,42929.000000
12329.000000,17395.000000,8106.000000,42963.000000
12424.000000,17433.000000,8188.000000,43003.000000
12445.000000,17474.000000,8199.000000,43069.000000
12540.000000,17526.000000,8280.000000,43086.000000
12607.000000,17571.000000,8366.000000,43147.000000
12632.000000,17619.000000,8435.000000,43147.000000
12724.000000,17696.000000,8539.000000,43225.000000
12810.000000,17779.000000,8609.000000,43259.000000
12851.000000,17767.000000,8665.000000,43303.000000
12919.000000,17835.000000,8764.000000,43355.000000
12983.000000,17877.000000,8830.000000,43411.000000
13044.000000,17897.000000,8860.000000,43416.000000
13111.000000,18218.000000,8941.000000,43471.000000
13159.000000,18001.000000,8946.000000,43492.000000
13181.000000,18024.000000,8962.000000,43500.000000
13201.000000,18050.000000,9046.000000,43527.000000
13198.000000,18055.000000,9037.000000,43509.000000
13196.000000,18072.000000,9039.000000,43516.000000
13228.000000,18060.000000,9018.000000,43508.000000
13183.000000,18053.000000,9012.000000,43508.000000
13185.000000,18039.000000,8983.000000,43513.000000
13160.000000,18013.000000,8977.000000,43507.000000
13150.000000,18011.000000,8973.000000,43463.000000
13136.000000,17998.000000,8911.000000,43461.000000
13101.000000,17949.000000,8901.000000,43465.000000
13104.000000,17975.000000,8925.000000,43480.000000
13072.000000,17940.000000,8875.000000,43427.000000
13045.000000,17938.000000,8832.000000,43419.000000
13054.000000,17923.000000,8858.000000,43409.000000
13030.000000,17925.000000,8837.000000,43403.000000
13027.000000,17895.000000,8796.000000,43392.000000
12994.000000,17895.000000,8802.000000,43381.000000
12987.000000,17840.000000,8746.000000,43336.000000
12992.000000,17871.000000,8771.000000,43351.000000
12984.000000,17816.000000,8711.000000,43324.000000
12909.000000,17807.000000,8700.000000,43355.000000
12906.000000,17783.000000,8682.000000,43315.000000
12883.000000,17763.000000,8593.000000,43316.000000
12802.000000,17737.000000,8561.000000,43248.000000
12779.000000,17741.000000,8546.000000,43231.000000
12774.000000,17679.000000,8528.000000,43214.000000
12745.000000,17692.000000,8504.000000,43222.000000
12766.000000,17647.000000,8482.000000,43216.000000
12729.000000,17660.000000,8484.000000,43204.000000
12714.000000,17636.000000,8482.000000,43205.000000
12710.000000,17623.000000,8461.000000,43211.000000
12692.000000,17591.000000,8406.000000,43150.000000
12660.000000,17602.000000,8396.000000,43158.000000
12666.000000,17615.000000,8398.000000,43156.000000
12652.000000,17617.000000,8344.000000,43136.000000
12621.000000,17584.000000,8347.000000,43129.000000
12590.000000,17538.000000,8310.000000,43117.000000
12606.000000,17571.000000,8335.000000,43096.000000
12569.000000,17543.000000,8309.000000,43108.000000
12527.000000,17535.000000,8281.000000,43088.000000
12507.000000,17508.000000,8231.000000,43060.000000
12512.000000,17468.000000,8206.000000,43055.000000
12485.000000,17480.000000,8226.000000,43050.000000
12488.000000,17462.000000,8199.000000,43051.000000
12460.000000,17448.000000,8205.000000,43038.000000
12423.000000,17435.000000,8141.000000,43032.000000
12424.000000,17393.000000,8158.000000,43009.000000
12384.000000,17376.000000,8108.000000,43000.000000
12369.000000,17387.000000,8109.000000,42981.000000
12361.000000,17351.000000,8092.000000,42945.000000
12333.000000,17371.000000,8051.000000,42984.000000
12313.000000,17341.000000,8075.000000,42954.000000
12330.000000,17328.000000,8043.000000,42939.000000
12312.000000,17348.000000,8026.000000,42951.000000
12296.000000,17296.000000,8012.000000,42926.000000
12257.000000,17343.000000,8022.000000,42992.000000
12272.000000,17315.000000,7984.000000,42920.000000
12222.000000,17313.000000,7990.000000,42915.000000
12263.000000,17307.000000,7957.000000,42920.000000
12253.000000,17279.000000,7960.000000,42885.000000
12287.000000,17271.000000,7940.000000,42923.000000
12234.000000,17289.000000,7912.000000,42918.000000
12192.000000,17215.000000,7881.000000,42896.000000
12188.000000,17251.000000,7945.000000,42864.000000
12173.000000,17217.000000,7871.000000,42857.000000
12202.000000,17251.000000,7869.000000,42868.000000
12174.000000,17220.000000,7863.000000,42858.000000
12153.000000,17219.000000,7852.000000,42852.000000
12152.000000,17176.000000,7839.000000,42861.000000
12147.000000,17183.000000,7814.000000,42857.000000
12115.000000,17192.000000,7840.000000,42843.000000
12119.000000,17165.000000,7821.000000,42828.000000
12127.000000,17172.000000,7842.000000,42819.000000
12079.000000,17177.000000,7764.000000,42815.000000
12087.000000,17188.000000,7779.000000,42847.000000
12074.000000,17151.000000,7787.000000,42801.000000
12082.000000,17138.000000,7778.000000,42811.000000
12076.000000,17163.000000,7814.000000,42801.000000
12065.000000,17135.000000,7760.000000,42794.000000
12045.000000,17146.000000,7760.000000,42825.000000
12055.000000,17082.000000,7714.000000,42787.000000
11993.000000,17113.000000,7705.000000,42771.000000
12043.000000,17069.000000,7709.000000,42769.000000
11994.000000,17091.000000,7685.000000,42760.000000
11988.000000,17071.000000,7661.000000,42739.000000
11962.000000,17090.000000,7652.000000,42773.000000
11954.000000,17041.000000,7624.000000,42724.000000
11940.000000,17033.000000,7599.000000,42712.000000
11915.000000,17308.000000,7617.000000,42721.000000
11902.000000,17264.000000,7593.000000,42673.000000
11890.000000,17003.000000,7583.000000,42703.000000
11901.000000,16985.000000,7553.000000,42660.000000
11858.000000,17260.000000,7533.000000,42677.000000
11848.000000,16938.000000,7493.000000,42641.000000
11792.000000,16916.000000,7464.000000,42611.000000
11810.000000,16918.000000,7460.000000,42644.000000
11752.000000,16901.000000,7472.000000,42611.000000
11736.000000,16910.000000,7403.000000,42568.000000
11704.000000,16917.000000,7417.000000,42569.000000
11719.000000,16897.000000,7394.000000,42574.000000
11706.000000,16857.000000,7356.000000,42577.000000
11711.000000,16860.000000,7363.000000,42561.000000
11685.000000,16851.000000,7351.000000,42577.000000
11692.000000,16855.000000,7368.000000,42587.000000
11716.000000,16875.000000,7378.000000,42599.000000
11707.000000,16856.000000,7358.000000,42581.000000
11735.000000,16888.000000,7366.000000,42570.000000
11723.000000,16891.000000,7401.000000,42583.000000
11746.000000,16871.000000,7396.000000,42597.000000
11757.000000,16896.000000,7413.000000,42624.000000
11788.000000,16917.000000,7444.000000,42605.000000
11801.000000,16909.000000,7443.000000,42663.000000
11812.000000,16930.000000,7495.000000,42655.000000
11863.000000,16943.000000,7492.000000,42665.000000
11851.000000,16965.000000,7498.000000,42677.000000
11912.000000,16992.000000,7560.000000,42722.000000
11933.000000,17021.000000,7596.000000,42739.000000
11973.000000,17029.000000,7601.000000,42736.000000
12003.000000,17086.000000,7659.000000,42759.000000
12273.000000,17275.000000,7973.000000,42947.000000
12352.000000,17335.000000,8041.000000,42969.000000
12392.000000,17343.000000,8108.000000,43016.000000
12483.000000,17387.000000,8157.000000,43070.000000
12504.000000,17450.000000,8245.000000,43105.000000
12590.000000,17495.000000,8291.000000,43165.000000
12655.000000,17536.000000,8377.000000,43192.000000
12753.000000,17626.000000,8506.000000,43253.000000
12790.000000,17681.000000,8545.000000,43268.000000
12872.000000,17735.000000,8642.000000,43357.000000
12961.000000,17739.000000,8701.000000,43364.000000
13013.000000,17828.000000,8784.000000,43421.000000
13080.000000,17904.000000,8852.000000,43480.000000
13126.000000,17920.000000,8929.000000,43516.000000
13169.000000,18192.000000,8947.000000,43521.000000
13209.000000,17977.000000,9013.000000,43550.000000
13233.000000,17999.000000,9026.000000,43585.000000
13254.000000,18027.000000,9045.000000,43569.000000
13270.000000,18018.000000,9035.000000,43555.000000
13274.000000,18016.000000,9025.000000,43575.000000
13240.000000,18005.000000,9024.000000,43529.000000
13245.000000,18012.000000,9018.000000,43556.000000
13227.000000,17988.000000,9009.000000,43532.000000
13225.000000,17973.000000,9004.000000,43543.000000
13233.000000,17965.000000,8951.000000,43505.000000
13167.000000,17953.000000,8943.000000,43516.000000
13171.000000,17963.000000,8958.000000,43513.000000
13160.000000,17931.000000,8924.000000,43471.000000
13131.000000,17913.000000,8906.000000,43493.000000
13131.000000,17888.000000,8884.000000,43463.000000
13105.000000,17895.000000,8878.000000,43469.000000
13087.000000,17865.000000,8836.000000,43468.000000
13073.000000,17856.000000,8831.000000,43440.000000
13058.000000,17851.000000,8809.000000,43434.000000
13073.000000,17843.000000,8807.000000,43428.000000
13017.000000,17829.000000,8798.000000,43413.000000
12991.000000,17817.000000,8753.000000,43400.000000
12957.000000,17813.000000,8724.000000,43419.000000
12980.000000,17805.000000,8719.000000,43412.000000
12978.000000,17797.000000,8688.000000,43376.000000
12960.000000,17776.000000,8709.000000,43385.000000
12945.000000,17732.000000,8647.000000,43372.000000
12931.000000,17743.000000,8675.000000,43376.000000
12911.000000,17756.000000,8631.000000,43344.000000
12905.000000,17744.000000,8606.000000,43344.000000
12907.000000,17739.000000,8625.000000,43331.000000
12880.000000,17699.000000,8593.000000,43292.000000
12851.000000,17673.000000,8563.000000,43304.000000
12861.000000,17663.000000,8568.000000,43287.000000
12817.000000,17656.000000,8546.000000,43275.000000
12844.000000,17673.000000,8537.000000,43279.000000
12807.000000,17615.000000,8486.000000,43268.000000
12778.000000,17624.000000,8484.000000,43258.000000
12788.000000,17612.000000,8468.000000,43263.000000
12758.000000,17629.000000,8425.000000,43224.000000
12734.000000,17591.000000,8467.000000,43208.000000
12729.000000,17560.000000,8425.000000,43191.000000
12696.000000,17557.000000,8407.000000,43191.000000
12687.000000,17544.000000,8389.000000,43188.000000
12673.000000,17511.000000,8351.000000,43182.000000
12643.000000,17512.000000,8375.000000,43175.000000
12636.000000,17513.000000,8319.000000,43151.000000
12625.000000,17500.000000,8301.000000,43150.000000
12634.000000,17485.000000,8289.000000,43127.000000
12582.000000,17441.000000,8261.000000,43111.000000
12573.000000,17453.000000,8234.000000,43117.000000
12573.000000,17436.000000,8232.000000,43092.000000
12511.000000,17436.000000,8240.000000,43112.000000
12546.000000,17423.000000,8212.000000,43101.000000
12511.000000,17392.000000,8197.000000,43078.000000
12539.000000,17383.000000,8197.000000,43083.000000
12454.000000,17415.000000,8151.000000,43065.000000
12455.000000,17355.000000,8122.000000,43055.000000
12426.000000,17329.000000,8126.000000,43042.000000
12416.000000,17340.000000,8052.000000,43028.000000
12373.000000,17359.000000,8073.000000,43021.000000
12379.000000,17291.000000,8058.000000,43017.000000
12354.000000,17284.000000,8031.000000,43013.000000
12347.000000,17287.000000,8030.000000,42981.000000
12358.000000,17287.000000,8004.000000,42976.000000
12299.000000,17241.000000,7976.000000,42977.000000
12290.000000,17235.000000,7983.000000,42935.000000
12292.000000,17251.000000,7959.000000,42949.000000
12259.000000,17228.000000,7940.000000,42947.000000
12239.000000,17252.000000,7917.000000,42975.000000
12278.000000,17204.000000,7891.000000,42927.000000
12266.000000,17237.000000,7874.000000,42924.000000
12218.000000,17160.000000,7874.000000,42909.000000
12223.000000,17195.000000,7875.000000,42893.000000
12199.000000,17148.000000,7832.000000,42868.000000
12186.000000,17161.000000,7851.000000,42887.000000
12159.000000,17144.000000,7824.000000,42882.000000
12149.000000,17130.000000,7793.000000,42889.000000
12152.000000,17112.000000,7751.000000,42860.000000
12131.000000,17115.000000,7773.000000,42853.000000
12113.000000,17116.000000,7738.000000,42829.000000
12111.000000,17131.000000,7764.000000,42829.000000
12095.000000,17094.000000,7743.000000,42829.000000
12087.000000,17042.000000,7705.000000,42835.000000
12085.000000,17299.000000,7726.000000,42851.000000
12072.000000,17046.000000,7677.000000,42818.000000
12052.000000,17057.000000,7694.000000,42787.000000
12035.000000,17032.000000,7652.000000,42799.000000
12045.000000,17007.000000,7627.000000,42768.000000
12045.000000,17040.000000,7656.000000,42812.000000
11999.000000,16995.000000,7634.000000,42757.000000
11931.000000,17200.000000,7586.000000,42723.000000
11977.000000,16956.000000,7568.000000,42707.000000
11920.000000,16950.000000,7535.000000,42737.000000
11916.000000,16939.000000,7526.000000,42687.000000
11889.000000,16925.000000,7478.000000,42710.000000
11851.000000,16868.000000,7464.000000,42670.000000
11841.000000,16873.000000,7448.000000,42654.000000
11830.000000,16881.000000,7448.000000,42658.000000
11760.000000,16841.000000,7396.000000,42614.000000
11790.000000,16827.000000,7411.000000,42653.000000
11741.000000,16819.000000,7362.000000,42611.000000
11696.000000,16801.000000,7348.000000,42610.000000
11754.000000,16796.000000,7328.000000,42603.000000
11744.000000,16775.000000,7321.000000,42568.000000
11728.000000,16793.000000,7323.000000,42610.000000
11710.000000,16781.000000,7317.000000,42561.000000
11725.000000,16769.000000,7320.000000,42588.000000
11701.000000,16787.000000,7318.000000,42567.000000
11718.000000,16769.000000,7318.000000,42579.000000
11723.000000,16808.000000,7340.000000,42592.000000
11695.000000,16765.000000,7319.000000,42601.000000
11768.000000,16787.000000,7346.000000,42606.000000
11752.000000,16805.000000,7377.000000,42616.000000
11780.000000,16808.000000,7362.000000,42641.000000
11795.000000,16851.000000,7382.000000,42666.000000
11824.000000,16839.000000,7413.000000,42657.000000
11802.000000,16863.000000,7450.000000,42677.000000
11875.000000,16891.000000,7487.000000,42670.000000
11883.000000,16911.000000,7492.000000,42694.000000
11883.000000,17207.000000,7535.000000,42723.000000
11930.000000,16942.000000,7538.000000,42739.000000
11971.000000,16941.000000,7597.000000,42758.000000
12014.000000,17003.000000,7630.000000,42794.000000
12021.000000,17024.000000,7687.000000,42807.000000
12072.000000,17035.000000,7716.000000,42846.000000
12136.000000,17094.000000,7776.000000,42864.000000
12182.000000,17131.000000,7814.000000,42909.000000
12210.000000,17405.000000,7886.000000,42913.000000
12231.000000,17201.000000,7943.000000,42952.000000
12325.000000,17227.000000,7981.000000,43003.000000
12368.000000,17255.000000,8092.000000,43041.000000
12447.000000,17311.000000,8114.000000,43069.000000
12533.000000,17388.000000,8186.000000,43085.000000
12579.000000,17431.000000,8280.000000,43173.000000
12692.000000,17481.000000,8367.000000,43183.000000
12732.000000,17546.000000,8453.000000,43265.000000
12846.000000,17596.000000,8517.000000,43295.000000
12896.000000,17644.000000,8617.000000,43370.000000
12984.000000,17700.000000,8676.000000,43372.000000
13014.000000,17761.000000,8752.000000,43414.000000
13069.000000,17819.000000,8839.000000,43479.000000
13159.000000,17868.000000,8888.000000,43514.000000
13180.000000,17875.000000,8949.000000,43550.000000
13236.000000,17929.000000,8989.000000,43577.000000
13235.000000,17928.000000,8983.000000,43584.000000
13281.000000,17914.000000,9010.000000,43598.000000
13266.000000,17957.000000,9040.000000,43578.000000
13261.000000,18205.000000,8994.000000,43591.000000
13270.000000,18192.000000,8996.000000,43563.000000
13281.000000,18197.000000,8983.000000,43571.000000
13244.000000,17919.000000,8970.000000,43550.000000
13251.000000,17903.000000,8979.000000,43535.000000
13227.000000,17901.000000,8946.000000,43566.000000
13206.000000,17903.000000,8945.000000,43575.000000
13215.000000,17883.000000,8914.000000,43519.000000
13199.000000,17839.000000,8891.000000,43519.000000
13170.000000,17871.000000,8914.000000,43519.000000
13141.000000,17840.000000,8866.000000,43497.000000
13104.000000,17827.000000,8842.000000,43496.000000
13116.000000,17837.000000,8822.000000,43469.000000
13053.000000,17777.000000,8783.000000,43431.000000
13059.000000,17759.000000,8783.000000,43456.000000
13040.000000,17759.000000,8756.000000,43431.000000
13014.000000,17795.000000,8760.000000,43420.000000
12992.000000,17716.000000,8719.000000,43401.000000
13016.000000,17725.000000,8719.000000,43403.000000
12953.000000,17699.000000,8688.000000,43389.000000
12967.000000,17692.000000,8647.000000,43393.000000
12978.000000,17703.000000,8669.000000,43391.000000
13187.000000,17661.000000,8631.000000,43330.000000
12948.000000,17689.000000,8629.000000,43348.000000
12920.000000,17663.000000,8616.000000,43385.000000
12917.000000,17667.000000,8618.000000,43375.000000
12893.000000,17658.000000,8594.000000,43335.000000
12891.000000,17645.000000,8573.000000,43320.000000
12868.000000,17620.000000,8541.000000,43344.000000
12848.000000,17621.000000,8542.000000,43338.000000
12833.000000,17576.000000,8519.000000,43308.000000
12837.000000,17588.000000,8498.000000,43295.000000
12788.000000,17562.000000,8465.000000,43284.000000
12786.000000,17545.000000,8473.000000,43267.000000
12779.000000,17514.000000,8430.000000,43250.000000
12751.000000,17533.000000,8410.000000,43276.000000
12745.000000,17530.000000,8403.000000,43250.000000
12695.000000,17456.000000,8365.000000,43216.000000
12687.000000,17495.000000,8367.000000,43224.000000
12675.000000,17458.000000,8340.000000,43172.000000
12644.000000,17428.000000,8314.000000,43167.000000
12655.000000,17452.000000,8332.000000,43205.000000
12659.000000,17429.000000,8294.000000,43156.000000
12603.000000,17430.000000,8248.000000,43174.000000
12627.000000,17388.000000,8235.000000,43139.000000
12577.000000,17407.000000,8227.000000,43147.000000
12552.000000,17414.000000,8214.000000,43129.000000
12604.000000,17379.000000,8193.000000,43124.000000
12571.000000,17388.000000,8181.000000,43129.000000
12509.000000,17359.000000,8141.000000,43103.000000
12536.000000,17344.000000,8112.000000,43083.000000
12492.000000,17315.000000,8119.000000,43094.000000
12507.000000,17290.000000,8122.000000,43088.000000
12470.000000,17269.000000,8060.000000,43030.000000
12397.000000,17284.000000,8025.000000,43038.000000
12396.000000,17251.000000,8027.000000,43038.000000
12393.000000,17215.000000,7980.000000,43003.000000
12386.000000,17205.000000,7983.000000,43009.000000
12351.000000,17215.000000,7961.000000,43009.000000
12357.000000,17201.000000,7962.000000,43007.000000
12334.000000,17177.000000,7971.000000,42998.000000
12332.000000,17165.000000,7919.000000,42981.000000
12304.000000,17183.000000,7896.000000,42978.000000
12327.000000,17209.000000,7884.000000,42961.000000
12268.000000,17175.000000,7910.000000,42971.000000
12303.000000,17155.000000,7863.000000,42963.000000
12287.000000,17135.000000,7855.000000,42949.000000
12288.000000,17151.000000,7864.000000,42941.000000
12269.000000,17089.000000,7832.000000,42940.000000
12235.000000,17115.000000,7806.000000,42944.000000
12241.000000,17096.000000,7816.000000,42892.000000
12187.000000,17068.000000,7759.000000,42895.000000
12174.000000,17039.000000,7776.000000,42895.000000
12202.000000,17046.000000,7734.000000,42865.000000
12166.000000,17039.000000,7745.000000,42875.000000
12136.000000,17017.000000,7714.000000,42836.000000
12114.000000,17013.000000,7705.000000,42862.000000
12091.000000,16990.000000,7661.000000,42832.000000
12087.000000,16997.000000,7675.000000,42827.000000
12098.000000,16970.000000,7659.000000,42826.000000
12100.000000,16998.000000,7618.000000,42799.000000
12093.000000,16971.000000,7627.000000,42816.000000
12071.000000,16948.000000,7584.000000,42796.000000
12079.000000,16926.000000,7606.000000,42777.000000
12065.000000,16929.000000,7590.000000,42791.000000
12010.000000,16927.000000,7558.000000,42770.000000
12033.000000,16904.000000,7551.000000,42761.000000
11993.000000,16903.000000,7498.000000,42753.000000
11957.000000,16884.000000,7489.000000,42726.000000
11930.000000,16864.000000,7425.000000,42679.000000
11925.000000,16824.000000,7441.000000,42722.000000
11893.000000,16831.000000,7418.000000,42669.000000
11865.000000,16823.000000,7379.000000,42659.000000
11828.000000,16800.000000,7341.000000,42669.000000
11840.000000,16753.000000,7329.000000,42616.000000
11807.000000,16744.000000,7303.000000,42600.000000
11774.000000,16757.000000,7292.000000,42617.000000
11769.000000,16723.000000,7262.000000,42587.000000
11739.000000,16696.000000,7255.000000,42585.000000
11757.000000,16683.000000,7245.000000,42571.000000
11747.000000,16711.000000,7221.000000,42583.000000
11742.000000,16715.000000,7247.000000,42585.000000
11728.000000,16680.000000,7223.000000,42580.000000
11721.000000,16683.000000,7233.000000,42578.000000
11747.000000,16707.000000,7234.000000,42561.000000
11765.000000,16683.000000,7252.000000,42586.000000
11791.000000,16729.000000,7239.000000,42595.000000
11747.000000,16735.000000,7255.000000,42601.000000
11788.000000,16728.000000,7268.000000,42604.000000
11807.000000,16771.000000,7290.000000,42624.000000
11821.000000,16755.000000,7288.000000,42663.000000
11831.000000,16771.000000,7347.000000,42646.000000
11899.000000,16772.000000,7360.000000,42628.000000
11887.000000,16799.000000,7414.000000,42685.000000
11919.000000,16808.000000,7436.000000,42710.000000
11929.000000,16857.000000,7467.000000,42735.000000
11987.000000,16869.000000,7476.000000,42739.000000
12023.000000,16917.000000,7532.000000,42756.000000
12073.000000,16895.000000,7554.000000,42804.000000
12075.000000,16923.000000,7618.000000,42799.000000
12099.000000,16950.000000,7623.000000,42819.000000
12184.000000,17007.000000,7692.000000,42863.000000
12183.000000,17012.000000,7762.000000,42869.000000
12248.000000,17072.000000,7784.000000,42924.000000
12307.000000,17122.000000,7818.000000,42951.000000
12360.000000,17117.000000,7908.000000,43000.000000
12440.000000,17191.000000,7981.000000,43026.000000
12511.000000,17239.000000,8053.000000,43078.000000
12616.000000,17343.000000,8151.000000,43132.000000
12646.000000,17351.000000,8229.000000,43147.000000
12722.000000,17391.000000,8294.000000,43215.000000
12817.000000,17483.000000,8370.000000,43245.000000
12850.000000,17533.000000,8438.000000,43289.000000
12954.000000,17560.000000,8556.000000,43365.000000
13014.000000,17617.000000,8577.000000,43352.000000
13036.000000,17648.000000,8626.000000,43424.000000
13081.000000,17719.000000,8699.000000,43446.000000
13110.000000,17667.000000,8715.000000,43433.000000
13152.000000,17737.000000,8760.000000,43477.000000
13159.000000,17736.000000,8767.000000,43496.000000
13119.000000,17747.000000,8755.000000,43465.000000
13148.000000,17743.000000,8753.000000,43471.000000
13157.000000,17757.000000,8744.000000,43453.000000
13105.000000,17745.000000,8734.000000,43474.000000
13129.000000,17717.000000,8736.000000,43475.000000
13097.000000,17724.000000,8698.000000,43443.000000
13075.000000,17649.000000,8677.000000,43436.000000
13090.000000,17667.000000,8676.000000,43415.000000
13061.000000,17679.000000,8669.000000,43437.000000
13055.000000,17660.000000,8659.000000,43411.000000
13018.000000,17651.000000,8640.000000,43394.000000
13029.000000,17653.000000,8632.000000,43444.000000
13026.000000,17620.000000,8603.000000,43413.000000
12994.000000,17607.000000,8562.000000,43373.000000
12972.000000,17613.000000,8567.000000,43374.000000
12951.000000,17582.000000,8552.000000,43320.000000
12955.000000,17581.000000,8544.000000,43328.000000
12930.000000,17562.000000,8526.000000,43357.000000
12900.000000,17560.000000,8486.000000,43328.000000
12901.000000,17526.000000,8457.000000,43307.000000
12883.000000,17543.000000,8479.000000,43333.000000
12894.000000,17501.000000,8452.000000,43296.000000
12845.000000,17537.000000,8400.000000,43273.000000
12853.000000,17467.000000,8437.000000,43297.000000
12825.000000,17468.000000,8385.000000,43268.000000
12848.000000,17493.000000,8390.000000,43256.000000
12806.000000,17457.000000,8399.000000,43268.000000
12776.000000,17444.000000,8379.000000,43240.000000
12770.000000,17416.000000,8332.000000,43220.000000
12751.000000,17420.000000,8316.000000,43243.000000
12765.000000,17395.000000,8306.000000,43237.000000
12729.000000,17392.000000,8294.000000,43226.000000
12705.000000,17367.000000,8261.000000,43185.000000
12718.000000,17384.000000,8253.000000,43188.000000
12674.000000,17355.000000,8250.000000,43198.000000
12677.000000,17357.000000,8221.000000,43179.000000
12644.000000,17355.000000,8210.000000,43157.000000
12645.000000,17355.000000,8199.000000,43141.000000
12607.000000,17336.000000,8167.000000,43170.000000
12581.000000,17285.000000,8152.000000,43128.000000
12548.000000,17283.000000,8138.000000,43100.000000
12571.000000,17272.000000,8126.000000,43121.000000
12549.000000,17268.000000,8086.000000,43115.000000
12536.000000,17264.000000,8085.000000,43089.000000
12496.000000,17231.000000,8080.000000,43085.000000
12467.000000,17181.000000,8007.000000,43079.000000
12502.000000,17233.000000,8042.000000,43090.000000
12482.000000,17204.000000,8033.000000,43040.000000
12432.000000,17195.000000,7989.000000,43068.000000
12448.000000,17167.000000,7976.000000,43055.000000
12414.000000,17148.000000,7939.000000,43012.000000
12388.000000,17155.000000,7952.000000,43020.000000
12402.000000,17163.000000,7957.000000,43007.000000
12391.000000,17132.000000,7893.000000,42998.000000
12335.000000,17115.000000,7861.000000,42999.000000
12351.000000,17121.000000,7875.000000,42999.000000
12275.000000,17080.000000,7846.000000,42976.000000
12307.000000,17061.000000,7810.000000,42951.000000
12275.000000,17055.000000,7818.000000,42932.000000
12249.000000,17038.000000,7804.000000,42958.000000
12248.000000,17003.000000,7780.000000,42917.000000
12216.000000,17014.000000,7748.000000,42889.000000
12216.000000,17025.000000,7736.000000,42916.000000
12216.000000,17012.000000,7738.000000,42893.000000
12198.000000,17251.000000,7716.000000,42880.000000
12175.000000,17012.000000,7700.000000,42889.000000
12156.000000,16960.000000,7666.000000,42855.000000
12148.000000,17196.000000,7682.000000,42865.000000
12157.000000,16932.000000,7641.000000,42827.000000
12132.000000,16968.000000,7628.000000,42856.000000
12115.000000,16934.000000,7649.000000,42827.000000
12109.000000,16895.000000,7577.000000,42815.000000
12083.000000,16913.000000,7573.000000,42839.000000
12065.000000,16891.000000,7569.000000,42819.000000
12074.000000,16889.000000,7546.000000,42811.000000
12078.000000,16860.000000,7564.000000,42783.000000
12025.000000,16824.000000,7487.000000,42755.000000
12003.000000,16851.000000,7478.000000,42763.000000
11958.000000,16821.000000,7488.000000,42747.000000
11977.000000,16805.000000,7457.000000,42730.000000
11975.000000,16793.000000,7436.000000,42715.000000
11925.000000,16787.000000,7439.000000,42721.000000
11916.000000,16767.000000,7383.000000,42707.000000
11912.000000,16748.000000,7380.000000,42696.000000
11890.000000,16751.000000,7361.000000,42662.000000
11908.000000,16735.000000,7326.000000,42655.000000
11895.000000,16755.000000,7345.000000,42686.000000
11835.000000,16683.000000,7315.000000,42645.000000
11853.000000,16697.000000,7307.000000,42649.000000
11829.000000,16645.000000,7259.000000,42612.000000
12067.000000,16623.000000,7210.000000,42579.000000
11789.000000,16616.000000,7190.000000,42618.000000
11710.000000,16617.000000,7162.000000,42583.000000
11721.000000,16570.000000,7127.000000,42564.000000
11677.000000,16540.000000,7083.000000,42525.000000
11652.000000,16551.000000,7075.000000,42525.000000
11603.000000,16515.000000,7029.000000,42504.000000
11623.000000,16486.000000,7052.000000,42535.000000
11576.000000,16509.000000,7020.000000,42491.000000
11570.000000,16454.000000,7021.000000,42487.000000
11577.000000,16489.000000,7012.000000,42498.000000
11585.000000,16446.000000,6987.000000,42476.000000
11605.000000,16475.000000,6995.000000,42497.000000
11615.000000,16495.000000,7043.000000,42509.000000
11620.000000,16505.000000,7054.000000,42516.000000
11651.000000,16505.000000,7036.000000,42543.000000
11680.000000,16529.000000,7065.000000,42544.000000
11673.000000,16563.000000,7092.000000,42540.000000
11742.000000,16592.000000,7119.000000,42555.000000
11764.000000,16604.000000,7112.000000,42579.000000
11773.000000,16614.000000,7155.000000,42570.000000
11787.000000,16639.000000,7168.000000,42618.000000
11789.000000,16629.000000,7194.000000,42600.000000
11833.000000,16645.000000,7238.000000,42632.000000
11862.000000,16657.000000,7255.000000,42619.000000
11870.000000,16657.000000,7282.000000,42647.000000
11896.000000,16703.000000,7309.000000,42661.000000
11962.000000,16756.000000,7335.000000,42697.000000
11989.000000,16775.000000,7370.000000,42711.000000
12053.000000,16784.000000,7436.000000,42756.000000
12068.000000,16855.000000,7468.000000,42786.000000
12128.000000,16852.000000,7537.000000,42833.000000
12207.000000,16924.000000,7597.000000,42815.000000
12259.000000,16955.000000,7648.000000,42889.000000
12322.000000,17255.000000,7714.000000,42921.000000
12390.000000,17025.000000,7802.000000,42950.000000
12447.000000,17093.000000,7838.000000,42963.000000
12532.000000,17165.000000,7935.000000,43073.000000
12611.000000,17187.000000,7995.000000,43099.000000
12637.000000,17207.000000,8097.000000,43125.000000
12725.000000,17287.000000,8154.000000,43161.000000
12775.000000,17360.000000,8233.000000,43220.000000
12869.000000,17431.000000,8329.000000,43267.000000
12899.000000,17443.000000,8347.000000,43280.000000
12937.000000,17479.000000,8392.000000,43308.000000
13028.000000,17521.000000,8490.000000,43335.000000
13080.000000,17573.000000,8537.000000,43405.000000
13059.000000,17584.000000,8579.000000,43407.000000
13107.000000,17597.000000,8591.000000,43437.000000
13113.000000,17623.000000,8590.000000,43410.000000
13142.000000,17618.000000,8585.000000,43395.000000
13150.000000,17617.000000,8599.000000,43436.000000
13117.000000,17590.000000,8578.000000,43393.000000
13099.000000,17561.000000,8550.000000,43407.000000
13093.000000,17603.000000,8556.000000,43453.000000
13085.000000,17570.000000,8532.000000,43424.000000
13064.000000,17564.000000,8541.000000,43388.000000
13070.000000,17536.000000,8512.000000,43385.000000
13050.000000,17507.000000,8508.000000,43363.000000
13301.000000,17511.000000,8467.000000,43358.000000
13037.000000,17494.000000,8473.000000,43383.000000
12979.000000,17497.000000,8421.000000,43346.000000
12989.000000,17511.000000,8431.000000,43331.000000
12985.000000,17439.000000,8396.000000,43308.000000
12951.000000,17477.000000,8414.000000,43315.000000
12938.000000,17442.000000,8367.000000,43287.000000
12905.000000,17424.000000,8364.000000,43299.000000
12947.000000,17452.000000,8360.000000,43311.000000
12918.000000,17435.000000,8334.000000,43283.000000
12900.000000,17430.000000,8321.000000,43287.000000
12874.000000,17428.000000,8296.000000,43277.000000
12823.000000,17400.000000,8258.000000,43246.000000
12864.000000,17373.000000,8278.000000,43245.000000
12839.000000,17375.000000,8273.000000,43228.000000
12806.000000,17357.000000,8225.000000,43229.000000
12826.000000,17363.000000,8207.000000,43211.000000
12800.000000,17323.000000,8230.000000,43206.000000
12774.000000,17327.000000,8193.000000,43214.000000
12762.000000,17331.000000,8182.000000,43218.000000
12720.000000,17306.000000,8160.000000,43200.000000
12742.000000,17311.000000,8148.000000,43187.000000
12728.000000,17251.000000,8151.000000,43196.000000
12715.000000,17273.000000,8119.000000,43130.000000
12708.000000,17239.000000,8114.000000,43169.000000
12723.000000,17251.000000,8092.000000,43164.000000
12683.000000,17233.000000,8092.000000,43161.000000
12634.000000,17199.000000,8045.000000,43109.000000
12652.000000,17199.000000,8015.000000,43107.000000
12611.000000,17171.000000,8001.000000,43101.000000
12584.000000,17151.000000,7972.000000,43093.000000
12580.000000,17180.000000,7993.000000,43098.000000
12534.000000,17159.000000,7946.000000,43057.000000
12532.000000,17111.000000,7925.000000,43037.000000
12538.000000,17125.000000,7936.000000,43052.000000
12508.000000,17096.000000,7873.000000,43042.000000
12482.000000,17118.000000,7886.000000,43033.000000
12497.000000,17097.000000,7871.000000,43028.000000
12477.000000,17070.000000,7849.000000,42968.000000
12456.000000,17065.000000,7839.000000,43015.000000
12429.000000,17024.000000,7794.000000,42989.000000
12391.000000,17044.000000,7797.000000,42966.000000
12430.000000,17031.000000,7797.000000,42965.000000
12377.000000,17293.000000,7771.000000,42968.000000
12349.000000,17005.000000,7777.000000,42955.000000
12353.000000,16987.000000,7742.000000,42959.000000
12353.000000,16960.000000,7692.000000,42927.000000
12338.000000,16971.000000,7708.000000,42960.000000
12302.000000,16946.000000,7691.000000,42931.000000
12304.000000,16934.000000,7667.000000,42922.000000
12256.000000,16918.000000,7686.000000,42877.000000
12243.000000,16931.000000,7635.000000,42851.000000
12240.000000,16904.000000,7623.000000,42889.000000
12247.000000,16923.000000,7633.000000,42880.000000
12219.000000,16891.000000,7583.000000,42860.000000
12194.000000,16871.000000,7577.000000,42856.000000
12209.000000,16863.000000,7571.000000,42839.000000
12173.000000,16859.000000,7551.000000,42843.000000
12148.000000,16848.000000,7508.000000,42824.000000
12153.000000,16825.000000,7523.000000,42806.000000
12154.000000,16843.000000,7503.000000,42807.000000
12172.000000,16832.000000,7495.000000,42812.000000
12133.000000,16795.000000,7495.000000,42805.000000
12118.000000,16796.000000,7435.000000,42809.000000
12071.000000,16787.000000,7453.000000,42800.000000
12043.000000,16765.000000,7446.000000,42789.000000
12067.000000,16763.000000,7417.000000,42771.000000
12024.000000,16757.000000,7420.000000,42773.000000
12054.000000,16739.000000,7406.000000,42783.000000
12033.000000,16738.000000,7384.000000,42748.000000
11990.000000,16703.000000,7394.000000,42755.000000
12041.000000,16733.000000,7359.000000,42719.000000
11976.000000,16685.000000,7350.000000,42715.000000
11992.000000,16691.000000,7359.000000,42731.000000
11957.000000,16699.000000,7329.000000,42709.000000
11941.000000,16640.000000,7283.000000,42702.000000
11957.000000,16671.000000,7295.000000,42696.000000
11960.000000,16665.000000,7269.000000,42675.000000
11913.000000,16634.000000,7276.000000,42660.000000
11915.000000,16635.000000,7250.000000,42668.000000
11873.000000,16597.000000,7221.000000,42674.000000
11834.000000,16576.000000,7226.000000,42623.000000
11857.000000,16573.000000,7202.000000,42615.000000
11815.000000,16567.000000,7163.000000,42637.000000
11781.000000,16545.000000,7150.000000,42612.000000
11778.000000,16510.000000,7122.000000,42566.000000
11725.000000,16490.000000,7087.000000,42539.000000
11728.000000,16502.000000,7056.000000,42573.000000
11687.000000,16456.000000,7028.000000,42538.000000
11685.000000,16478.000000,7032.000000,42524.000000
11711.000000,16456.000000,7026.000000,42537.000000
11680.000000,16480.000000,7031.000000,42546.000000
11741.000000,16454.000000,7032.000000,42535.000000
11681.000000,16425.000000,7031.000000,42531.000000
11703.000000,16472.000000,7059.000000,42549.000000
11721.000000,16470.000000,7041.000000,42580.000000
11719.000000,16484.000000,7044.000000,42556.000000
11741.000000,16487.000000,7033.000000,42565.000000
11750.000000,16476.000000,7084.000000,42561.000000
11737.000000,16472.000000,7097.000000,42533.000000
11788.000000,16491.000000,7103.000000,42601.000000
11803.000000,16496.000000,7143.000000,42613.000000
11778.000000,16508.000000,7167.000000,42632.000000
11871.000000,16529.000000,7174.000000,42634.000000
11852.000000,16564.000000,7230.000000,42627.000000
11875.000000,16569.000000,7247.000000,42666.000000
11903.000000,16613.000000,7257.000000,42676.000000
11917.000000,16631.000000,7276.000000,42721.000000
11978.000000,16687.000000,7317.000000,42720.000000
12025.000000,16705.000000,7396.000000,42738.000000
12044.000000,16733.000000,7418.000000,42791.000000
12087.000000,16787.000000,7458.000000,42809.000000
12154.000000,16820.000000,7507.000000,42831.000000
12176.000000,16801.000000,7516.000000,42847.000000
12235.000000,16864.000000,7624.000000,42893.000000
12299.000000,16877.000000,7653.000000,42918.000000
12344.000000,16957.000000,7694.000000,42967.000000
12412.000000,16951.000000,7794.000000,42992.000000
12469.000000,17244.000000,7811.000000,43039.000000
12517.000000,17324.000000,7922.000000,43067.000000
12578.000000,17095.000000,8003.000000,43109.000000
12636.000000,17152.000000,8056.000000,43139.000000
12731.000000,17217.000000,8115.000000,43169.000000
12790.000000,17289.000000,8214.000000,43252.000000
12846.000000,17344.000000,8303.000000,43291.000000
12938.000000,17375.000000,8380.000000,43333.000000
12982.000000,17396.000000,8421.000000,43359.000000
13044.000000,17447.000000,8480.000000,43385.000000
13106.000000,17519.000000,8555.000000,43439.000000
13129.000000,17512.000000,8554.000000,43453.000000
13142.000000,17520.000000,8619.000000,43481.000000
13131.000000,17579.000000,8607.000000,43468.000000
13216.000000,17567.000000,8626.000000,43481.000000
13153.000000,17569.000000,8635.000000,43485.000000
13143.000000,17572.000000,8604.000000,43447.000000
13139.000000,17537.000000,8588.000000,43464.000000
13148.000000,17538.000000,8601.000000,43464.000000
13132.000000,17514.000000,8552.000000,43425.000000
13097.000000,17494.000000,8520.000000,43423.000000
13060.000000,17489.000000,8490.000000,43431.000000
13058.000000,17464.000000,8474.000000,43394.000000
13042.000000,17487.000000,8458.000000,43377.000000
13032.000000,17448.000000,8473.000000,43387.000000
13034.000000,17446.000000,8446.000000,43378.000000
12990.000000,17387.000000,8415.000000,43353.000000
12987.000000,17411.000000,8445.000000,43387.000000
12960.000000,17371.000000,8405.000000,43365.000000
12966.000000,17405.000000,8419.000000,43371.000000
12983.000000,17368.000000,8371.000000,43317.000000
12935.000000,17395.000000,8369.000000,43328.000000
12957.000000,17368.000000,8351.000000,43324.000000
12923.000000,17392.000000,8329.000000,43321.000000
12910.000000,17328.000000,8351.000000,43307.000000
12917.000000,17327.000000,8295.000000,43318.000000
12878.000000,17337.000000,8303.000000,43275.000000
12837.000000,17307.000000,8278.000000,43287.000000
12841.000000,17283.000000,8283.000000,43291.000000
12824.000000,17260.000000,8258.000000,43253.000000
12786.000000,17257.000000,8199.000000,43245.000000
12784.000000,17244.000000,8199.000000,43225.000000
12789.000000,17228.000000,8176.000000,43208.000000
12744.000000,17203.000000,8170.000000,43222.000000
12752.000000,17208.000000,8152.000000,43188.000000
12738.000000,17212.000000,8137.000000,43179.000000
12733.000000,17183.000000,8132.000000,43189.000000
12699.000000,17167.000000,8088.000000,43167.000000
12694.000000,17146.000000,8092.000000,43182.000000
12664.000000,17138.000000,8088.000000,43171.000000
12667.000000,17223.000000,8064.000000,43169.000000
12674.000000,17144.000000,8039.000000,43148.000000
12632.000000,17116.000000,8011.000000,43135.000000
12606.000000,17124.000000,7991.000000,43127.000000
12591.000000,17111.000000,7962.000000,43107.000000
12559.000000,17075.000000,7966.000000,43104.000000
12522.000000,17055.000000,7942.000000,43073.000000
12525.000000,17054.000000,7939.000000,43060.000000
12503.000000,17018.000000,7929.000000,43060.000000
12525.000000,17027.000000,7895.000000,43056.000000
12507.000000,16976.000000,7875.000000,43056.000000
12516.000000,17004.000000,7886.000000,43041.000000
12475.000000,17252.000000,7857.000000,43043.000000
12473.000000,16980.000000,7872.000000,43066.000000
12465.000000,16970.000000,7834.000000,43003.000000
12436.000000,16954.000000,7798.000000,43009.000000
12411.000000,16943.000000,7799.000000,43036.000000
12432.000000,16939.000000,7802.000000,43015.000000
12373.000000,16924.000000,7767.000000,43004.000000
12409.000000,16923.000000,7759.000000,42979.000000
12389.000000,16906.000000,7730.000000,42951.000000
12373.000000,16928.000000,7737.000000,42990.000000
12358.000000,16924.000000,7728.000000,42971.000000
12341.000000,16895.000000,7716.000000,42951.000000
12341.000000,16865.000000,7698.000000,42955.000000
12294.000000,16873.000000,7676.000000,42951.000000
12300.000000,16866.000000,7646.000000,42927.000000
12307.000000,16845.000000,7659.000000,42937.000000
12256.000000,16817.000000,7635.000000,42919.000000
12242.000000,16863.000000,7618.000000,42947.000000
12243.000000,16828.000000,7602.000000,42896.000000
12242.000000,16801.000000,7587.000000,42888.000000
12255.000000,16809.000000,7598.000000,42897.000000
12244.000000,16796.000000,7626.000000,42904.000000
12241.000000,16803.000000,7561.000000,42931.000000
12223.000000,16785.000000,7569.000000,42880.000000
12226.000000,16797.000000,7557.000000,42890.000000
12250.000000,16779.000000,7539.000000,42855.000000
12197.000000,16783.000000,7542.000000,42894.000000
12208.000000,16765.000000,7519.000000,42879.000000
12179.000000,16743.000000,7521.000000,42904.000000
12149.000000,16700.000000,7493.000000,42829.000000
12148.000000,16729.000000,7500.000000,42832.000000
12113.000000,16699.000000,7476.000000,42809.000000
12116.000000,16675.000000,7423.000000,42798.000000
12097.000000,16679.000000,7418.000000,42829.000000
12100.000000,16675.000000,7442.000000,42779.000000
12058.000000,16703.000000,7434.000000,42787.000000
12061.000000,16688.000000,7414.000000,42777.000000
12045.000000,16667.000000,7356.000000,42764.000000
12011.000000,16626.000000,7337.000000,42755.000000
12028.000000,16605.000000,7324.000000,42761.000000
12031.000000,16611.000000,7304.000000,42739.000000
11950.000000,16582.000000,7288.000000,42723.000000
11964.000000,16582.000000,7249.000000,42717.000000
11912.000000,16537.000000,7236.000000,42679.000000
11927.000000,16542.000000,7226.000000,42694.000000
12111.000000,16501.000000,7197.000000,42664.000000
11854.000000,16495.000000,7160.000000,42644.000000
11844.000000,16519.000000,7164.000000,42637.000000
11826.000000,16444.000000,7133.000000,42643.000000
11773.000000,16463.000000,7109.000000,42592.000000
11783.000000,16428.000000,7084.000000,42619.000000
11807.000000,16452.000000,7109.000000,42627.000000
11796.000000,16458.000000,7112.000000,42595.000000
11800.000000,16431.000000,7117.000000,42596.000000
11805.000000,16425.000000,7101.000000,42614.000000
11839.000000,16483.000000,7162.000000,42637.000000
11845.000000,16495.000000,7147.000000,42642.000000
11883.000000,16476.000000,7189.000000,42625.000000
11898.000000,16522.000000,7190.000000,42676.000000
11927.000000,16535.000000,7208.000000,42672.000000
11938.000000,16537.000000,7226.000000,42705.000000
11954.000000,16587.000000,7240.000000,42707.000000
12004.000000,16558.000000,7250.000000,42703.000000
12012.000000,16587.000000,7306.000000,42738.000000
12016.000000,16582.000000,7303.000000,42749.000000
12049.000000,16625.000000,7335.000000,42764.000000
12035.000000,16627.000000,7379.000000,42771.000000
12088.000000,16630.000000,7394.000000,42778.000000
12120.000000,16679.000000,7401.000000,42827.000000
12107.000000,16697.000000,7452.000000,42788.000000
12180.000000,16716.000000,7512.000000,42867.000000
12245.000000,16743.000000,7528.000000,42911.000000
12294.000000,16765.000000,7588.000000,42914.000000
12329.000000,16839.000000,7653.000000,42945.000000
12404.000000,16887.000000,7691.000000,42967.000000
12395.000000,16889.000000,7758.000000,43007.000000
12536.000000,16982.000000,7847.000000,43067.000000
12568.000000,17012.000000,7881.000000,43088.000000
12667.000000,17028.000000,7945.000000,43128.000000
12707.000000,17130.000000,8064.000000,43197.000000
12747.000000,17126.000000,8109.000000,43213.000000
12823.000000,17193.000000,8210.000000,43261.000000
12939.000000,17243.000000,8262.000000,43319.000000
13020.000000,17324.000000,8354.000000,43357.000000
13068.000000,17355.000000,8432.000000,43408.000000
13141.000000,17409.000000,8505.000000,43467.000000
13169.000000,17477.000000,8592.000000,43480.000000
13236.000000,17467.000000,8582.000000,43519.000000
13284.000000,17519.000000,8656.000000,43537.000000
13328.000000,17552.000000,8718.000000,43573.000000
13303.000000,17571.000000,8697.000000,43602.000000
13337.000000,17603.000000,8707.000000,43573.000000
13373.000000,17608.000000,8717.000000,43839.000000
13350.000000,17583.000000,8718.000000,43541.000000
13353.000000,17582.000000,8733.000000,43581.000000
13342.000000,17570.000000,8735.000000,43533.000000
13325.000000,17540.000000,8677.000000,43538.000000
13299.000000,17544.000000,8695.000000,43559.000000
13297.000000,17525.000000,8663.000000,43533.000000
13270.000000,17507.000000,8662.000000,43520.000000
13251.000000,17510.000000,8633.000000,43514.000000
13236.000000,17535.000000,8627.000000,43535.000000
13234.000000,17489.000000,8625.000000,43500.000000
13245.000000,17467.000000,8608.000000,43488.000000
13239.000000,17486.000000,8607.000000,43491.000000
13212.000000,17449.000000,8564.000000,43473.000000
13208.000000,17461.000000,8543.000000,43468.000000
13207.000000,17455.000000,8527.000000,43479.000000
13161.000000,17435.000000,8485.000000,43437.000000
13172.000000,17415.000000,8493.000000,43458.000000
13140.000000,17409.000000,8486.000000,43429.000000
13084.000000,17387.000000,8458.000000,43420.000000
13111.000000,17387.000000,8468.000000,43410.000000
13068.000000,17363.000000,8412.000000,43415.000000
13079.000000,17323.000000,8407.000000,43383.000000
13040.000000,17343.000000,8401.000000,43377.000000
13047.000000,17367.000000,8401.000000,43380.000000
13023.000000,17314.000000,8360.000000,43375.000000
13012.000000,17293.000000,8349.000000,43355.000000
13012.000000,17319.000000,8355.000000,43352.000000
13011.000000,17307.000000,8360.000000,43341.000000
13010.000000,17285.000000,8313.000000,43393.000000
12986.000000,17289.000000,8319.000000,43333.000000
12972.000000,17277.000000,8294.000000,43340.000000
12930.000000,17240.000000,8302.000000,43339.000000
12962.000000,17245.000000,8255.000000,43320.000000
12955.000000,17239.000000,8263.000000,43284.000000
12925.000000,17225.000000,8233.000000,43287.000000
12901.000000,17207.000000,8188.000000,43279.000000
12900.000000,17219.000000,8214.000000,43267.000000
12897.000000,17201.000000,8193.000000,43291.000000
12866.000000,17163.000000,8164.000000,43252.000000
12817.000000,17157.000000,8148.000000,43239.000000
12845.000000,17177.000000,8155.000000,43252.000000
12809.000000,17126.000000,8122.000000,43231.000000
13061.000000,17165.000000,8120.000000,43215.000000
12779.000000,17141.000000,8098.000000,43217.000000
12776.000000,17088.000000,8074.000000,43183.000000
12774.000000,17117.000000,8090.000000,43188.000000
12728.000000,17090.000000,8054.000000,43207.000000
12698.000000,17082.000000,8013.000000,43176.000000
12677.000000,17041.000000,8027.000000,43174.000000
12697.000000,17037.000000,7990.000000,43142.000000
12690.000000,17013.000000,7967.000000,43128.000000
12625.000000,17271.000000,7932.000000,43146.000000
12625.000000,16997.000000,7943.000000,43115.000000
12610.000000,16966.000000,7901.000000,43123.000000
12582.000000,16945.000000,7918.000000,43107.000000
12564.000000,16981.000000,7898.000000,43090.000000
12578.000000,16947.000000,7887.000000,43087.000000
12559.000000,16934.000000,7831.000000,43074.000000
12565.000000,16930.000000,7820.000000,43077.000000
12527.000000,16931.000000,7838.000000,43041.000000
12492.000000,16895.000000,7822.000000,43050.000000
12507.000000,16925.000000,7797.000000,43013.000000
12466.000000,16917.000000,7793.000000,43059.000000
12495.000000,16891.000000,7801.000000,43047.000000
12480.000000,16851.000000,7760.000000,43019.000000
12472.000000,16855.000000,7724.000000,43014.000000
12427.000000,16869.000000,7676.000000,43037.000000
12395.000000,16851.000000,7726.000000,43002.000000
12398.000000,16811.000000,7686.000000,42997.000000
12392.000000,16812.000000,7660.000000,43013.000000
12383.000000,16827.000000,7664.000000,42941.000000
12329.000000,16793.000000,7627.000000,42962.000000
12353.000000,16809.000000,7622.000000,42950.000000
12354.000000,16799.000000,7635.000000,42950.000000
12323.000000,16779.000000,7621.000000,42900.000000
12331.000000,16788.000000,7634.000000,42945.000000
12302.000000,16762.000000,7614.000000,42932.000000
12266.000000,16711.000000,7541.000000,42911.000000
12293.000000,16740.000000,7562.000000,42928.000000
12295.000000,16743.000000,7563.000000,42936.000000
12291.000000,16719.000000,7518.000000,42876.000000
12262.000000,16699.000000,7569.000000,42889.000000
12258.000000,16732.000000,7503.000000,42863.000000
12224.000000,16689.000000,7478.000000,42887.000000
12196.000000,16649.000000,7462.000000,42877.000000
12196.000000,16644.000000,7448.000000,42853.000000
12169.000000,16633.000000,7424.000000,42812.000000
12116.000000,16608.000000,7391.000000,42829.000000
12088.000000,16573.000000,7337.000000,42786.000000
12056.000000,16552.000000,7347.000000,42757.000000
12037.000000,16528.000000,7312.000000,42764.000000
12067.000000,16543.000000,7282.000000,42771.000000
12033.000000,16499.000000,7258.000000,42710.000000
11962.000000,16503.000000,7246.000000,42738.000000
11967.000000,16481.000000,7216.000000,42715.000000
11960.000000,16464.000000,7232.000000,42710.000000
11965.000000,16454.000000,7209.000000,42694.000000
11977.000000,16469.000000,7195.000000,42690.000000
12002.000000,16482.000000,7228.000000,42697.000000
11996.000000,16487.000000,7227.000000,42708.000000
11971.000000,16466.000000,7249.000000,42709.000000
12285.000000,16505.000000,7236.000000,42742.000000
12007.000000,16523.000000,7257.000000,42745.000000
12076.000000,16531.000000,7280.000000,42776.000000
12062.000000,16528.000000,7304.000000,42782.000000
12071.000000,16537.000000,7324.000000,42775.000000
12115.000000,16572.000000,7328.000000,42815.000000
12110.000000,16635.000000,7367.000000,42823.000000
12166.000000,16591.000000,7404.000000,42826.000000
12167.000000,16583.000000,7415.000000,42804.000000
12206.000000,16645.000000,7444.000000,42842.000000
12206.000000,16667.000000,7482.000000,42884.000000
12227.000000,16672.000000,7498.000000,42867.000000
12287.000000,16725.000000,7554.000000,42928.000000
12326.000000,16743.000000,7600.000000,42943.000000
12356.000000,16752.000000,7638.000000,42968.000000
12412.000000,16807.000000,7714.000000,43020.000000
12470.000000,16835.000000,7739.000000,43052.000000
12504.000000,16876.000000,7781.000000,43054.000000
12567.000000,16929.000000,7816.000000,43085.000000
12621.000000,17211.000000,7909.000000,43134.000000
12675.000000,17001.000000,7988.000000,43187.000000
12764.000000,17057.000000,8064.000000,43243.000000
12822.000000,17090.000000,8120.000000,43244.000000
12883.000000,17168.000000,8216.000000,43311.000000
12957.000000,17199.000000,8288.000000,43329.000000
13009.000000,17237.000000,8321.000000,43386.000000
13082.000000,17297.000000,8402.000000,43426.000000
13164.000000,17339.000000,8482.000000,43485.000000
13247.000000,17388.000000,8534.000000,43501.000000
13274.000000,17428.000000,8645.000000,43571.000000
13325.000000,17490.000000,8679.000000,43586.000000
13351.000000,17482.000000,8729.000000,43611.000000
13403.000000,17540.000000,8756.000000,43591.000000
13443.000000,17559.000000,8770.000000,43656.000000
13421.000000,17576.000000,8780.000000,43661.000000
13457.000000,17577.000000,8832.000000,43632.000000
13458.000000,17568.000000,8827.000000,43659.000000
13465.000000,17574.000000,8819.000000,43651.000000
13449.000000,17564.000000,8813.000000,43636.000000
13432.000000,17597.000000,8774.000000,43650.000000
13426.000000,17549.000000,8746.000000,43646.000000
13429.000000,17523.000000,8751.000000,43638.000000
13414.000000,17521.000000,8712.000000,43616.000000
13393.000000,17509.000000,8714.000000,43619.000000
13372.000000,17528.000000,8711.000000,43586.000000
13343.000000,17472.000000,8653.000000,43590.000000
13292.000000,17483.000000,8631.000000,43551.000000
13288.000000,17424.000000,8605.000000,43574.000000
13264.000000,17446.000000,8594.000000,43546.000000
13264.000000,17437.000000,8591.000000,43504.000000
13211.000000,17403.000000,8544.000000,43490.000000
13193.000000,17388.000000,8534.000000,43507.000000
13260.000000,17395.000000,8536.000000,43493.000000
13204.000000,17399.000000,8535.000000,43494.000000
13213.000000,17384.000000,8517.000000,43475.000000
13242.000000,17379.000000,8529.000000,43497.000000
13179.000000,17377.000000,8489.000000,43471.000000
13184.000000,17331.000000,8487.000000,43463.000000
13181.000000,17351.000000,8470.000000,43443.000000
13161.000000,17319.000000,8447.000000,43467.000000
13179.000000,17306.000000,8426.000000,43423.000000
13145.000000,17348.000000,8433.000000,43459.000000
13121.000000,17296.000000,8402.000000,43439.000000
13091.000000,17282.000000,8396.000000,43435.000000
13061.000000,17272.000000,8364.000000,43393.000000
13060.000000,17251.000000,8357.000000,43381.000000
13039.000000,17249.000000,8344.000000,43387.000000
13042.000000,17223.000000,8328.000000,43379.000000
13055.000000,17220.000000,8284.000000,43388.000000
13001.000000,17203.000000,8256.000000,43344.000000
13000.000000,17199.000000,8247.000000,43337.000000
12985.000000,17199.000000,8223.000000,43364.000000
12969.000000,17161.000000,8225.000000,43343.000000
12974.000000,17171.000000,8211.000000,43347.000000
12947.000000,17163.000000,8194.000000,43300.000000
12953.000000,17175.000000,8182.000000,43309.000000
13188.000000,17153.000000,8179.000000,43285.000000
12884.000000,17127.000000,8115.000000,43271.000000
12855.000000,17087.000000,8115.000000,43287.000000
12875.000000,17068.000000,8117.000000,43239.000000
12850.000000,17082.000000,8095.000000,43250.000000
12834.000000,17073.000000,8052.000000,43237.000000
12814.000000,17064.000000,8042.000000,43228.000000
12786.000000,17031.000000,8017.000000,43199.000000
12796.000000,17039.000000,8021.000000,43185.000000
12759.000000,17023.000000,7997.000000,43211.000000
12758.000000,16985.000000,7991.000000,43192.000000
12789.000000,17255.000000,7977.000000,43185.000000
12742.000000,16997.000000,7922.000000,43169.000000
12745.000000,16956.000000,7908.000000,43160.000000
12688.000000,16964.000000,7900.000000,43156.000000
12681.000000,16929.000000,7922.000000,43137.000000
12715.000000,16970.000000,7910.000000,43134.000000
12689.000000,16918.000000,7885.000000,43120.000000
12682.000000,16914.000000,7813.000000,43123.000000
12653.000000,16920.000000,7839.000000,43139.000000
12627.000000,16903.000000,7773.000000,43112.000000
12621.000000,16849.000000,7806.000000,43072.000000
12651.000000,16891.000000,7814.000000,43087.000000
12631.000000,16847.000000,7762.000000,43096.000000
12588.000000,16837.000000,7742.000000,43066.000000
12584.000000,16843.000000,7756.000000,43054.000000
12533.000000,16805.000000,7723.000000,43042.000000
12581.000000,16829.000000,7715.000000,43056.000000
12551.000000,16797.000000,7709.000000,43020.000000
12555.000000,16787.000000,7668.000000,43045.000000
12500.000000,16792.000000,7645.000000,43004.000000
12498.000000,16736.000000,7631.000000,42999.000000
12494.000000,16759.000000,7627.000000,43019.000000
12481.000000,16757.000000,7620.000000,42999.000000
12466.000000,16739.000000,7588.000000,42968.000000
12484.000000,16721.000000,7590.000000,42981.000000
12460.000000,16725.000000,7564.000000,42948.000000
12417.000000,16699.000000,7523.000000,42955.000000
12393.000000,16732.000000,7530.000000,42944.000000
12374.000000,16739.000000,7485.000000,42943.000000
12354.000000,16622.000000,7480.000000,42935.000000
12355.000000,16616.000000,7457.000000,42907.000000
12322.000000,16620.000000,7431.000000,42894.000000
12311.000000,16638.000000,7429.000000,42901.000000
12289.000000,16591.000000,7383.000000,42837.000000
12241.000000,16575.000000,7358.000000,42845.000000
12228.000000,16540.000000,7323.000000,42847.000000
12205.000000,16502.000000,7280.000000,42805.000000
12154.000000,16515.000000,7279.000000,42775.000000
12167.000000,16504.000000,7249.000000,42780.000000
12153.000000,16432.000000,7200.000000,42755.000000
12135.000000,16473.000000,7210.000000,42754.000000
12112.000000,16402.000000,7197.000000,42745.000000
12096.000000,16411.000000,7144.000000,42745.000000
12097.000000,16439.000000,7163.000000,42729.000000
12080.000000,16419.000000,7130.000000,42718.000000
12054.000000,16396.000000,7133.000000,42714.000000
12115.000000,16406.000000,7152.000000,42719.000000
12079.000000,16421.000000,7131.000000,42703.000000
12091.000000,16405.000000,7165.000000,42755.000000
12073.000000,16442.000000,7132.000000,42713.000000
12107.000000,16431.000000,7168.000000,42715.000000
12132.000000,16409.000000,7168.000000,42733.000000
12137.000000,16426.000000,7199.000000,42787.000000
12117.000000,16447.000000,7175.000000,42768.000000
12179.000000,16486.000000,7237.000000,42773.000000
12201.000000,16500.000000,7234.000000,42759.000000
12219.000000,16506.000000,7280.000000,42823.000000
12230.000000,16526.000000,7300.000000,42809.000000
12247.000000,16530.000000,7300.000000,42815.000000
12261.000000,16559.000000,7354.000000,42813.000000
12330.000000,16569.000000,7373.000000,42853.000000
12363.000000,16600.000000,7384.000000,42871.000000
12375.000000,16648.000000,7408.000000,42919.000000
12438.000000,16665.000000,7455.000000,42936.000000
12461.000000,16661.000000,7499.000000,42938.000000
12530.000000,16759.000000,7552.000000,42991.000000
12538.000000,16739.000000,7598.000000,43029.000000
12590.000000,16777.000000,7627.000000,43025.000000
12659.000000,16807.000000,7697.000000,43052.000000
12691.000000,16824.000000,7761.000000,43098.000000
12746.000000,16902.000000,7805.000000,43119.000000
12816.000000,16938.000000,7838.000000,43155.000000
12854.000000,16975.000000,7930.000000,43212.000000
12939.000000,17010.000000,7990.000000,43259.000000
13007.000000,17057.000000,8097.000000,43303.000000
13069.000000,17110.000000,8156.000000,43344.000000
13156.000000,17193.000000,8246.000000,43371.000000
13167.000000,17217.000000,8318.000000,43408.000000
13262.000000,17267.000000,8400.000000,43455.000000
13335.000000,17343.000000,8442.000000,43479.000000
13382.000000,17376.000000,8469.000000,43551.000000
13408.000000,17408.000000,8541.000000,43546.000000
13426.000000,17399.000000,8578.000000,43571.000000
13431.000000,17429.000000,8564.000000,43553.000000
13473.000000,17482.000000,8613.000000,43583.000000
13473.000000,17451.000000,8620.000000,43592.000000
13492.000000,17428.000000,8605.000000,43586.000000
13486.000000,17442.000000,8610.000000,43560.000000
13464.000000,17429.000000,8566.000000,43547.000000
13449.000000,17414.000000,8573.000000,43566.000000
13445.000000,17413.000000,8596.000000,43579.000000
13426.000000,17377.000000,8556.000000,43538.000000
13410.000000,17381.000000,8514.000000,43521.000000
13399.000000,17373.000000,8516.000000,43515.000000
13381.000000,17343.000000,8486.000000,43519.000000
13369.000000,17368.000000,8479.000000,43522.000000
13359.000000,17344.000000,8459.000000,43496.000000
13333.000000,17343.000000,8450.000000,43476.000000
13329.000000,17339.000000,8418.000000,43476.000000
13323.000000,17315.000000,8424.000000,43505.000000
13308.000000,17295.000000,8390.000000,43475.000000
13293.000000,17292.000000,8375.000000,43463.000000
13285.000000,17267.000000,8382.000000,43486.000000
13223.000000,17273.000000,8325.000000,43469.000000
13252.000000,17227.000000,8348.000000,43428.000000
13213.000000,17239.000000,8305.000000,43441.000000
13211.000000,17229.000000,8313.000000,43464.000000
13194.000000,17203.000000,8290.000000,43399.000000
13145.000000,17187.000000,8252.000000,43424.000000
13202.000000,17215.000000,8245.000000,43387.000000
13170.000000,17189.000000,8243.000000,43371.000000
13150.000000,17204.000000,8256.000000,43379.000000
13168.000000,17126.000000,8226.000000,43384.000000
13120.000000,17155.000000,8217.000000,43385.000000
13099.000000,17139.000000,8193.000000,43331.000000
13109.000000,17140.000000,8182.000000,43353.000000
13101.000000,17131.000000,8189.000000,43369.000000
13075.000000,17141.000000,8167.000000,43324.000000
13080.000000,17095.000000,8143.000000,43324.000000
13056.000000,17081.000000,8131.000000,43279.000000
13025.000000,17105.000000,8101.000000,43276.000000
13017.000000,17035.000000,8087.000000,43277.000000
12979.000000,17031.000000,8082.000000,43299.000000
12936.000000,17047.000000,8034.000000,43251.000000
12954.000000,17045.000000,8039.000000,43295.000000
12921.000000,16993.000000,7998.000000,43243.000000
12929.000000,17004.000000,8014.000000,43244.000000
12935.000000,17004.000000,7987.000000,43216.000000
12911.000000,16967.000000,7973.000000,43247.000000
12895.000000,16957.000000,7959.000000,43229.000000
12878.000000,16946.000000,7959.000000,43221.000000
12871.000000,16962.000000,7907.000000,43199.000000
12873.000000,16899.000000,7882.000000,43193.000000
12854.000000,16938.000000,7900.000000,43184.000000
12808.000000,16888.000000,7858.000000,43160.000000
12785.000000,16883.000000,7857.000000,43172.000000
12753.000000,16896.000000,7797.000000,43159.000000
12772.000000,16903.000000,7808.000000,43146.000000
12751.000000,16882.000000,7804.000000,43142.000000
12708.000000,16836.000000,7772.000000,43116.000000
12736.000000,16844.000000,7778.000000,43080.000000
12712.000000,16823.000000,7746.000000,43103.000000
12685.000000,16819.000000,7721.000000,43122.000000
12697.000000,16811.000000,7734.000000,43092.000000
12646.000000,16779.000000,7700.000000,43045.000000
12678.000000,16816.000000,7696.000000,43079.000000
12660.000000,16780.000000,7685.000000,43074.000000
12635.000000,16759.000000,7674.000000,43064.000000
12649.000000,16779.000000,7672.000000,43051.000000
12610.000000,16751.000000,7631.000000,43054.000000
12585.000000,16723.000000,7617.000000,43037.000000
12569.000000,16717.000000,7618.000000,43039.000000
12595.000000,16701.000000,7593.000000,43018.000000
12564.000000,16705.000000,7569.000000,42993.000000
12538.000000,16696.000000,7554.000000,43020.000000
12528.000000,16679.000000,7576.000000,43005.000000
12512.000000,16680.000000,7559.000000,42991.000000
12534.000000,16639.000000,7583.000000,42992.000000
12498.000000,16664.000000,7534.000000,42955.000000
12515.000000,16643.000000,7534.000000,42965.000000
12465.000000,16643.000000,7503.000000,42954.000000
12465.000000,16610.000000,7465.000000,42957.000000
12465.000000,16634.000000,7473.000000,42984.000000
12435.000000,16593.000000,7455.000000,42957.000000
12419.000000,16581.000000,7430.000000,42918.000000
12413.000000,16575.000000,7413.000000,42927.000000
12393.000000,16573.000000,7395.000000,42927.000000
12385.000000,16551.000000,7384.000000,42907.000000
12324.000000,16527.000000,7339.000000,42897.000000
12326.000000,16475.000000,7301.000000,42871.000000
12283.000000,16490.000000,7289.000000,42840.000000
12251.000000,16476.000000,7249.000000,42829.000000
12254.000000,16415.000000,7238.000000,42792.000000
12215.000000,16412.000000,7189.000000,42803.000000
12166.000000,16390.000000,7193.000000,42784.000000
12166.000000,16383.000000,7154.000000,42791.000000
12162.000000,16367.000000,7137.000000,42745.000000
12092.000000,16335.000000,7125.000000,42724.000000
12084.000000,16309.000000,7106.000000,42735.000000
12076.000000,16323.000000,7087.000000,42701.000000
12081.000000,16335.000000,7086.000000,42734.000000
12063.000000,16304.000000,7091.000000,42712.000000
12071.000000,16316.000000,7092.000000,42708.000000
12091.000000,16323.000000,7117.000000,42713.000000
12163.000000,16329.000000,7101.000000,42738.000000
12112.000000,16309.000000,7086.000000,42718.000000
12108.000000,16363.000000,7093.000000,42715.000000
12090.000000,16364.000000,7130.000000,42773.000000
12151.000000,16361.000000,7179.000000,42749.000000
12140.000000,16347.000000,7142.000000,42779.000000
12163.000000,16410.000000,7195.000000,42771.000000
12189.000000,16390.000000,7195.000000,42795.000000
12215.000000,16429.000000,7229.000000,42807.000000
12263.000000,16442.000000,7271.000000,42823.000000
12275.000000,16450.000000,7263.000000,42843.000000
12309.000000,16504.000000,7318.000000,42863.000000
12296.000000,16489.000000,7327.000000,42849.000000
12363.000000,16549.000000,7376.000000,42910.000000
12422.000000,16587.000000,7441.000000,42944.000000
12474.000000,16563.000000,7444.000000,42928.000000
12502.000000,16647.000000,7510.000000,42973.000000
12556.000000,16672.000000,7521.000000,43007.000000
12603.000000,16667.000000,7611.000000,43033.000000
12619.000000,16729.000000,7614.000000,43051.000000
12646.000000,16747.000000,7684.000000,43069.000000
12672.000000,16788.000000,7729.000000,43103.000000
12750.000000,16785.000000,7771.000000,43136.000000
12811.000000,16865.000000,7847.000000,43182.000000
12859.000000,16899.000000,7850.000000,43238.000000
12887.000000,16936.000000,7944.000000,43234.000000
13003.000000,17001.000000,8052.000000,43283.000000
13053.000000,17044.000000,8121.000000,43336.000000
13127.000000,17081.000000,8217.000000,43372.000000
13210.000000,17151.000000,8278.000000,43397.000000
13255.000000,17167.000000,8335.000000,43464.000000
13331.000000,17233.000000,8414.000000,43507.000000
13366.000000,17263.000000,8479.000000,43536.000000
13432.000000,17303.000000,8497.000000,43566.000000
13469.000000,17341.000000,8517.000000,43593.000000
13498.000000,17351.000000,8559.000000,43587.000000
13520.000000,17387.000000,8576.000000,43582.000000
13487.000000,17371.000000,8578.000000,43612.000000
13485.000000,17377.000000,8576.000000,43563.000000
13514.000000,17363.000000,8565.000000,43601.000000
13465.000000,17355.000000,8509.000000,43588.000000
13458.000000,17353.000000,8495.000000,43591.000000
13443.000000,17319.000000,8535.000000,43572.000000
13452.000000,17328.000000,8505.000000,43542.000000
13441.000000,17313.000000,8488.000000,43541.000000
13399.000000,17327.000000,8476.000000,43573.000000
13383.000000,17313.000000,8435.000000,43552.000000
13390.000000,17295.000000,8411.000000,43531.000000
13412.000000,17276.000000,8441.000000,43517.000000
13339.000000,17255.000000,8397.000000,43521.000000
13314.000000,17216.000000,8382.000000,43503.000000
13302.000000,17215.000000,8373.000000,43492.000000
13276.000000,17216.000000,8371.000000,43487.000000
13326.000000,17219.000000,8349.000000,43491.000000
13259.000000,17155.000000,8322.000000,43456.000000
13242.000000,17179.000000,8308.000000,43473.000000
13244.000000,17167.000000,8299.000000,43437.000000
13206.000000,17146.000000,8279.000000,43415.000000
13207.000000,17145.000000,8243.000000,43403.000000
13197.000000,17126.000000,8241.000000,43415.000000
13152.000000,17122.000000,8192.000000,43423.000000
13180.000000,17107.000000,8233.000000,43387.000000
13155.000000,17075.000000,8179.000000,43381.000000
13145.000000,17091.000000,8162.000000,43379.000000
13129.000000,17086.000000,8123.000000,43364.000000
13120.000000,17059.000000,8116.000000,43369.000000
13104.000000,17023.000000,8132.000000,43373.000000
13108.000000,17004.000000,8091.000000,43334.000000
13098.000000,17012.000000,8105.000000,43333.000000
13089.000000,17015.000000,8135.000000,43327.000000
13073.000000,17265.000000,8102.000000,43348.000000
13057.000000,16994.000000,8080.000000,43317.000000
13039.000000,16997.000000,8063.000000,43327.000000
13026.000000,16999.000000,8054.000000,43327.000000
12992.000000,16976.000000,8024.000000,43288.000000
12995.000000,16971.000000,7992.000000,43273.000000
12995.000000,16940.000000,7993.000000,43289.000000
12964.000000,16921.000000,7969.000000,43280.000000
12973.000000,16939.000000,7964.000000,43264.000000
12907.000000,16877.000000,7903.000000,43246.000000
12911.000000,16903.000000,7909.000000,43269.000000
12884.000000,16883.000000,7894.000000,43229.000000
12867.000000,16851.000000,7880.000000,43230.000000
12899.000000,16848.000000,7900.000000,43218.000000
12838.000000,16856.000000,7851.000000,43183.000000
12849.000000,16839.000000,7864.000000,43204.000000
12824.000000,16851.000000,7835.000000,43201.000000
12825.000000,16824.000000,7824.000000,43174.000000
12801.000000,16801.000000,7831.000000,43190.000000
12835.000000,16843.000000,7814.000000,43200.000000
12814.000000,16783.000000,7795.000000,43188.000000
12764.000000,16821.000000,7818.000000,43166.000000
12790.000000,16795.000000,7756.000000,43183.000000
12742.000000,16771.000000,7716.000000,43151.000000
12762.000000,16755.000000,7751.000000,43130.000000
12723.000000,16759.000000,7730.000000,43120.000000
12706.000000,16747.000000,7726.000000,43106.000000
12707.000000,16771.000000,7728.000000,43143.000000
12698.000000,16712.000000,7681.000000,43130.000000
12699.000000,16711.000000,7701.000000,43137.000000
12704.000000,16695.000000,7652.000000,43101.000000
12672.000000,16696.000000,7671.000000,43113.000000
12641.000000,16667.000000,7666.000000,43086.000000
12652.000000,16703.000000,7643.000000,43121.000000
12635.000000,16663.000000,7635.000000,43085.000000
12627.000000,16692.000000,7612.000000,43089.000000
12595.000000,16632.000000,7615.000000,43069.000000
12627.000000,16633.000000,7590.000000,43070.000000
12561.000000,16620.000000,7584.000000,43043.000000
12571.000000,16660.000000,7581.000000,43020.000000
12567.000000,16647.000000,7573.000000,43040.000000
12582.000000,16609.000000,7508.000000,43037.000000
12543.000000,16585.000000,7540.000000,43035.000000
12550.000000,16603.000000,7517.000000,43012.000000
12544.000000,16603.000000,7510.000000,43016.000000
12532.000000,16578.000000,7478.000000,43011.000000
12541.000000,16562.000000,7469.000000,43014.000000
12492.000000,16537.000000,7480.000000,42985.000000
12473.000000,16546.000000,7473.000000,42980.000000
12447.000000,16513.000000,7427.000000,42955.000000
12432.000000,16509.000000,7396.000000,42963.000000
12407.000000,16460.000000,7380.000000,42927.000000
12373.000000,16485.000000,7355.000000,42926.000000
12349.000000,16424.000000,7329.000000,42905.000000
12348.000000,16420.000000,7311.000000,42932.000000
12305.000000,16426.000000,7301.000000,42873.000000
12300.000000,16429.000000,7280.000000,42895.000000
12342.000000,16401.000000,7291.000000,42871.000000
12320.000000,16376.000000,7277.000000,42864.000000
12313.000000,16413.000000,7263.000000,42836.000000
12279.000000,16385.000000,7265.000000,42842.000000
12316.000000,16387.000000,7268.000000,42895.000000
12321.000000,16403.000000,7288.000000,42892.000000
12337.000000,16384.000000,7287.000000,42900.000000
12325.000000,16423.000000,7293.000000,42879.000000
12338.000000,16423.000000,7303.000000,42913.000000
12335.000000,16426.000000,7336.000000,42923.000000
12340.000000,16428.000000,7308.000000,42905.000000
12370.000000,16441.000000,7314.000000,42911.000000
12354.000000,16453.000000,7339.000000,42895.000000
12399.000000,16429.000000,7340.000000,42920.000000
12379.000000,16442.000000,7385.000000,42948.000000
12383.000000,16472.000000,7361.000000,42953.000000
12394.000000,16489.000000,7416.000000,42968.000000
12447.000000,16527.000000,7421.000000,42987.000000
12485.000000,16549.000000,7478.000000,42999.000000
12519.000000,16575.000000,7528.000000,43033.000000
12558.000000,16582.000000,7588.000000,43023.000000
12593.000000,16651.000000,7625.000000,43090.000000
12642.000000,16652.000000,7638.000000,43129.000000
12685.000000,16699.000000,7692.000000,43149.000000
12771.000000,16771.000000,7776.000000,43171.000000
12824.000000,16799.000000,7818.000000,43231.000000
12866.000000,16819.000000,7865.000000,43255.000000
12958.000000,16879.000000,7952.000000,43299.000000
12966.000000,16923.000000,7992.000000,43288.000000
13040.000000,16963.000000,8080.000000,43368.000000
13105.000000,16989.000000,8128.000000,43415.000000
13158.000000,17064.000000,8184.000000,43435.000000
13232.000000,17096.000000,8268.000000,43473.000000
13287.000000,17124.000000,8348.000000,43522.000000
13381.000000,17197.000000,8422.000000,43590.000000
13482.000000,17232.000000,8531.000000,43607.000000
13511.000000,17295.000000,8586.000000,43665.000000
13577.000000,17344.000000,8647.000000,43717.000000
13677.000000,17408.000000,8730.000000,43747.000000
13710.000000,17448.000000,8759.000000,43754.000000
13743.000000,17488.000000,8802.000000,43781.000000
13794.000000,17477.000000,8856.000000,43792.000000
13805.000000,17537.000000,8897.000000,43844.000000
13814.000000,17498.000000,8877.000000,43821.000000
13832.000000,17532.000000,8883.000000,43823.000000
13809.000000,17487.000000,8898.000000,43802.000000
13781.000000,17528.000000,8862.000000,43823.000000
13792.000000,17505.000000,8847.000000,43810.000000
13799.000000,17497.000000,8850.000000,43810.000000
13777.000000,17470.000000,8824.000000,43800.000000
13766.000000,17500.000000,8828.000000,43771.000000
13719.000000,17460.000000,8790.000000,43787.000000
13736.000000,17473.000000,8771.000000,43753.000000
13730.000000,17434.000000,8755.000000,43752.000000
13672.000000,17409.000000,8754.000000,43760.000000
13681.000000,17399.000000,8734.000000,43765.000000
13655.000000,17383.000000,8711.000000,43709.000000
13679.000000,17414.000000,8696.000000,43742.000000
13672.000000,17399.000000,8682.000000,43706.000000
13611.000000,17383.000000,8663.000000,43707.000000
13600.000000,17331.000000,8628.000000,43703.000000
13614.000000,17337.000000,8634.000000,43697.000000
13623.000000,17327.000000,8644.000000,43680.000000
13564.000000,17343.000000,8631.000000,43682.000000
13566.000000,17335.000000,8612.000000,43681.000000
13540.000000,17323.000000,8586.000000,43644.000000
13529.000000,17296.000000,8560.000000,43651.000000
13537.000000,17291.000000,8547.000000,43630.000000
13494.000000,17259.000000,8530.000000,43603.000000
13532.000000,17263.000000,8526.000000,43620.000000
13501.000000,17256.000000,8512.000000,43608.000000
13481.000000,17277.000000,8496.000000,43626.000000
13471.000000,17227.000000,8486.000000,43619.000000
13449.000000,17201.000000,8469.000000,43585.000000
13448.000000,17184.000000,8421.000000,43595.000000
13447.000000,17183.000000,8406.000000,43546.000000
13382.000000,17152.000000,8423.000000,43565.000000
13378.000000,17175.000000,8376.000000,43522.000000
13335.000000,17138.000000,8359.000000,43535.000000
13327.000000,17127.000000,8322.000000,43531.000000
13334.000000,17097.000000,8314.000000,43527.000000
13288.000000,17107.000000,8277.000000,43496.000000
13306.000000,17339.000000,8289.000000,43500.000000
13300.000000,17115.000000,8283.000000,43481.000000
13276.000000,17125.000000,8239.000000,43490.000000
13218.000000,17279.000000,8210.000000,43476.000000
13270.000000,17032.000000,8223.000000,43468.000000
13215.000000,17052.000000,8191.000000,43436.000000
13224.000000,16998.000000,8174.000000,43448.000000
13216.000000,17006.000000,8170.000000,43425.000000
13192.000000,17006.000000,8174.000000,43388.000000
13193.000000,16994.000000,8139.000000,43385.000000
13161.000000,16980.000000,8149.000000,43415.000000
13168.000000,16968.000000,8092.000000,43411.000000
13148.000000,17213.000000,8100.000000,43391.000000
13163.000000,16996.000000,8122.000000,43394.000000
13110.000000,16947.000000,8122.000000,43388.000000
13135.000000,16962.000000,8086.000000,43402.000000
13157.000000,16943.000000,8067.000000,43389.000000
13127.000000,16948.000000,8044.000000,43388.000000
13147.000000,16957.000000,8083.000000,43398.000000
13132.000000,16932.000000,8043.000000,43417.000000
13102.000000,16928.000000,8031.000000,43345.000000
13095.000000,16885.000000,8011.000000,43343.000000
13093.000000,16893.000000,7994.000000,43328.000000
13082.000000,16889.000000,8024.000000,43324.000000
13035.000000,16900.000000,7977.000000,43319.000000
13044.000000,16859.000000,7955.000000,43307.000000
13034.000000,16872.000000,7945.000000,43336.000000
12994.000000,16835.000000,7942.000000,43307.000000
12988.000000,16833.000000,7908.000000,43273.000000
12965.000000,16796.000000,7883.000000,43248.000000
12944.000000,16817.000000,7882.000000,43299.000000
12924.000000,16803.000000,7872.000000,43265.000000
12915.000000,16785.000000,7866.000000,43267.000000
12912.000000,16752.000000,7849.000000,43246.000000
12936.000000,16761.000000,7832.000000,43235.000000
12889.000000,16764.000000,7829.000000,43262.000000
12904.000000,16756.000000,7810.000000,43239.000000
12842.000000,16727.000000,7748.000000,43211.000000
12888.000000,16727.000000,7775.000000,43216.000000
12853.000000,16756.000000,7767.000000,43197.000000
12820.000000,16735.000000,7779.000000,43216.000000
12799.000000,16707.000000,7719.000000,43210.000000
12809.000000,16638.000000,7690.000000,43179.000000
12756.000000,16677.000000,7695.000000,43189.000000
12755.000000,16628.000000,7653.000000,43156.000000
12708.000000,16626.000000,7619.000000,43128.000000
12713.000000,16621.000000,7637.000000,43128.000000
12664.000000,16572.000000,7594.000000,43115.000000
12668.000000,16607.000000,7616.000000,43129.000000
12658.000000,16572.000000,7581.000000,43076.000000
12629.000000,16551.000000,7552.000000,43066.000000
12624.000000,16539.000000,7531.000000,43093.000000
12661.000000,16556.000000,7516.000000,43077.000000
12647.000000,16502.000000,7529.000000,43067.000000
12635.000000,16547.000000,7524.000000,43090.000000
12613.000000,16500.000000,7507.000000,43062.000000
12624.000000,16567.000000,7536.000000,43110.000000
12643.000000,16531.000000,7528.000000,43089.000000
12668.000000,16579.000000,7506.000000,43095.000000
12683.000000,16559.000000,7559.000000,43096.000000
12670.000000,16551.000000,7540.000000,43098.000000
12659.000000,16566.000000,7567.000000,43111.000000
12672.000000,16591.000000,7586.000000,43081.000000
12673.000000,16563.000000,7580.000000,43120.000000
12684.000000,16560.000000,7616.000000,43131.000000
12697.000000,16601.000000,7627.000000,43147.000000
12765.000000,16631.000000,7666.000000,43140.000000
12783.000000,16656.000000,7674.000000,43175.000000
12799.000000,16668.000000,7690.000000,43184.000000
12840.000000,16692.000000,7735.000000,43212.000000
12870.000000,16735.000000,7783.000000,43222.000000
12895.000000,16756.000000,7790.000000,43247.000000
12953.000000,16783.000000,7864.000000,43277.000000
13011.000000,16807.000000,7920.000000,43335.000000
13066.000000,16840.000000,7961.000000,43328.000000
13094.000000,16899.000000,8015.000000,43376.000000
13146.000000,16927.000000,8112.000000,43395.000000
13185.000000,16947.000000,8111.000000,43421.000000
13254.000000,16992.000000,8184.000000,43478.000000
13341.000000,17042.000000,8256.000000,43516.000000
13369.000000,17113.000000,8311.000000,43546.000000
13442.000000,17142.000000,8433.000000,43590.000000
13503.000000,17175.000000,8499.000000,43655.000000
13586.000000,17264.000000,8608.000000,43730.000000
13650.000000,17320.000000,8647.000000,43781.000000
13728.000000,17371.000000,8701.000000,43781.000000
13816.000000,17440.000000,8827.000000,43853.000000
13861.000000,17487.000000,8847.000000,43875.000000
13904.000000,17491.000000,8937.000000,43906.000000
13943.000000,17521.000000,8974.000000,43912.000000
14004.000000,17554.000000,9015.000000,43983.000000
14025.000000,17565.000000,9043.000000,43980.000000
14006.000000,17568.000000,9023.000000,43973.000000
14028.000000,17627.000000,9080.000000,44015.000000
14032.000000,17591.000000,9064.000000,43937.000000
14060.000000,17576.000000,9047.000000,43996.000000
14009.000000,17589.000000,9050.000000,43957.000000
13999.000000,17575.000000,9008.000000,43947.000000
14015.000000,17580.000000,9027.000000,43984.000000
13977.000000,17583.000000,9006.000000,43967.000000
13959.000000,17554.000000,9021.000000,43947.000000
13962.000000,17531.000000,9008.000000,43935.000000
13927.000000,17525.000000,8995.000000,43919.000000
13926.000000,17527.000000,8997.000000,43949.000000
13894.000000,17487.000000,8932.000000,43919.000000
13890.000000,17506.000000,8942.000000,43932.000000
13883.000000,17482.000000,8938.000000,43891.000000
13878.000000,17451.000000,8911.000000,43897.000000
13871.000000,17455.000000,8910.000000,43919.000000
13823.000000,17447.000000,8874.000000,43877.000000
13792.000000,17440.000000,8867.000000,43869.000000
13824.000000,17429.000000,8869.000000,43851.000000
13806.000000,17411.000000,8834.000000,43858.000000
13752.000000,17425.000000,8807.000000,43824.000000
13772.000000,17417.000000,8815.000000,43825.000000
13766.000000,17373.000000,8814.000000,43855.000000
13735.000000,17399.000000,8787.000000,43800.000000
13722.000000,17356.000000,8755.000000,43796.000000
13727.000000,17384.000000,8756.000000,43830.000000
13683.000000,17379.000000,8779.000000,43824.000000
13719.000000,17339.000000,8744.000000,43807.000000
13688.000000,17339.000000,8716.000000,43813.000000
13675.000000,17315.000000,8736.000000,43787.000000
13672.000000,17315.000000,8717.000000,43766.000000
13587.000000,17281.000000,8705.000000,43749.000000
13632.000000,17303.000000,8677.000000,43758.000000
13596.000000,17288.000000,8639.000000,43741.000000
13612.000000,17305.000000,8655.000000,43763.000000
13562.000000,17275.000000,8633.000000,43746.000000
13563.000000,17239.000000,8624.000000,43702.000000
13548.000000,17255.000000,8595.000000,43746.000000
13497.000000,17192.000000,8559.000000,43690.000000
13501.000000,17211.000000,8568.000000,43696.000000
13486.000000,17187.000000,8556.000000,43692.000000
13480.000000,17187.000000,8539.000000,43687.000000
13490.000000,17192.000000,8552.000000,43677.000000
13423.000000,17143.000000,8495.000000,43633.000000
13449.000000,17137.000000,8486.000000,43665.000000
13417.000000,17128.000000,8475.000000,43622.000000
13411.000000,17107.000000,8430.000000,43596.000000
13391.000000,17118.000000,8457.000000,43627.000000
13360.000000,17120.000000,8415.000000,43613.000000
13346.000000,17343.000000,8437.000000,43588.000000
13370.000000,17057.000000,8389.000000,43611.000000
13346.000000,17058.000000,8380.000000,43590.000000
13328.000000,17062.000000,8383.000000,43595.000000
13313.000000,17048.000000,8328.000000,43557.000000
13264.000000,17056.000000,8321.000000,43558.000000
13301.000000,17030.000000,8341.000000,43521.000000
13286.000000,17009.000000,8298.000000,43557.000000
13282.000000,17015.000000,8323.000000,43534.000000
13271.000000,17058.000000,8292.000000,43556.000000
13259.000000,16977.000000,8273.000000,43541.000000
13228.000000,16984.000000,8249.000000,43537.000000
13226.000000,16960.000000,8241.000000,43510.000000
13201.000000,16935.000000,8224.000000,43497.000000
13215.000000,16949.000000,8229.000000,43494.000000
13200.000000,16946.000000,8199.000000,43482.000000
13166.000000,17153.000000,8175.000000,43459.000000
13149.000000,16918.000000,8166.000000,43473.000000
13164.000000,16908.000000,8157.000000,43427.000000
13149.000000,16876.000000,8127.000000,43476.000000
13162.000000,16898.000000,8111.000000,43490.000000
13087.000000,16865.000000,8129.000000,43467.000000
13057.000000,16837.000000,8072.000000,43420.000000
13101.000000,16845.000000,8075.000000,43443.000000
13096.000000,16815.000000,8045.000000,43419.000000
13051.000000,16847.000000,8018.000000,43405.000000
13067.000000,16789.000000,8009.000000,43387.000000
13033.000000,16819.000000,8018.000000,43396.000000
13000.000000,16769.000000,7974.000000,43363.000000
12990.000000,16753.000000,7917.000000,43366.000000
12961.000000,16731.000000,7900.000000,43325.000000
12962.000000,16744.000000,7890.000000,43331.000000
12919.000000,16731.000000,7867.000000,43299.000000
12920.000000,16709.000000,7855.000000,43287.000000
12861.000000,16692.000000,7812.000000,43284.000000
12848.000000,16609.000000,7766.000000,43237.000000
12815.000000,16612.000000,7732.000000,43238.000000
12781.000000,16584.000000,7683.000000,43214.000000
12741.000000,16559.000000,7687.000000,43228.000000
12770.000000,16554.000000,7641.000000,43192.000000
12760.000000,16547.000000,7657.000000,43201.000000
12740.000000,16546.000000,7624.000000,43167.000000
12698.000000,16531.000000,7621.000000,43162.000000
12740.000000,16552.000000,7626.000000,43180.000000
12733.000000,16534.000000,7556.000000,43127.000000
12690.000000,16520.000000,7568.000000,43151.000000
12729.000000,16519.000000,7593.000000,43160.000000
12715.000000,16504.000000,7580.000000,43149.000000
12733.000000,16514.000000,7576.000000,43185.000000
12762.000000,16550.000000,7596.000000,43170.000000
12755.000000,16531.000000,7593.000000,43185.000000
12763.000000,16579.000000,7662.000000,43193.000000
12789.000000,16539.000000,7610.000000,43188.000000
12795.000000,16597.000000,7635.000000,43191.000000
12837.000000,16576.000000,7654.000000,43196.000000
12864.000000,16610.000000,7694.000000,43209.000000
12887.000000,16626.000000,7693.000000,43229.000000
12923.000000,16644.000000,7749.000000,43236.000000
12940.000000,16647.000000,7807.000000,43281.000000
