660nm,730nm,850nm,940nm
29210.000000,20172.000000,18583.000000,57855.000000
29227.000000,20216.000000,18542.000000,57840.000000
29227.000000,20205.000000,18532.000000,57823.000000
29218.000000,20188.000000,18552.000000,57861.000000
29214.000000,20189.000000,18542.000000,57822.000000
29187.000000,20200.000000,18527.000000,57826.000000
29202.000000,20197.000000,18513.000000,57837.000000
29182.000000,20167.000000,18488.000000,57808.000000
29185.000000,20187.000000,18498.000000,57815.000000
29203.000000,20138.000000,18488.000000,57822.000000
29194.000000,20207.000000,18497.000000,57811.000000
29181.000000,20163.000000,18513.000000,57812.000000
29176.000000,20169.000000,18469.000000,57792.000000
29167.000000,20179.000000,18462.000000,57797.000000
29194.000000,20113.000000,18464.000000,57785.000000
29148.000000,20148.000000,18477.000000,57805.000000
29152.000000,20170.000000,18449.000000,57798.000000
29136.000000,20152.000000,18452.000000,57788.000000
29127.000000,20138.000000,18433.000000,57774.000000
29099.000000,20104.000000,18425.000000,57782.000000
29112.000000,20111.000000,18411.000000,57759.000000
29087.000000,20089.000000,18404.000000,57738.000000
29109.000000,20086.000000,18379.000000,57764.000000
29073.000000,20124.000000,18396.000000,57764.000000
29078.000000,20055.000000,18378.000000,57742.000000
29087.000000,20079.000000,18388.000000,57769.000000
29068.000000,20077.000000,18379.000000,57730.000000
29062.000000,20097.000000,18369.000000,57721.000000
29054.000000,20090.000000,18335.000000,57743.000000
29028.000000,20071.000000,18340.000000,57730.000000
29023.000000,20084.000000,18319.000000,57730.000000
29010.000000,20051.000000,18319.000000,57703.000000
29025.000000,20035.000000,18311.000000,57714.000000
29003.000000,20037.000000,18331.000000,57704.000000
29032.000000,20032.000000,18305.000000,57727.000000
29019.000000,20042.000000,18306.000000,57732.000000
29006.000000,20053.000000,18345.000000,57748.000000
29005.000000,20025.000000,18301.000000,57762.000000
29003.000000,20062.000000,18324.000000,57694.000000
29015.000000,20023.000000,18321.000000,57695.000000
29024.000000,20056.000000,18317.000000,57722.000000
28978.000000,20048.000000,18302.000000,57705.000000
29039.000000,20058.000000,18351.000000,57742.000000
29036.000000,20051.000000,18362.000000,57754.000000
29054.000000,20085.000000,18386.000000,57767.000000
29056.000000,20062.000000,18373.000000,57709.000000
29070.000000,20077.000000,18366.000000,57765.000000
29081.000000,20096.000000,18380.000000,57767.000000
29122.000000,20114.000000,18423.000000,57776.000000
29108.000000,20117.000000,18413.000000,57800.000000
29116.000000,20144.000000,18450.000000,57790.000000
29142.000000,20143.000000,18445.000000,57804.000000
29136.000000,20135.000000,18485.000000,57831.000000
29148.000000,20139.000000,18476.000000,57799.000000
29181.000000,20174.000000,18509.000000,57837.000000
29218.000000,20194.000000,18544.000000,57835.000000
29206.000000,20175.000000,18554.000000,57879.000000
29200.000000,20177.000000,18592.000000,57879.000000
29242.000000,20216.000000,18582.000000,57880.000000
29276.000000,20240.000000,18606.000000,57919.000000
29272.000000,20235.000000,18642.000000,57941.000000
29300.000000,20278.000000,18675.000000,57944.000000
29298.000000,20277.000000,18664.000000,57941.000000
29335.000000,20276.000000,18691.000000,57928.000000
29332.000000,20288.000000,18705.000000,57960.000000
29375.000000,20299.000000,18741.000000,57970.000000
29392.000000,20349.000000,18766.000000,58003.000000
29417.000000,20340.000000,18787.000000,58014.000000
29461.000000,20364.000000,18822.000000,58023.000000
29453.000000,20381.000000,18866.000000,58037.000000
29466.000000,20409.000000,18865.000000,58033.000000
29555.000000,20407.000000,18888.000000,58068.000000
29544.000000,20432.000000,18928.000000,58087.000000
29561.000000,20477.000000,18966.000000,58140.000000
29569.000000,20457.000000,18986.000000,58101.000000
29574.000000,20471.000000,19005.000000,58138.000000
29608.000000,20495.000000,19051.000000,58151.000000
29631.000000,20492.000000,19058.000000,58154.000000
29648.000000,20524.000000,19073.000000,58162.000000
29659.000000,20534.000000,19086.000000,58182.000000
29686.000000,20543.000000,19108.000000,58188.000000
29714.000000,20514.000000,19099.000000,58199.000000
29689.000000,20539.000000,19116.000000,58187.000000
29681.000000,20547.000000,19090.000000,58190.000000
29682.000000,20551.000000,19101.000000,58148.000000
29687.000000,20548.000000,19109.000000,58211.000000
29669.000000,20553.000000,19098.000000,58140.000000
29628.000000,20509.000000,19059.000000,58162.000000
29657.000000,20522.000000,19092.000000,58198.000000
29628.000000,20525.000000,19057.000000,58153.000000
29625.000000,20528.000000,19066.000000,58175.000000
29653.000000,20529.000000,19074.000000,58156.000000
29675.000000,20506.000000,19060.000000,58191.000000
29631.000000,20512.000000,19035.000000,58163.000000
29614.000000,20490.000000,19026.000000,58155.000000
29617.000000,20473.000000,19027.000000,58136.000000
29617.000000,20491.000000,19015.000000,58141.000000
29585.000000,20471.000000,19017.000000,58130.000000
29583.000000,20502.000000,18998.000000,58112.000000
29592.000000,20515.000000,18990.000000,58118.000000
29564.000000,20484.000000,19001.000000,58124.000000
29600.000000,20485.000000,18976.000000,58123.000000
29570.000000,20464.000000,18968.000000,58093.000000
29540.000000,20462.000000,18958.000000,58080.000000
29545.000000,20431.000000,18953.000000,58090.000000
29576.000000,20455.000000,18942.000000,58088.000000
29538.000000,20448.000000,18952.000000,58067.000000
29510.000000,20430.000000,18907.000000,58054.000000
29550.000000,20418.000000,18900.000000,58082.000000
29511.000000,20411.000000,18875.000000,58063.000000
29499.000000,20420.000000,18897.000000,58082.000000
29497.000000,20402.000000,18925.000000,58074.000000
29483.000000,20394.000000,18880.000000,58042.000000
29495.000000,20401.000000,18868.000000,58044.000000
29481.000000,20398.000000,18850.000000,58040.000000
29494.000000,20417.000000,18866.000000,58041.000000
29459.000000,20386.000000,18869.000000,58086.000000
29448.000000,20390.000000,18823.000000,58040.000000
29450.000000,20392.000000,18851.000000,58048.000000
29450.000000,20380.000000,18815.000000,58020.000000
29429.000000,20334.000000,18807.000000,58016.000000
29459.000000,20380.000000,18814.000000,58019.000000
29417.000000,20349.000000,18776.000000,58026.000000
29434.000000,20350.000000,18807.000000,58018.000000
29422.000000,20362.000000,18764.000000,58003.000000
29409.000000,20329.000000,18768.000000,57957.000000
29394.000000,20295.000000,18734.000000,57988.000000
29373.000000,20313.000000,18730.000000,57951.000000
29365.000000,20309.000000,18749.000000,57971.000000
29350.000000,20319.000000,18698.000000,57953.000000
29360.000000,20275.000000,18737.000000,57948.000000
29351.000000,20293.000000,18719.000000,57957.000000
29341.000000,20284.000000,18716.000000,57935.000000
29338.000000,20308.000000,18698.000000,57951.000000
29330.000000,20297.000000,18670.000000,57920.000000
29338.000000,20277.000000,18683.000000,57927.000000
29285.000000,20295.000000,18685.000000,57947.000000
29313.000000,20269.000000,18652.000000,57897.000000
29299.000000,20258.000000,18663.000000,57915.000000
29295.000000,20267.000000,18660.000000,57933.000000
29326.000000,20251.000000,18644.000000,57908.000000
29269.000000,20218.000000,18612.000000,57881.000000
29263.000000,20244.000000,18626.000000,57904.000000
29271.000000,20230.000000,18580.000000,57907.000000
29286.000000,20225.000000,18620.000000,57907.000000
29268.000000,20205.000000,18578.000000,57879.000000
29238.000000,20205.000000,18609.000000,57878.000000
29247.000000,20217.000000,18566.000000,57892.000000
29222.000000,20216.000000,18571.000000,57895.000000
29244.000000,20189.000000,18568.000000,57851.000000
29204.000000,20233.000000,18572.000000,57867.000000
29205.000000,20181.000000,18539.000000,57891.000000
29220.000000,20183.000000,18530.000000,57855.000000
29198.000000,20161.000000,18522.000000,57865.000000
29163.000000,20173.000000,18515.000000,57844.000000
29159.000000,20183.000000,18500.000000,57851.000000
29153.000000,20153.000000,18465.000000,57825.000000
29129.000000,20144.000000,18462.000000,57830.000000
29151.000000,20167.000000,18479.000000,57819.000000
29131.000000,20174.000000,18473.000000,57814.000000
29148.000000,20139.000000,18457.000000,57831.000000
29149.000000,20126.000000,18447.000000,57808.000000
29102.000000,20125.000000,18433.000000,57804.000000
29134.000000,20118.000000,18460.000000,57800.000000
29131.000000,20118.000000,18426.000000,57786.000000
29092.000000,20094.000000,18426.000000,57783.000000
29099.000000,20121.000000,18418.000000,57774.000000
29102.000000,20093.000000,18377.000000,57765.000000
29108.000000,20087.000000,18405.000000,57770.000000
29076.000000,20094.000000,18398.000000,57770.000000
29046.000000,20069.000000,18347.000000,57754.000000
29065.000000,20056.000000,18361.000000,57724.000000
29041.000000,20059.000000,18344.000000,57745.000000
29016.000000,20049.000000,18326.000000,57745.000000
29032.000000,20047.000000,18354.000000,57758.000000
28997.000000,20046.000000,18316.000000,57744.000000
29022.000000,20012.000000,18337.000000,57752.000000
28986.000000,20011.000000,18305.000000,57696.000000
29021.000000,20012.000000,18284.000000,57704.000000
28999.000000,20007.000000,18278.000000,57727.000000
28983.000000,20010.000000,18272.000000,57718.000000
28989.000000,20015.000000,18283.000000,57694.000000
28965.000000,20024.000000,18285.000000,57702.000000
28968.000000,20017.000000,18277.000000,57714.000000
29001.000000,20035.000000,18249.000000,57716.000000
28987.000000,20029.000000,18290.000000,57674.000000
28977.000000,19997.000000,18301.000000,57706.000000
28997.000000,20020.000000,18290.000000,57711.000000
29002.000000,20024.000000,18284.000000,57722.000000
29016.000000,20054.000000,18339.000000,57746.000000
29038.000000,20040.000000,18331.000000,57743.000000
29033.000000,20010.000000,18323.000000,57724.000000
29024.000000,20074.000000,18349.000000,57746.000000
29046.000000,20067.000000,18367.000000,57735.000000
29063.000000,20077.000000,18374.000000,57779.000000
29065.000000,20077.000000,18384.000000,57761.000000
29072.000000,20109.000000,18402.000000,57784.000000
29088.000000,20088.000000,18418.000000,57791.000000
29096.000000,20110.000000,18440.000000,57837.000000
29116.000000,20115.000000,18459.000000,57807.000000
29126.000000,20136.000000,18455.000000,57813.000000
29141.000000,20128.000000,18489.000000,57812.000000
29180.000000,20139.000000,18490.000000,57871.000000
29188.000000,20158.000000,18517.000000,57837.000000
29216.000000,20163.000000,18538.000000,57875.000000
29213.000000,20220.000000,18552.000000,57881.000000
29254.000000,20179.000000,18609.000000,57892.000000
29238.000000,20191.000000,18627.000000,57921.000000
29255.000000,20221.000000,18617.000000,57914.000000
29276.000000,20224.000000,18674.000000,57933.000000
29310.000000,20241.000000,18661.000000,57963.000000
29318.000000,20249.000000,18697.000000,57957.000000
29350.000000,20276.000000,18734.000000,58001.000000
29371.000000,20289.000000,18759.000000,57980.000000
29394.000000,20313.000000,18794.000000,58035.000000
29413.000000,20329.000000,18803.000000,58023.000000
29468.000000,20361.000000,18842.000000,58069.000000
29467.000000,20374.000000,18880.000000,58081.000000
29513.000000,20385.000000,18882.000000,58097.000000
29511.000000,20413.000000,18932.000000,58099.000000
29535.000000,20463.000000,18942.000000,58103.000000
29553.000000,20443.000000,18960.000000,58131.000000
29603.000000,20477.000000,19006.000000,58156.000000
29635.000000,20457.000000,19026.000000,58172.000000
29667.000000,20503.000000,19048.000000,58170.000000
29671.000000,20506.000000,19090.000000,58216.000000
29704.000000,20504.000000,19092.000000,58151.000000
29683.000000,20537.000000,19103.000000,58220.000000
29723.000000,20565.000000,19125.000000,58232.000000
29721.000000,20530.000000,19140.000000,58225.000000
29712.000000,20582.000000,19137.000000,58221.000000
29686.000000,20525.000000,19156.000000,58237.000000
29723.000000,20591.000000,19146.000000,58252.000000
29742.000000,20554.000000,19143.000000,58241.000000
29707.000000,20570.000000,19140.000000,58215.000000
29704.000000,20542.000000,19104.000000,58191.000000
29714.000000,20524.000000,19109.000000,58188.000000
29657.000000,20538.000000,19116.000000,58214.000000
29709.000000,20531.000000,19087.000000,58206.000000
29671.000000,20522.000000,19099.000000,58196.000000
29693.000000,20565.000000,19091.000000,58209.000000
29681.000000,20520.000000,19097.000000,58242.000000
29660.000000,20552.000000,19108.000000,58198.000000
29681.000000,20532.000000,19078.000000,58200.000000
29681.000000,20532.000000,19088.000000,58211.000000
29695.000000,20543.000000,19080.000000,58217.000000
29644.000000,20507.000000,19076.000000,58197.000000
29627.000000,20518.000000,19049.000000,58166.000000
29645.000000,20535.000000,19063.000000,58180.000000
29623.000000,20481.000000,19017.000000,58178.000000
29642.000000,20492.000000,19051.000000,58165.000000
29628.000000,20479.000000,19039.000000,58175.000000
29614.000000,20472.000000,19030.000000,58174.000000
29639.000000,20459.000000,19013.000000,58152.000000
29585.000000,20470.000000,18998.000000,58136.000000
29590.000000,20438.000000,18985.000000,58149.000000
29591.000000,20451.000000,18966.000000,58098.000000
29580.000000,20456.000000,18990.000000,58146.000000
29542.000000,20479.000000,18981.000000,58110.000000
29582.000000,20445.000000,18956.000000,58138.000000
29547.000000,20437.000000,18948.000000,58095.000000
29571.000000,20425.000000,18957.000000,58119.000000
29519.000000,20440.000000,18935.000000,58107.000000
29525.000000,20452.000000,18949.000000,58124.000000
29534.000000,20416.000000,18928.000000,58094.000000
29527.000000,20432.000000,18915.000000,58105.000000
29459.000000,20426.000000,18923.000000,58083.000000
29509.000000,20368.000000,18879.000000,58079.000000
29492.000000,20394.000000,18894.000000,58087.000000
29508.000000,20391.000000,18885.000000,58059.000000
29507.000000,20397.000000,18858.000000,58049.000000
29491.000000,20373.000000,18865.000000,58070.000000
29501.000000,20367.000000,18833.000000,58049.000000
29464.000000,20369.000000,18859.000000,58069.000000
29456.000000,20385.000000,18835.000000,58053.000000
29465.000000,20374.000000,18831.000000,58074.000000
29451.000000,20367.000000,18818.000000,58039.000000
29450.000000,20357.000000,18813.000000,58040.000000
29446.000000,20355.000000,18818.000000,58027.000000
29464.000000,20353.000000,18834.000000,58030.000000
29412.000000,20354.000000,18805.000000,58006.000000
29420.000000,20320.000000,18787.000000,58017.000000
29397.000000,20318.000000,18778.000000,58003.000000
29409.000000,20340.000000,18778.000000,57995.000000
29390.000000,20311.000000,18760.000000,58023.000000
29394.000000,20317.000000,18766.000000,57992.000000
29388.000000,20326.000000,18744.000000,57993.000000
29390.000000,20295.000000,18746.000000,58015.000000
29367.000000,20289.000000,18735.000000,57994.000000
29372.000000,20272.000000,18716.000000,57961.000000
29370.000000,20288.000000,18737.000000,57981.000000
29323.000000,20284.000000,18704.000000,57952.000000
29360.000000,20286.000000,18707.000000,57978.000000
29367.000000,20301.000000,18702.000000,57987.000000
29367.000000,20280.000000,18693.000000,57931.000000
29339.000000,20270.000000,18685.000000,57966.000000
29337.000000,20281.000000,18662.000000,57962.000000
29341.000000,20297.000000,18666.000000,57964.000000
29342.000000,20297.000000,18686.000000,57952.000000
29305.000000,20228.000000,18644.000000,57926.000000
29296.000000,20231.000000,18620.000000,57917.000000
29291.000000,20242.000000,18641.000000,57906.000000
29292.000000,20212.000000,18616.000000,57902.000000
29289.000000,20244.000000,18625.000000,57923.000000
29274.000000,20185.000000,18623.000000,57903.000000
29258.000000,20218.000000,18622.000000,57904.000000
29235.000000,20194.000000,18580.000000,57882.000000
29268.000000,20195.000000,18573.000000,57879.000000
29236.000000,20211.000000,18576.000000,57886.000000
29246.000000,20155.000000,18571.000000,57877.000000
29235.000000,20197.000000,18561.000000,57861.000000
29228.000000,20194.000000,18570.000000,57857.000000
29191.000000,20167.000000,18558.000000,57882.000000
29216.000000,20185.000000,18544.000000,57862.000000
29198.000000,20159.000000,18555.000000,57873.000000
29208.000000,20162.000000,18485.000000,57867.000000
29176.000000,20124.000000,18503.000000,57841.000000
29200.000000,20146.000000,18496.000000,57815.000000
29183.000000,20169.000000,18487.000000,57839.000000
29156.000000,20148.000000,18515.000000,57845.000000
29157.000000,20134.000000,18498.000000,57845.000000
29123.000000,20147.000000,18466.000000,57836.000000
29185.000000,20104.000000,18497.000000,57807.000000
29140.000000,20137.000000,18470.000000,57800.000000
29138.000000,20126.000000,18478.000000,57824.000000
29140.000000,20136.000000,18446.000000,57809.000000
29111.000000,20084.000000,18434.000000,57810.000000
29125.000000,20101.000000,18436.000000,57794.000000
29102.000000,20086.000000,18414.000000,57768.000000
29100.000000,20093.000000,18444.000000,57827.000000
29118.000000,20102.000000,18406.000000,57778.000000
29090.000000,20088.000000,18375.000000,57787.000000
29089.000000,20064.000000,18379.000000,57766.000000
29051.000000,20061.000000,18374.000000,57760.000000
29054.000000,20076.000000,18379.000000,57805.000000
29081.000000,20054.000000,18361.000000,57772.000000
29058.000000,20061.000000,18348.000000,57766.000000
29037.000000,20039.000000,18344.000000,57769.000000
29049.000000,20027.000000,18359.000000,57737.000000
29019.000000,20071.000000,18352.000000,57754.000000
29034.000000,20063.000000,18363.000000,57755.000000
29033.000000,20067.000000,18354.000000,57748.000000
29057.000000,20069.000000,18391.000000,57781.000000
29052.000000,20060.000000,18375.000000,57749.000000
29043.000000,20070.000000,18375.000000,57787.000000
29035.000000,20043.000000,18371.000000,57755.000000
29065.000000,20056.000000,18363.000000,57781.000000
29084.000000,20067.000000,18398.000000,57770.000000
29130.000000,20070.000000,18409.000000,57804.000000
29099.000000,20060.000000,18410.000000,57808.000000
29077.000000,20107.000000,18408.000000,57812.000000
29105.000000,20075.000000,18446.000000,57809.000000
29142.000000,20134.000000,18466.000000,57820.000000
29137.000000,20133.000000,18493.000000,57846.000000
29146.000000,20126.000000,18475.000000,57857.000000
29171.000000,20148.000000,18515.000000,57882.000000
29188.000000,20126.000000,18496.000000,57820.000000
29152.000000,20163.000000,18517.000000,57867.000000
29202.000000,20144.000000,18545.000000,57860.000000
29197.000000,20169.000000,18564.000000,57878.000000
29240.000000,20189.000000,18570.000000,57900.000000
29264.000000,20186.000000,18613.000000,57920.000000
29226.000000,20204.000000,18618.000000,57927.000000
29247.000000,20249.000000,18608.000000,57911.000000
29328.000000,20235.000000,18674.000000,57939.000000
29318.000000,20261.000000,18690.000000,57963.000000
29307.000000,20242.000000,18710.000000,58007.000000
29351.000000,20260.000000,18702.000000,57999.000000
29376.000000,20290.000000,18759.000000,58013.000000
29356.000000,20278.000000,18756.000000,57994.000000
29358.000000,20304.000000,18788.000000,58043.000000
29401.000000,20311.000000,18783.000000,58034.000000
29407.000000,20318.000000,18817.000000,58073.000000
29440.000000,20349.000000,18847.000000,58066.000000
29441.000000,20363.000000,18863.000000,58072.000000
29482.000000,20397.000000,18893.000000,58096.000000
29527.000000,20407.000000,18908.000000,58100.000000
29509.000000,20403.000000,18930.000000,58116.000000
29544.000000,20436.000000,18948.000000,58132.000000
29559.000000,20430.000000,18952.000000,58133.000000
29575.000000,20466.000000,18998.000000,58176.000000
29583.000000,20448.000000,19009.000000,58150.000000
29591.000000,20473.000000,19001.000000,58160.000000
29593.000000,20484.000000,19019.000000,58157.000000
29601.000000,20496.000000,19017.000000,58167.000000
29600.000000,20453.000000,19039.000000,58161.000000
29601.000000,20479.000000,19016.000000,58157.000000
29607.000000,20468.000000,19011.000000,58164.000000
29572.000000,20472.000000,19002.000000,58144.000000
29552.000000,20461.000000,18998.000000,58133.000000
29549.000000,20441.000000,18978.000000,58146.000000
29579.000000,20484.000000,18947.000000,58148.000000
29551.000000,20429.000000,18973.000000,58165.000000
29549.000000,20450.000000,18949.000000,58122.000000
29537.000000,20422.000000,18957.000000,58119.000000
29501.000000,20429.000000,18966.000000,58136.000000
29507.000000,20435.000000,18937.000000,58096.000000
29496.000000,20426.000000,18935.000000,58112.000000
29519.000000,20428.000000,18933.000000,58106.000000
29478.000000,20432.000000,18895.000000,58117.000000
29499.000000,20421.000000,18877.000000,58107.000000
29465.000000,20398.000000,18892.000000,58071.000000
29457.000000,20374.000000,18885.000000,58098.000000
29469.000000,20403.000000,18874.000000,58104.000000
29458.000000,20363.000000,18865.000000,58081.000000
29449.000000,20378.000000,18873.000000,58059.000000
29446.000000,20376.000000,18869.000000,58044.000000
29446.000000,20348.000000,18825.000000,58074.000000
29427.000000,20360.000000,18840.000000,58068.000000
29445.000000,20334.000000,18827.000000,58075.000000
29431.000000,20335.000000,18845.000000,58083.000000
29450.000000,20328.000000,18799.000000,58031.000000
29401.000000,20310.000000,18800.000000,58035.000000
29387.000000,20343.000000,18801.000000,58030.000000
29415.000000,20318.000000,18788.000000,58021.000000
29393.000000,20307.000000,18756.000000,58008.000000
29379.000000,20324.000000,18755.000000,58030.000000
29354.000000,20301.000000,18726.000000,58024.000000
29366.000000,20313.000000,18745.000000,57995.000000
29355.000000,20309.000000,18737.000000,57993.000000
29339.000000,20264.000000,18729.000000,58008.000000
29329.000000,20291.000000,18710.000000,57977.000000
29356.000000,20269.000000,18714.000000,57971.000000
29311.000000,20273.000000,18704.000000,57973.000000
29291.000000,20257.000000,18684.000000,57984.000000
29294.000000,20243.000000,18706.000000,57967.000000
29296.000000,20295.000000,18699.000000,57985.000000
29385.000000,20247.000000,18679.000000,57960.000000
29300.000000,20218.000000,18669.000000,57954.000000
29296.000000,20234.000000,18668.000000,57946.000000
29250.000000,20233.000000,18660.000000,57950.000000
29306.000000,20215.000000,18656.000000,57961.000000
29259.000000,20239.000000,18663.000000,57907.000000
29290.000000,20219.000000,18633.000000,57937.000000
29280.000000,20215.000000,18604.000000,57926.000000
29270.000000,20219.000000,18641.000000,57926.000000
29249.000000,20192.000000,18610.000000,57897.000000
29259.000000,20221.000000,18617.000000,57930.000000
29256.000000,20214.000000,18599.000000,57921.000000
29235.000000,20195.000000,18585.000000,57905.000000
29265.000000,20205.000000,18614.000000,57936.000000
29237.000000,20193.000000,18567.000000,57898.000000
29241.000000,20169.000000,18570.000000,57906.000000
29215.000000,20170.000000,18579.000000,57918.000000
29210.000000,20160.000000,18549.000000,57871.000000
29169.000000,20163.000000,18559.000000,57877.000000
29171.000000,20140.000000,18544.000000,57848.000000
29163.000000,20205.000000,18511.000000,57873.000000
29170.000000,20149.000000,18525.000000,57885.000000
29163.000000,20131.000000,18532.000000,57894.000000
29141.000000,20140.000000,18549.000000,57864.000000
29138.000000,20133.000000,18486.000000,57862.000000
29160.000000,20148.000000,18476.000000,57857.000000
29140.000000,20110.000000,18505.000000,57844.000000
29140.000000,20118.000000,18471.000000,57822.000000
29145.000000,20127.000000,18482.000000,57853.000000
29121.000000,20123.000000,18468.000000,57839.000000
29130.000000,20141.000000,18473.000000,57824.000000
29124.000000,20126.000000,18461.000000,57834.000000
29108.000000,20089.000000,18459.000000,57840.000000
29105.000000,20108.000000,18448.000000,57822.000000
29103.000000,20106.000000,18419.000000,57817.000000
29084.000000,20083.000000,18418.000000,57808.000000
29074.000000,20077.000000,18417.000000,57830.000000
29056.000000,20077.000000,18381.000000,57818.000000
29026.000000,20051.000000,18393.000000,57793.000000
29026.000000,20080.000000,18348.000000,57813.000000
29032.000000,20051.000000,18374.000000,57780.000000
29036.000000,20030.000000,18385.000000,57779.000000
29052.000000,20026.000000,18363.000000,57791.000000
29030.000000,20031.000000,18372.000000,57792.000000
29003.000000,20010.000000,18357.000000,57750.000000
29020.000000,20012.000000,18359.000000,57753.000000
29019.000000,20018.000000,18343.000000,57792.000000
29059.000000,20057.000000,18376.000000,57774.000000
28994.000000,20017.000000,18376.000000,57760.000000
28989.000000,20053.000000,18367.000000,57765.000000
29026.000000,20038.000000,18377.000000,57807.000000
29013.000000,20039.000000,18365.000000,57778.000000
29032.000000,20041.000000,18377.000000,57791.000000
29021.000000,20075.000000,18401.000000,57801.000000
29052.000000,20054.000000,18405.000000,57791.000000
29055.000000,20084.000000,18395.000000,57832.000000
29069.000000,20082.000000,18436.000000,57797.000000
29083.000000,20083.000000,18456.000000,57846.000000
29099.000000,20109.000000,18471.000000,57833.000000
29075.000000,20110.000000,18485.000000,57844.000000
29143.000000,20115.000000,18502.000000,57848.000000
29139.000000,20109.000000,18516.000000,57873.000000
29157.000000,20123.000000,18516.000000,57898.000000
29168.000000,20181.000000,18543.000000,57896.000000
29188.000000,20147.000000,18532.000000,57890.000000
29182.000000,20140.000000,18562.000000,57918.000000
29187.000000,20171.000000,18571.000000,57907.000000
29215.000000,20173.000000,18592.000000,57915.000000
29239.000000,20201.000000,18638.000000,57983.000000
29246.000000,20218.000000,18656.000000,57943.000000
29268.000000,20235.000000,18676.000000,57968.000000
29308.000000,20241.000000,18689.000000,57989.000000
29312.000000,20254.000000,18693.000000,58003.000000
29317.000000,20302.000000,18713.000000,58000.000000
29356.000000,20312.000000,18756.000000,58030.000000
29384.000000,20320.000000,18814.000000,58055.000000
29412.000000,20313.000000,18822.000000,58076.000000
29396.000000,20344.000000,18850.000000,58035.000000
29454.000000,20364.000000,18870.000000,58102.000000
29474.000000,20394.000000,18908.000000,58115.000000
29495.000000,20396.000000,18959.000000,58125.000000
29542.000000,20405.000000,18955.000000,58156.000000
29541.000000,20415.000000,18971.000000,58163.000000
29565.000000,20416.000000,19021.000000,58198.000000
29588.000000,20465.000000,19013.000000,58192.000000
29611.000000,20469.000000,19036.000000,58205.000000
29615.000000,20505.000000,19071.000000,58207.000000
29644.000000,20476.000000,19089.000000,58230.000000
29665.000000,20518.000000,19118.000000,58243.000000
29671.000000,20491.000000,19111.000000,58211.000000
29664.000000,20495.000000,19114.000000,58223.000000
29678.000000,20538.000000,19144.000000,58244.000000
29687.000000,20535.000000,19159.000000,58252.000000
29693.000000,20504.000000,19142.000000,58261.000000
29665.000000,20575.000000,19154.000000,58244.000000
29623.000000,20512.000000,19092.000000,58211.000000
29655.000000,20521.000000,19086.000000,58240.000000
29672.000000,20496.000000,19094.000000,58228.000000
29638.000000,20513.000000,19090.000000,58218.000000
29630.000000,20493.000000,19076.000000,58236.000000
29657.000000,20508.000000,19080.000000,58198.000000
29608.000000,20502.000000,19092.000000,58199.000000
29622.000000,20493.000000,19039.000000,58189.000000
29621.000000,20466.000000,19077.000000,58191.000000
29602.000000,20490.000000,19041.000000,58208.000000
29604.000000,20457.000000,19033.000000,58181.000000
29573.000000,20447.000000,19045.000000,58223.000000
29576.000000,20483.000000,19002.000000,58173.000000
29584.000000,20445.000000,19025.000000,58166.000000
29571.000000,20469.000000,19029.000000,58183.000000
29570.000000,20442.000000,18998.000000,58167.000000
29566.000000,20434.000000,19000.000000,58183.000000
29588.000000,20429.000000,18994.000000,58158.000000
29543.000000,20452.000000,18981.000000,58172.000000
29541.000000,20418.000000,18982.000000,58154.000000
29562.000000,20401.000000,18963.000000,58138.000000
29556.000000,20418.000000,18982.000000,58133.000000
29513.000000,20407.000000,18938.000000,58144.000000
29554.000000,20410.000000,18956.000000,58120.000000
29528.000000,20395.000000,18935.000000,58119.000000
29524.000000,20412.000000,18908.000000,58109.000000
29547.000000,20395.000000,18930.000000,58116.000000
29479.000000,20383.000000,18890.000000,58130.000000
29484.000000,20419.000000,18929.000000,58088.000000
29492.000000,20367.000000,18906.000000,58097.000000
29467.000000,20380.000000,18872.000000,58080.000000
29468.000000,20369.000000,18895.000000,58089.000000
29478.000000,20350.000000,18890.000000,58084.000000
29428.000000,20356.000000,18852.000000,58110.000000
29469.000000,20342.000000,18861.000000,58065.000000
29429.000000,20348.000000,18848.000000,58071.000000
29445.000000,20367.000000,18837.000000,58091.000000
29437.000000,20332.000000,18840.000000,58060.000000
29410.000000,20340.000000,18856.000000,58076.000000
29393.000000,20338.000000,18845.000000,58056.000000
29418.000000,20330.000000,18815.000000,58029.000000
29419.000000,20328.000000,18804.000000,58054.000000
29383.000000,20288.000000,18797.000000,58033.000000
29393.000000,20289.000000,18785.000000,58037.000000
29378.000000,20308.000000,18791.000000,58017.000000
29386.000000,20285.000000,18777.000000,58026.000000
29366.000000,20283.000000,18740.000000,58030.000000
29353.000000,20290.000000,18739.000000,58025.000000
29363.000000,20266.000000,18762.000000,58041.000000
29349.000000,20291.000000,18732.000000,57996.000000
29336.000000,20260.000000,18736.000000,58016.000000
29342.000000,20308.000000,18728.000000,58007.000000
29313.000000,20271.000000,18695.000000,58004.000000
29309.000000,20246.000000,18702.000000,57975.000000
29307.000000,20252.000000,18682.000000,58014.000000
29317.000000,20237.000000,18713.000000,58004.000000
29315.000000,20245.000000,18666.000000,57982.000000
29272.000000,20244.000000,18673.000000,57967.000000
29294.000000,20239.000000,18685.000000,57978.000000
29284.000000,20216.000000,18646.000000,57950.000000
29280.000000,20233.000000,18628.000000,57940.000000
29270.000000,20213.000000,18642.000000,57959.000000
29257.000000,20198.000000,18611.000000,57945.000000
29256.000000,20210.000000,18609.000000,57954.000000
29228.000000,20189.000000,18583.000000,57920.000000
29228.000000,20219.000000,18613.000000,57961.000000
29221.000000,20237.000000,18609.000000,57940.000000
29216.000000,20157.000000,18592.000000,57919.000000
29246.000000,20195.000000,18580.000000,57932.000000
29227.000000,20170.000000,18564.000000,57946.000000
29188.000000,20178.000000,18576.000000,57912.000000
29212.000000,20202.000000,18597.000000,57900.000000
29169.000000,20137.000000,18577.000000,57908.000000
29208.000000,20164.000000,18540.000000,57930.000000
29211.000000,20161.000000,18550.000000,57903.000000
29161.000000,20155.000000,18513.000000,57898.000000
29206.000000,20142.000000,18543.000000,57914.000000
29155.000000,20146.000000,18539.000000,57889.000000
29148.000000,20131.000000,18525.000000,57870.000000
29152.000000,20101.000000,18513.000000,57873.000000
29140.000000,20099.000000,18501.000000,57876.000000
29120.000000,20108.000000,18470.000000,57853.000000
29162.000000,20111.000000,18488.000000,57880.000000
29137.000000,20096.000000,18476.000000,57881.000000
29153.000000,20105.000000,18505.000000,57866.000000
29106.000000,20122.000000,18453.000000,57895.000000
29102.000000,20077.000000,18427.000000,57840.000000
29086.000000,20068.000000,18468.000000,57836.000000
29068.000000,20062.000000,18434.000000,57831.000000
29060.000000,20061.000000,18429.000000,57834.000000
29090.000000,20087.000000,18426.000000,57834.000000
29072.000000,20076.000000,18405.000000,57798.000000
29057.000000,20055.000000,18415.000000,57818.000000
29059.000000,20085.000000,18394.000000,57846.000000
29030.000000,20038.000000,18392.000000,57810.000000
29051.000000,20034.000000,18384.000000,57795.000000
29019.000000,20043.000000,18382.000000,57783.000000
29027.000000,20032.000000,18374.000000,57816.000000
29021.000000,20064.000000,18403.000000,57790.000000
29038.000000,20065.000000,18366.000000,57800.000000
29017.000000,20064.000000,18383.000000,57805.000000
29019.000000,20011.000000,18384.000000,57792.000000
29054.000000,20034.000000,18379.000000,57794.000000
29047.000000,20051.000000,18403.000000,57809.000000
29048.000000,20058.000000,18412.000000,57841.000000
29044.000000,20069.000000,18420.000000,57828.000000
29063.000000,20043.000000,18443.000000,57841.000000
29054.000000,20085.000000,18431.000000,57838.000000
29067.000000,20099.000000,18448.000000,57847.000000
29064.000000,20079.000000,18456.000000,57848.000000
29080.000000,20099.000000,18483.000000,57861.000000
29154.000000,20086.000000,18491.000000,57852.000000
29117.000000,20143.000000,18516.000000,57888.000000
29123.000000,20122.000000,18500.000000,57918.000000
29126.000000,20126.000000,18521.000000,57884.000000
29133.000000,20153.000000,18539.000000,57905.000000
29145.000000,20135.000000,18544.000000,57914.000000
29189.000000,20169.000000,18568.000000,57939.000000
29192.000000,20172.000000,18613.000000,57945.000000
29219.000000,20170.000000,18596.000000,57935.000000
29229.000000,20192.000000,18642.000000,57973.000000
29241.000000,20193.000000,18657.000000,57971.000000
29252.000000,20214.000000,18664.000000,57998.000000
29297.000000,20217.000000,18713.000000,57989.000000
29306.000000,20255.000000,18773.000000,58029.000000
29346.000000,20298.000000,18820.000000,58067.000000
29388.000000,20324.000000,18837.000000,58068.000000
29440.000000,20335.000000,18880.000000,58070.000000
29429.000000,20360.000000,18883.000000,58146.000000
29517.000000,20412.000000,18947.000000,58185.000000
29547.000000,20417.000000,18997.000000,58173.000000
29616.000000,20472.000000,19100.000000,58244.000000
29641.000000,20493.000000,19110.000000,58229.000000
29657.000000,20548.000000,19144.000000,58298.000000
29696.000000,20576.000000,19204.000000,58284.000000
29682.000000,20552.000000,19154.000000,58289.000000
29729.000000,20538.000000,19186.000000,58299.000000
29667.000000,20546.000000,19166.000000,58317.000000
29665.000000,20538.000000,19176.000000,58274.000000
29662.000000,20531.000000,19153.000000,58281.000000
29645.000000,20508.000000,19113.000000,58250.000000
29623.000000,20472.000000,19089.000000,58230.000000
29630.000000,20483.000000,19121.000000,58242.000000
29604.000000,20483.000000,19090.000000,58196.000000
29620.000000,20506.000000,19094.000000,58218.000000
29587.000000,20451.000000,19050.000000,58198.000000
29574.000000,20437.000000,19025.000000,58205.000000
29568.000000,20447.000000,19024.000000,58193.000000
29540.000000,20420.000000,18997.000000,58178.000000
29549.000000,20408.000000,18991.000000,58186.000000
29543.000000,20401.000000,18956.000000,58134.000000
29509.000000,20434.000000,18981.000000,58143.000000
29539.000000,20418.000000,18963.000000,58134.000000
29478.000000,20382.000000,18912.000000,58152.000000
29498.000000,20305.000000,18931.000000,58124.000000
29509.000000,20385.000000,18911.000000,58138.000000
29451.000000,20348.000000,18865.000000,58102.000000
29415.000000,20305.000000,18830.000000,58054.000000
29422.000000,20346.000000,18850.000000,58079.000000
29391.000000,20321.000000,18836.000000,58051.000000
29383.000000,20316.000000,18797.000000,58062.000000
29354.000000,20282.000000,18765.000000,58028.000000
29346.000000,20308.000000,18779.000000,58032.000000
29354.000000,20277.000000,18733.000000,58032.000000
29369.000000,20273.000000,18756.000000,58032.000000
29324.000000,20278.000000,18745.000000,58002.000000
29298.000000,20242.000000,18712.000000,58014.000000
29309.000000,20237.000000,18704.000000,57996.000000
29300.000000,20243.000000,18702.000000,57999.000000
29304.000000,20228.000000,18684.000000,57998.000000
29295.000000,20217.000000,18703.000000,57985.000000
29273.000000,20202.000000,18651.000000,57981.000000
29270.000000,20188.000000,18663.000000,57982.000000
29261.000000,20176.000000,18628.000000,57946.000000
29223.000000,20186.000000,18621.000000,57957.000000
29239.000000,20219.000000,18628.000000,57971.000000
29190.000000,20155.000000,18572.000000,57942.000000
29203.000000,20140.000000,18597.000000,57931.000000
29191.000000,20122.000000,18564.000000,57920.000000
29204.000000,20147.000000,18550.000000,57918.000000
29162.000000,20152.000000,18558.000000,57899.000000
29187.000000,20124.000000,18546.000000,57891.000000
29161.000000,20117.000000,18523.000000,57880.000000
29153.000000,20144.000000,18519.000000,57892.000000
29129.000000,20074.000000,18480.000000,57898.000000
29139.000000,20128.000000,18494.000000,57883.000000
29086.000000,20115.000000,18505.000000,57837.000000
29127.000000,20056.000000,18468.000000,57851.000000
29074.000000,20091.000000,18490.000000,57868.000000
29095.000000,20060.000000,18476.000000,57853.000000
29103.000000,20070.000000,18462.000000,57878.000000
29101.000000,20084.000000,18473.000000,57892.000000
29194.000000,20092.000000,18514.000000,57897.000000
29136.000000,20086.000000,18514.000000,57887.000000
29157.000000,20118.000000,18547.000000,57931.000000
29188.000000,20123.000000,18585.000000,57952.000000
29216.000000,20164.000000,18609.000000,57954.000000
29236.000000,20163.000000,18681.000000,57971.000000
29267.000000,20200.000000,18683.000000,58008.000000
29287.000000,20219.000000,18707.000000,58003.000000
29264.000000,20204.000000,18697.000000,58008.000000
29334.000000,20235.000000,18735.000000,58052.000000
29318.000000,20263.000000,18783.000000,58036.000000
29374.000000,20282.000000,18809.000000,58094.000000
29444.000000,20342.000000,18898.000000,58137.000000
29474.000000,20352.000000,18920.000000,58148.000000
29506.000000,20391.000000,18979.000000,58169.000000
29606.000000,20467.000000,19062.000000,58240.000000
29612.000000,20476.000000,19087.000000,58259.000000
29593.000000,20460.000000,19112.000000,58245.000000
29631.000000,20469.000000,19137.000000,58236.000000
29619.000000,20474.000000,19078.000000,58268.000000
29610.000000,20469.000000,19068.000000,58233.000000
29591.000000,20441.000000,19106.000000,58223.000000
29569.000000,20434.000000,19036.000000,58225.000000
29560.000000,20417.000000,19026.000000,58218.000000
29547.000000,20433.000000,19017.000000,58218.000000
29513.000000,20424.000000,18993.000000,58206.000000
29529.000000,20401.000000,19019.000000,58206.000000
29518.000000,20387.000000,18983.000000,58165.000000
29478.000000,20416.000000,18968.000000,58177.000000
29486.000000,20365.000000,18950.000000,58153.000000
29488.000000,20394.000000,18950.000000,58150.000000
29490.000000,20360.000000,18962.000000,58146.000000
29441.000000,20348.000000,18884.000000,58117.000000
29462.000000,20333.000000,18901.000000,58148.000000
29441.000000,20310.000000,18868.000000,58107.000000
29412.000000,20331.000000,18893.000000,58082.000000
29405.000000,20299.000000,18844.000000,58077.000000
29408.000000,20310.000000,18845.000000,58075.000000
29406.000000,20281.000000,18804.000000,58106.000000
29331.000000,20272.000000,18788.000000,58090.000000
29316.000000,20278.000000,18777.000000,58049.000000
29329.000000,20247.000000,18783.000000,58048.000000
29311.000000,20215.000000,18759.000000,58046.000000
29311.000000,20225.000000,18736.000000,58033.000000
29296.000000,20232.000000,18733.000000,58032.000000
29312.000000,20213.000000,18713.000000,58033.000000
29249.000000,20208.000000,18683.000000,57976.000000
29227.000000,20195.000000,18650.000000,57986.000000
29264.000000,20187.000000,18628.000000,57979.000000
29214.000000,20171.000000,18617.000000,57971.000000
29206.000000,20168.000000,18644.000000,57969.000000
29225.000000,20173.000000,18583.000000,57959.000000
29213.000000,20171.000000,18598.000000,57933.000000
29168.000000,20146.000000,18535.000000,57925.000000
29178.000000,20145.000000,18583.000000,57943.000000
29166.000000,20118.000000,18559.000000,57923.000000
29178.000000,20131.000000,18535.000000,57902.000000
29148.000000,20122.000000,18565.000000,57932.000000
29137.000000,20106.000000,18509.000000,57879.000000
29120.000000,20078.000000,18490.000000,57893.000000
29107.000000,20085.000000,18484.000000,57873.000000
29102.000000,20086.000000,18467.000000,57863.000000
29098.000000,20084.000000,18479.000000,57903.000000
29110.000000,20078.000000,18479.000000,57865.000000
29063.000000,20025.000000,18413.000000,57837.000000
29047.000000,20025.000000,18428.000000,57859.000000
29047.000000,20035.000000,18408.000000,57859.000000
29043.000000,20008.000000,18394.000000,57854.000000
29018.000000,20014.000000,18381.000000,57830.000000
29011.000000,20000.000000,18391.000000,57828.000000
29016.000000,20019.000000,18401.000000,57827.000000
29034.000000,20023.000000,18404.000000,57844.000000
29054.000000,20017.000000,18427.000000,57850.000000
29055.000000,20035.000000,18388.000000,57869.000000
29071.000000,20026.000000,18448.000000,57878.000000
29106.000000,20073.000000,18499.000000,57862.000000
29122.000000,20059.000000,18480.000000,57896.000000
29123.000000,20084.000000,18513.000000,57926.000000
29132.000000,20092.000000,18519.000000,57916.000000
29161.000000,20103.000000,18541.000000,57940.000000
29185.000000,20152.000000,18580.000000,57944.000000
29203.000000,20145.000000,18609.000000,57992.000000
29226.000000,20161.000000,18600.000000,57953.000000
29231.000000,20152.000000,18635.000000,57979.000000
29285.000000,20174.000000,18651.000000,58002.000000
29275.000000,20199.000000,18697.000000,58038.000000
29343.000000,20243.000000,18769.000000,58082.000000
29342.000000,20269.000000,18776.000000,58075.000000
29426.000000,20266.000000,18816.000000,58101.000000
29363.000000,20265.000000,18831.000000,58109.000000
29431.000000,20336.000000,18866.000000,58108.000000
29481.000000,20348.000000,18937.000000,58171.000000
29504.000000,20375.000000,18980.000000,58180.000000
29548.000000,20380.000000,19041.000000,58219.000000
29574.000000,20458.000000,19010.000000,58226.000000
29615.000000,20444.000000,19087.000000,58264.000000
29658.000000,20446.000000,19110.000000,58275.000000
29700.000000,20475.000000,19136.000000,58263.000000
29659.000000,20501.000000,19105.000000,58272.000000
29630.000000,20517.000000,19134.000000,58277.000000
29643.000000,20495.000000,19107.000000,58275.000000
29667.000000,20484.000000,19111.000000,58286.000000
29620.000000,20440.000000,19105.000000,58276.000000
29636.000000,20444.000000,19099.000000,58259.000000
29615.000000,20424.000000,19071.000000,58230.000000
29598.000000,20430.000000,19064.000000,58233.000000
29567.000000,20407.000000,19035.000000,58239.000000
29616.000000,20420.000000,19004.000000,58206.000000
29537.000000,20385.000000,19000.000000,58207.000000
29559.000000,20393.000000,19012.000000,58213.000000
29543.000000,20368.000000,18990.000000,58188.000000
29565.000000,20406.000000,18989.000000,58194.000000
29499.000000,20388.000000,18974.000000,58193.000000
29540.000000,20364.000000,18957.000000,58166.000000
29508.000000,20382.000000,18974.000000,58176.000000
29487.000000,20365.000000,18917.000000,58172.000000
29517.000000,20354.000000,18924.000000,58192.000000
29502.000000,20384.000000,18938.000000,58175.000000
29543.000000,20377.000000,18929.000000,58170.000000
29483.000000,20300.000000,18897.000000,58135.000000
29476.000000,20327.000000,18912.000000,58172.000000
29477.000000,20351.000000,18903.000000,58146.000000
29445.000000,20335.000000,18896.000000,58143.000000
29472.000000,20328.000000,18907.000000,58138.000000
29474.000000,20343.000000,18912.000000,58134.000000
29458.000000,20319.000000,18875.000000,58146.000000
29437.000000,20338.000000,18859.000000,58124.000000
29445.000000,20304.000000,18865.000000,58102.000000
29455.000000,20295.000000,18863.000000,58128.000000
29427.000000,20330.000000,18859.000000,58100.000000
29396.000000,20333.000000,18831.000000,58105.000000
29413.000000,20314.000000,18792.000000,58099.000000
29407.000000,20308.000000,18810.000000,58113.000000
29387.000000,20286.000000,18808.000000,58071.000000
29449.000000,20295.000000,18809.000000,58094.000000
29404.000000,20248.000000,18805.000000,58067.000000
29404.000000,20288.000000,18770.000000,58039.000000
29384.000000,20281.000000,18791.000000,58087.000000
29394.000000,20277.000000,18770.000000,58077.000000
29354.000000,20293.000000,18743.000000,58085.000000
29361.000000,20260.000000,18763.000000,58068.000000
29339.000000,20255.000000,18733.000000,58059.000000
29339.000000,20221.000000,18727.000000,58063.000000
29339.000000,20261.000000,18729.000000,58036.000000
29342.000000,20261.000000,18731.000000,58043.000000
29330.000000,20237.000000,18726.000000,58043.000000
29339.000000,20236.000000,18712.000000,58031.000000
29322.000000,20225.000000,18697.000000,58026.000000
29331.000000,20211.000000,18707.000000,58037.000000
29302.000000,20216.000000,18687.000000,57999.000000
29301.000000,20180.000000,18662.000000,58010.000000
29294.000000,20197.000000,18663.000000,57979.000000
29284.000000,20190.000000,18645.000000,57996.000000
29288.000000,20164.000000,18636.000000,57990.000000
29314.000000,20184.000000,18655.000000,58014.000000
29294.000000,20138.000000,18644.000000,57974.000000
29280.000000,20175.000000,18636.000000,58014.000000
29296.000000,20168.000000,18622.000000,57980.000000
29274.000000,20169.000000,18620.000000,57987.000000
29272.000000,20170.000000,18610.000000,57973.000000
29237.000000,20152.000000,18607.000000,57960.000000
29239.000000,20147.000000,18588.000000,57961.000000
29271.000000,20145.000000,18560.000000,57976.000000
29209.000000,20145.000000,18582.000000,57962.000000
29209.000000,20126.000000,18560.000000,57948.000000
29234.000000,20116.000000,18565.000000,57956.000000
29199.000000,20135.000000,18557.000000,57957.000000
29202.000000,20110.000000,18527.000000,57930.000000
29190.000000,20086.000000,18537.000000,57944.000000
29176.000000,20078.000000,18545.000000,57905.000000
29167.000000,20075.000000,18513.000000,57914.000000
29192.000000,20118.000000,18494.000000,57922.000000
29200.000000,20104.000000,18506.000000,57903.000000
29194.000000,20080.000000,18483.000000,57917.000000
29139.000000,20084.000000,18480.000000,57897.000000
29162.000000,20049.000000,18448.000000,57914.000000
29136.000000,20047.000000,18493.000000,57926.000000
29153.000000,20086.000000,18469.000000,57887.000000
29122.000000,20053.000000,18451.000000,57891.000000
29124.000000,20059.000000,18449.000000,57885.000000
29138.000000,20040.000000,18432.000000,57873.000000
29109.000000,20029.000000,18421.000000,57866.000000
29102.000000,20044.000000,18429.000000,57878.000000
29107.000000,20034.000000,18422.000000,57862.000000
29076.000000,20042.000000,18406.000000,57893.000000
29094.000000,20030.000000,18424.000000,57845.000000
29093.000000,20015.000000,18418.000000,57890.000000
29057.000000,20013.000000,18408.000000,57871.000000
29034.000000,20018.000000,18410.000000,57841.000000
29023.000000,19977.000000,18408.000000,57853.000000
29038.000000,19986.000000,18373.000000,57828.000000
29050.000000,20002.000000,18370.000000,57814.000000
29020.000000,19997.000000,18381.000000,57847.000000
29040.000000,19987.000000,18378.000000,57850.000000
29022.000000,19947.000000,18375.000000,57833.000000
29041.000000,19978.000000,18340.000000,57839.000000
29002.000000,19983.000000,18316.000000,57814.000000
28979.000000,19959.000000,18349.000000,57805.000000
29010.000000,19995.000000,18347.000000,57814.000000
28994.000000,19968.000000,18361.000000,57828.000000
28975.000000,19969.000000,18355.000000,57819.000000
29004.000000,19988.000000,18341.000000,57815.000000
29004.000000,19994.000000,18357.000000,57818.000000
28979.000000,19970.000000,18329.000000,57836.000000
29011.000000,19983.000000,18366.000000,57827.000000
29036.000000,19953.000000,18362.000000,57814.000000
29013.000000,19963.000000,18367.000000,57823.000000
29043.000000,19979.000000,18379.000000,57841.000000
29039.000000,19968.000000,18396.000000,57858.000000
29036.000000,20034.000000,18418.000000,57865.000000
29060.000000,20013.000000,18375.000000,57873.000000
29088.000000,20030.000000,18437.000000,57893.000000
29133.000000,20042.000000,18469.000000,57908.000000
29101.000000,20036.000000,18457.000000,57925.000000
29115.000000,20071.000000,18517.000000,57933.000000
29135.000000,20048.000000,18470.000000,57921.000000
29142.000000,20067.000000,18503.000000,57887.000000
29147.000000,20082.000000,18510.000000,57952.000000
29146.000000,20101.000000,18534.000000,57940.000000
29177.000000,20089.000000,18545.000000,57964.000000
29195.000000,20111.000000,18571.000000,57977.000000
29227.000000,20116.000000,18602.000000,57975.000000
29227.000000,20148.000000,18615.000000,58005.000000
29241.000000,20137.000000,18622.000000,57993.000000
29289.000000,20158.000000,18657.000000,58002.000000
29264.000000,20186.000000,18675.000000,58034.000000
29310.000000,20209.000000,18713.000000,58059.000000
29317.000000,20201.000000,18709.000000,58034.000000
29335.000000,20219.000000,18748.000000,58079.000000
29333.000000,20252.000000,18777.000000,58079.000000
29383.000000,20267.000000,18788.000000,58149.000000
29398.000000,20257.000000,18816.000000,58114.000000
29386.000000,20301.000000,18849.000000,58135.000000
29445.000000,20288.000000,18866.000000,58147.000000
29509.000000,20301.000000,18893.000000,58167.000000
29491.000000,20311.000000,18920.000000,58147.000000
29506.000000,20355.000000,18937.000000,58192.000000
29550.000000,20323.000000,18997.000000,58178.000000
29535.000000,20392.000000,19013.000000,58226.000000
29556.000000,20399.000000,18995.000000,58238.000000
29575.000000,20401.000000,19063.000000,58257.000000
29611.000000,20445.000000,19054.000000,58248.000000
29620.000000,20438.000000,19059.000000,58279.000000
29646.000000,20452.000000,19093.000000,58269.000000
29656.000000,20445.000000,19153.000000,58295.000000
29673.000000,20453.000000,19112.000000,58295.000000
29675.000000,20477.000000,19125.000000,58295.000000
29707.000000,20503.000000,19167.000000,58321.000000
29682.000000,20499.000000,19174.000000,58320.000000
29709.000000,20491.000000,19152.000000,58331.000000
29705.000000,20507.000000,19150.000000,58318.000000
29670.000000,20503.000000,19161.000000,58322.000000
29715.000000,20502.000000,19162.000000,58302.000000
29688.000000,20495.000000,19156.000000,58312.000000
29675.000000,20473.000000,19139.000000,58324.000000
29653.000000,20471.000000,19152.000000,58269.000000
29675.000000,20476.000000,19122.000000,58275.000000
29652.000000,20466.000000,19141.000000,58314.000000
29649.000000,20407.000000,19108.000000,58293.000000
29603.000000,20437.000000,19061.000000,58283.000000
29617.000000,20427.000000,19087.000000,58281.000000
29611.000000,20446.000000,19091.000000,58277.000000
29610.000000,20447.000000,19055.000000,58252.000000
29577.000000,20401.000000,19054.000000,58236.000000
29586.000000,20400.000000,19021.000000,58234.000000
29542.000000,20395.000000,19009.000000,58221.000000
29550.000000,20378.000000,19011.000000,58236.000000
29492.000000,20377.000000,18956.000000,58191.000000
29510.000000,20347.000000,18928.000000,58167.000000
29519.000000,20350.000000,18950.000000,58192.000000
29522.000000,20366.000000,18962.000000,58196.000000
29509.000000,20342.000000,18895.000000,58170.000000
29477.000000,20334.000000,18895.000000,58159.000000
29475.000000,20313.000000,18873.000000,58162.000000
29478.000000,20301.000000,18874.000000,58139.000000
29452.000000,20273.000000,18890.000000,58137.000000
29432.000000,20303.000000,18835.000000,58109.000000
29412.000000,20289.000000,18838.000000,58104.000000
29415.000000,20277.000000,18809.000000,58124.000000
29401.000000,20270.000000,18814.000000,58136.000000
29374.000000,20236.000000,18774.000000,58088.000000
29380.000000,20260.000000,18789.000000,58105.000000
29363.000000,20237.000000,18784.000000,58078.000000
29342.000000,20204.000000,18693.000000,58027.000000
29323.000000,20199.000000,18685.000000,58052.000000
29321.000000,20229.000000,18690.000000,58060.000000
29294.000000,20181.000000,18679.000000,58035.000000
29276.000000,20159.000000,18621.000000,58013.000000
29292.000000,20144.000000,18630.000000,58014.000000
29276.000000,20146.000000,18632.000000,58019.000000
29254.000000,20129.000000,18621.000000,57986.000000
29203.000000,20112.000000,18593.000000,57967.000000
29206.000000,20117.000000,18567.000000,57972.000000
29218.000000,20113.000000,18554.000000,57967.000000
29182.000000,20082.000000,18528.000000,57944.000000
29201.000000,20112.000000,18552.000000,57960.000000
29173.000000,20078.000000,18536.000000,57955.000000
29198.000000,20062.000000,18512.000000,57928.000000
29140.000000,20058.000000,18478.000000,57898.000000
29128.000000,20079.000000,18472.000000,57930.000000
29124.000000,20037.000000,18464.000000,57926.000000
29138.000000,20035.000000,18454.000000,57923.000000
29121.000000,20020.000000,18426.000000,57899.000000
29129.000000,20055.000000,18431.000000,57909.000000
29102.000000,20036.000000,18441.000000,57909.000000
29093.000000,20023.000000,18414.000000,57921.000000
29090.000000,20029.000000,18432.000000,57906.000000
29082.000000,20034.000000,18426.000000,57894.000000
29097.000000,20028.000000,18410.000000,57878.000000
29067.000000,19980.000000,18387.000000,57887.000000
29066.000000,20009.000000,18407.000000,57892.000000
29090.000000,20003.000000,18395.000000,57862.000000
29078.000000,20027.000000,18386.000000,57852.000000
29064.000000,19998.000000,18350.000000,57847.000000
29030.000000,19990.000000,18346.000000,57847.000000
29012.000000,19955.000000,18339.000000,57805.000000
28999.000000,19984.000000,18342.000000,57803.000000
28995.000000,19951.000000,18310.000000,57837.000000
28998.000000,19941.000000,18299.000000,57820.000000
28964.000000,19930.000000,18332.000000,57824.000000
28980.000000,19945.000000,18295.000000,57833.000000
28976.000000,19919.000000,18310.000000,57816.000000
28998.000000,19945.000000,18344.000000,57843.000000
28978.000000,19956.000000,18323.000000,57842.000000
28981.000000,19962.000000,18352.000000,57820.000000
29029.000000,19982.000000,18390.000000,57866.000000
29047.000000,19996.000000,18392.000000,57891.000000
29078.000000,19988.000000,18453.000000,57875.000000
29051.000000,20036.000000,18395.000000,57910.000000
29057.000000,20011.000000,18441.000000,57910.000000
29107.000000,20011.000000,18427.000000,57886.000000
29119.000000,20042.000000,18491.000000,57934.000000
29167.000000,20052.000000,18511.000000,57951.000000
29121.000000,20059.000000,18491.000000,57949.000000
29144.000000,20053.000000,18521.000000,57952.000000
29196.000000,20092.000000,18582.000000,57961.000000
29184.000000,20120.000000,18600.000000,58015.000000
29230.000000,20135.000000,18640.000000,58048.000000
29279.000000,20127.000000,18663.000000,58034.000000
29254.000000,20147.000000,18643.000000,58026.000000
29300.000000,20161.000000,18682.000000,58043.000000
29272.000000,20194.000000,18682.000000,58072.000000
29319.000000,20204.000000,18695.000000,58059.000000
29376.000000,20219.000000,18788.000000,58096.000000
29414.000000,20268.000000,18831.000000,58149.000000
29393.000000,20293.000000,18876.000000,58181.000000
29443.000000,20290.000000,18831.000000,58170.000000
29480.000000,20280.000000,18880.000000,58163.000000
29464.000000,20329.000000,18912.000000,58159.000000
29466.000000,20289.000000,18910.000000,58183.000000
29445.000000,20308.000000,18878.000000,58179.000000
29451.000000,20282.000000,18855.000000,58164.000000
29428.000000,20252.000000,18859.000000,58152.000000
29437.000000,20284.000000,18843.000000,58142.000000
29411.000000,20252.000000,18814.000000,58134.000000
29383.000000,20233.000000,18799.000000,58094.000000
29385.000000,20255.000000,18796.000000,58117.000000
29356.000000,20253.000000,18773.000000,58109.000000
29370.000000,20209.000000,18781.000000,58085.000000
29389.000000,20225.000000,18770.000000,58104.000000
29342.000000,20209.000000,18762.000000,58079.000000
29331.000000,20219.000000,18732.000000,58065.000000
29332.000000,20197.000000,18732.000000,58062.000000
29258.000000,20171.000000,18680.000000,58042.000000
29278.000000,20182.000000,18658.000000,58041.000000
29283.000000,20167.000000,18651.000000,58025.000000
29266.000000,20102.000000,18681.000000,58016.000000
29290.000000,20155.000000,18660.000000,58055.000000
29260.000000,20144.000000,18640.000000,58036.000000
29195.000000,20103.000000,18579.000000,57983.000000
29173.000000,20112.000000,18567.000000,57984.000000
29192.000000,20093.000000,18525.000000,57981.000000
29171.000000,20090.000000,18540.000000,57972.000000
29170.000000,20080.000000,18554.000000,57966.000000
29171.000000,20101.000000,18558.000000,58001.000000
29140.000000,20106.000000,18560.000000,57954.000000
29137.000000,20072.000000,18561.000000,57942.000000
29118.000000,20025.000000,18520.000000,57939.000000
29121.000000,20023.000000,18481.000000,57956.000000
29103.000000,20018.000000,18469.000000,57914.000000
29089.000000,20055.000000,18466.000000,57906.000000
29104.000000,20009.000000,18456.000000,57904.000000
29081.000000,20033.000000,18426.000000,57899.000000
29079.000000,20004.000000,18444.000000,57898.000000
29058.000000,20025.000000,18419.000000,57899.000000
28990.000000,19991.000000,18402.000000,57890.000000
29011.000000,19957.000000,18390.000000,57834.000000
29044.000000,19982.000000,18377.000000,57864.000000
29004.000000,19947.000000,18330.000000,57833.000000
29000.000000,19953.000000,18386.000000,57853.000000
29023.000000,19930.000000,18386.000000,57865.000000
29004.000000,19960.000000,18394.000000,57861.000000
29031.000000,20017.000000,18398.000000,57864.000000
29081.000000,19998.000000,18430.000000,57904.000000
29039.000000,20000.000000,18431.000000,57885.000000
29099.000000,20009.000000,18485.000000,57926.000000
29102.000000,20055.000000,18485.000000,57932.000000
29084.000000,20018.000000,18484.000000,57901.000000
29121.000000,20041.000000,18517.000000,57945.000000
29135.000000,20050.000000,18521.000000,57991.000000
29253.000000,20139.000000,18643.000000,58045.000000
29245.000000,20167.000000,18670.000000,58053.000000
29274.000000,20173.000000,18723.000000,58064.000000
29300.000000,20144.000000,18736.000000,58089.000000
29343.000000,20189.000000,18725.000000,58086.000000
29384.000000,20223.000000,18783.000000,58139.000000
29380.000000,20279.000000,18818.000000,58148.000000
29451.000000,20289.000000,18895.000000,58186.000000
29491.000000,20304.000000,18894.000000,58204.000000
29474.000000,20294.000000,18917.000000,58182.000000
29483.000000,20376.000000,18985.000000,58210.000000
29588.000000,20379.000000,19004.000000,58246.000000
29574.000000,20395.000000,19000.000000,58245.000000
29552.000000,20376.000000,18986.000000,58252.000000
29547.000000,20362.000000,19008.000000,58208.000000
29561.000000,20372.000000,18980.000000,58263.000000
29545.000000,20364.000000,18966.000000,58210.000000
29523.000000,20329.000000,18981.000000,58260.000000
29518.000000,20359.000000,18987.000000,58227.000000
29498.000000,20295.000000,18934.000000,58201.000000
29518.000000,20332.000000,18936.000000,58198.000000
29519.000000,20324.000000,18922.000000,58203.000000
29458.000000,20299.000000,18878.000000,58172.000000
29447.000000,20280.000000,18861.000000,58189.000000
29460.000000,20320.000000,18869.000000,58192.000000
29424.000000,20278.000000,18855.000000,58168.000000
29441.000000,20292.000000,18863.000000,58143.000000
29444.000000,20281.000000,18827.000000,58143.000000
29403.000000,20252.000000,18804.000000,58135.000000
29367.000000,20233.000000,18774.000000,58080.000000
29386.000000,20202.000000,18773.000000,58113.000000
29394.000000,20240.000000,18785.000000,58095.000000
29370.000000,20222.000000,18769.000000,58110.000000
29362.000000,20200.000000,18770.000000,58095.000000
29348.000000,20207.000000,18738.000000,58104.000000
29334.000000,20196.000000,18714.000000,58099.000000
29333.000000,20198.000000,18718.000000,58055.000000
29366.000000,20171.000000,18694.000000,58092.000000
29308.000000,20186.000000,18700.000000,58080.000000
29255.000000,20156.000000,18647.000000,58030.000000
29275.000000,20145.000000,18605.000000,58028.000000
29267.000000,20149.000000,18615.000000,58053.000000
29245.000000,20141.000000,18611.000000,58002.000000
29247.000000,20126.000000,18628.000000,58006.000000
29188.000000,20089.000000,18545.000000,57974.000000
29191.000000,20113.000000,18539.000000,57977.000000
29193.000000,20094.000000,18539.000000,57971.000000
29223.000000,20070.000000,18546.000000,57971.000000
29155.000000,20080.000000,18527.000000,57975.000000
29194.000000,20071.000000,18518.000000,57964.000000
29163.000000,20072.000000,18512.000000,57967.000000
29165.000000,20053.000000,18489.000000,57922.000000
29155.000000,20064.000000,18466.000000,57956.000000
29132.000000,20047.000000,18480.000000,57963.000000
29107.000000,20033.000000,18448.000000,57920.000000
29133.000000,20023.000000,18460.000000,57943.000000
29139.000000,20018.000000,18458.000000,57895.000000
29116.000000,20036.000000,18447.000000,57905.000000
29101.000000,20016.000000,18413.000000,57895.000000
29098.000000,20024.000000,18408.000000,57901.000000
29094.000000,19994.000000,18456.000000,57902.000000
29069.000000,20006.000000,18419.000000,57893.000000
29087.000000,20023.000000,18413.000000,57896.000000
29079.000000,19989.000000,18393.000000,57919.000000
29072.000000,19982.000000,18419.000000,57910.000000
29058.000000,19966.000000,18422.000000,57865.000000
29023.000000,19955.000000,18385.000000,57904.000000
29064.000000,19981.000000,18376.000000,57888.000000
29057.000000,19958.000000,18386.000000,57892.000000
29031.000000,19960.000000,18370.000000,57869.000000
29063.000000,19976.000000,18391.000000,57878.000000
29027.000000,19974.000000,18379.000000,57880.000000
29036.000000,19975.000000,18365.000000,57847.000000
29038.000000,19905.000000,18363.000000,57860.000000
29033.000000,19952.000000,18349.000000,57869.000000
29010.000000,19913.000000,18340.000000,57837.000000
29013.000000,19937.000000,18301.000000,57831.000000
28992.000000,19933.000000,18321.000000,57815.000000
28996.000000,19904.000000,18328.000000,57834.000000
28993.000000,19920.000000,18268.000000,57827.000000
28966.000000,19895.000000,18280.000000,57850.000000
28953.000000,19915.000000,18260.000000,57804.000000
28946.000000,19879.000000,18287.000000,57815.000000
28920.000000,19911.000000,18253.000000,57811.000000
28962.000000,19886.000000,18269.000000,57812.000000
28931.000000,19864.000000,18266.000000,57770.000000
28915.000000,19893.000000,18258.000000,57833.000000
28932.000000,19869.000000,18242.000000,57788.000000
28934.000000,19837.000000,18199.000000,57783.000000
28881.000000,19870.000000,18172.000000,57786.000000
28912.000000,19866.000000,18225.000000,57782.000000
28887.000000,19854.000000,18161.000000,57741.000000
28864.000000,19842.000000,18181.000000,57783.000000
28873.000000,19863.000000,18187.000000,57760.000000
28881.000000,19801.000000,18194.000000,57714.000000
28877.000000,19824.000000,18169.000000,57792.000000
28891.000000,19871.000000,18178.000000,57759.000000
28877.000000,19809.000000,18168.000000,57774.000000
28854.000000,19839.000000,18164.000000,57757.000000
28863.000000,19830.000000,18155.000000,57767.000000
28890.000000,19822.000000,18189.000000,57780.000000
28901.000000,19841.000000,18207.000000,57775.000000
28908.000000,19860.000000,18201.000000,57767.000000
28900.000000,19891.000000,18215.000000,57765.000000
28905.000000,19838.000000,18211.000000,57807.000000
28906.000000,19844.000000,18225.000000,57784.000000
28931.000000,19913.000000,18248.000000,57828.000000
28972.000000,19907.000000,18322.000000,57811.000000
28956.000000,19896.000000,18259.000000,57803.000000
28977.000000,19910.000000,18276.000000,57831.000000
28987.000000,19910.000000,18332.000000,57851.000000
28974.000000,19911.000000,18315.000000,57871.000000
29004.000000,19935.000000,18350.000000,57847.000000
29011.000000,19925.000000,18336.000000,57885.000000
29057.000000,19980.000000,18354.000000,57849.000000
29042.000000,19993.000000,18366.000000,57849.000000
29039.000000,19972.000000,18395.000000,57883.000000
29091.000000,19996.000000,18408.000000,57901.000000
29098.000000,19996.000000,18428.000000,57908.000000
29107.000000,20030.000000,18428.000000,57929.000000
29126.000000,20031.000000,18455.000000,57962.000000
29145.000000,20001.000000,18496.000000,57951.000000
29162.000000,20043.000000,18499.000000,57961.000000
29206.000000,20051.000000,18534.000000,58003.000000
29207.000000,20079.000000,18515.000000,57984.000000
29200.000000,20064.000000,18593.000000,57989.000000
29224.000000,20114.000000,18586.000000,58024.000000
29264.000000,20121.000000,18632.000000,58030.000000
29285.000000,20129.000000,18649.000000,58025.000000
29287.000000,20150.000000,18657.000000,58031.000000
29314.000000,20166.000000,18700.000000,58085.000000
29334.000000,20177.000000,18721.000000,58070.000000
29375.000000,20197.000000,18734.000000,58094.000000
29395.000000,20218.000000,18780.000000,58125.000000
29408.000000,20255.000000,18803.000000,58131.000000
29446.000000,20218.000000,18827.000000,58103.000000
29418.000000,20245.000000,18842.000000,58152.000000
29454.000000,20280.000000,18848.000000,58176.000000
29473.000000,20275.000000,18859.000000,58167.000000
29485.000000,20321.000000,18916.000000,58210.000000
29494.000000,20292.000000,18891.000000,58185.000000
29524.000000,20327.000000,18918.000000,58232.000000
29514.000000,20298.000000,18890.000000,58236.000000
29545.000000,20330.000000,18951.000000,58212.000000
29525.000000,20307.000000,18949.000000,58239.000000
29531.000000,20317.000000,18973.000000,58225.000000
29553.000000,20402.000000,18913.000000,58225.000000
29537.000000,20334.000000,18912.000000,58198.000000
29503.000000,20309.000000,18912.000000,58222.000000
29495.000000,20317.000000,18933.000000,58191.000000
29513.000000,20333.000000,18942.000000,58206.000000
29513.000000,20306.000000,18904.000000,58198.000000
29496.000000,20311.000000,18891.000000,58156.000000
29508.000000,20298.000000,18874.000000,58173.000000
29502.000000,20347.000000,18844.000000,58195.000000
29501.000000,20282.000000,18883.000000,58145.000000
29450.000000,20283.000000,18880.000000,58182.000000
29497.000000,20310.000000,18877.000000,58150.000000
29463.000000,20305.000000,18843.000000,58145.000000
29496.000000,20293.000000,18862.000000,58210.000000
29488.000000,20263.000000,18865.000000,58165.000000
29455.000000,20253.000000,18826.000000,58166.000000
29444.000000,20247.000000,18823.000000,58154.000000
29456.000000,20243.000000,18813.000000,58148.000000
29458.000000,20274.000000,18794.000000,58160.000000
29425.000000,20245.000000,18818.000000,58136.000000
29444.000000,20250.000000,18808.000000,58155.000000
29446.000000,20217.000000,18779.000000,58150.000000
29424.000000,20264.000000,18780.000000,58147.000000
29407.000000,20198.000000,18778.000000,58115.000000
29397.000000,20231.000000,18774.000000,58111.000000
29398.000000,20231.000000,18782.000000,58139.000000
29396.000000,20206.000000,18771.000000,58097.000000
29362.000000,20237.000000,18768.000000,58110.000000
29395.000000,20208.000000,18760.000000,58110.000000
29363.000000,20201.000000,18752.000000,58082.000000
29360.000000,20213.000000,18752.000000,58125.000000
29368.000000,20178.000000,18763.000000,58106.000000
29366.000000,20179.000000,18726.000000,58076.000000
29354.000000,20210.000000,18720.000000,58068.000000
29361.000000,20189.000000,18709.000000,58086.000000
29347.000000,20189.000000,18688.000000,58092.000000
29342.000000,20208.000000,18688.000000,58084.000000
29326.000000,20152.000000,18668.000000,58028.000000
29330.000000,20162.000000,18720.000000,58063.000000
29326.000000,20178.000000,18689.000000,58053.000000
29305.000000,20164.000000,18662.000000,58036.000000
29324.000000,20145.000000,18681.000000,58053.000000
29282.000000,20168.000000,18663.000000,58031.000000
29303.000000,20142.000000,18657.000000,58041.000000
29295.000000,20165.000000,18630.000000,58050.000000
29290.000000,20125.000000,18626.000000,58039.000000
29317.000000,20123.000000,18630.000000,58011.000000
29285.000000,20108.000000,18601.000000,58036.000000
29270.000000,20116.000000,18620.000000,58007.000000
29262.000000,20090.000000,18593.000000,58033.000000
29244.000000,20119.000000,18576.000000,57997.000000
29216.000000,20096.000000,18563.000000,57999.000000
29250.000000,20111.000000,18575.000000,57980.000000
29204.000000,20095.000000,18569.000000,57970.000000
29227.000000,20080.000000,18540.000000,57992.000000
29204.000000,20033.000000,18543.000000,57991.000000
29173.000000,20059.000000,18534.000000,57967.000000
29190.000000,20065.000000,18510.000000,57958.000000
29166.000000,20039.000000,18474.000000,57950.000000
29148.000000,20031.000000,18523.000000,57949.000000
29165.000000,20017.000000,18472.000000,57925.000000
29161.000000,20071.000000,18469.000000,57940.000000
29143.000000,20021.000000,18476.000000,57912.000000
29123.000000,20023.000000,18458.000000,57929.000000
29090.000000,20025.000000,18422.000000,57908.000000
29104.000000,20004.000000,18443.000000,57908.000000
29109.000000,19991.000000,18417.000000,57875.000000
29092.000000,20008.000000,18438.000000,57904.000000
29080.000000,19959.000000,18395.000000,57887.000000
29081.000000,19984.000000,18405.000000,57889.000000
29065.000000,19974.000000,18389.000000,57882.000000
29066.000000,19998.000000,18364.000000,57864.000000
29044.000000,19963.000000,18354.000000,57861.000000
29049.000000,19988.000000,18361.000000,57862.000000
29055.000000,19969.000000,18360.000000,57857.000000
29028.000000,19941.000000,18306.000000,57864.000000
29036.000000,19919.000000,18341.000000,57849.000000
29051.000000,19968.000000,18317.000000,57848.000000
29051.000000,19962.000000,18338.000000,57845.000000
28997.000000,19928.000000,18304.000000,57836.000000
29011.000000,19957.000000,18338.000000,57827.000000
29008.000000,19916.000000,18329.000000,57849.000000
28989.000000,19934.000000,18264.000000,57822.000000
28990.000000,19926.000000,18280.000000,57826.000000
28975.000000,19883.000000,18248.000000,57825.000000
28961.000000,19907.000000,18261.000000,57837.000000
28975.000000,19896.000000,18264.000000,57830.000000
28937.000000,19911.000000,18231.000000,57816.000000
28954.000000,19895.000000,18276.000000,57801.000000
28931.000000,19878.000000,18227.000000,57818.000000
28927.000000,19856.000000,18247.000000,57808.000000
28942.000000,19874.000000,18252.000000,57801.000000
28935.000000,19887.000000,18235.000000,57800.000000
28946.000000,19872.000000,18235.000000,57782.000000
28898.000000,19829.000000,18195.000000,57776.000000
28921.000000,19864.000000,18224.000000,57794.000000
28923.000000,19854.000000,18216.000000,57742.000000
28916.000000,19842.000000,18199.000000,57772.000000
28914.000000,19827.000000,18164.000000,57767.000000
28888.000000,19845.000000,18196.000000,57731.000000
28895.000000,19842.000000,18145.000000,57745.000000
28902.000000,19830.000000,18176.000000,57751.000000
28858.000000,19811.000000,18154.000000,57745.000000
28854.000000,19787.000000,18147.000000,57715.000000
28854.000000,19800.000000,18115.000000,57754.000000
28839.000000,19804.000000,18129.000000,57748.000000
28827.000000,19787.000000,18101.000000,57731.000000
28793.000000,19784.000000,18072.000000,57708.000000
28821.000000,19778.000000,18125.000000,57715.000000
28755.000000,19784.000000,18080.000000,57675.000000
28795.000000,19769.000000,18068.000000,57686.000000
28820.000000,19737.000000,18076.000000,57695.000000
28788.000000,19723.000000,18072.000000,57686.000000
28781.000000,19765.000000,18080.000000,57699.000000
28780.000000,19793.000000,18059.000000,57703.000000
28816.000000,19760.000000,18091.000000,57724.000000
28800.000000,19797.000000,18085.000000,57729.000000
28795.000000,19753.000000,18074.000000,57706.000000
28818.000000,19804.000000,18054.000000,57714.000000
28806.000000,19778.000000,18093.000000,57727.000000
28807.000000,19792.000000,18129.000000,57749.000000
28792.000000,19784.000000,18136.000000,57732.000000
28819.000000,19788.000000,18122.000000,57725.000000
28825.000000,19790.000000,18116.000000,57732.000000
28868.000000,19815.000000,18155.000000,57738.000000
28821.000000,19784.000000,18135.000000,57731.000000
28866.000000,19827.000000,18165.000000,57725.000000
28875.000000,19806.000000,18135.000000,57727.000000
28891.000000,19808.000000,18193.000000,57761.000000
28880.000000,19799.000000,18152.000000,57742.000000
28881.000000,19822.000000,18205.000000,57780.000000
28886.000000,19830.000000,18185.000000,57772.000000
28906.000000,19843.000000,18211.000000,57782.000000
28918.000000,19883.000000,18209.000000,57796.000000
28919.000000,19862.000000,18245.000000,57789.000000
28963.000000,19861.000000,18241.000000,57818.000000
28955.000000,19906.000000,18288.000000,57832.000000
28971.000000,19879.000000,18268.000000,57805.000000
28987.000000,19916.000000,18287.000000,57828.000000
28973.000000,19910.000000,18295.000000,57840.000000
28984.000000,19896.000000,18312.000000,57840.000000
29053.000000,19931.000000,18359.000000,57861.000000
29030.000000,19956.000000,18366.000000,57875.000000
29043.000000,19984.000000,18379.000000,57921.000000
29071.000000,20004.000000,18397.000000,57936.000000
29097.000000,20019.000000,18425.000000,57921.000000
29111.000000,19982.000000,18439.000000,57915.000000
29130.000000,20028.000000,18477.000000,57944.000000
29142.000000,20036.000000,18485.000000,57958.000000
29153.000000,20033.000000,18483.000000,57966.000000
29164.000000,20041.000000,18528.000000,57979.000000
29187.000000,20067.000000,18530.000000,57990.000000
29195.000000,20102.000000,18531.000000,57989.000000
29214.000000,20098.000000,18573.000000,58027.000000
29210.000000,20085.000000,18576.000000,57984.000000
29226.000000,20097.000000,18582.000000,58015.000000
29219.000000,20073.000000,18568.000000,58031.000000
29237.000000,20093.000000,18597.000000,58039.000000
29256.000000,20093.000000,18583.000000,58007.000000
29249.000000,20099.000000,18581.000000,58018.000000
29244.000000,20105.000000,18567.000000,58009.000000
29261.000000,20103.000000,18585.000000,58028.000000
29276.000000,20119.000000,18590.000000,58015.000000
29248.000000,20058.000000,18581.000000,57990.000000
29223.000000,20105.000000,18554.000000,57997.000000
29217.000000,20055.000000,18548.000000,58016.000000
29245.000000,20061.000000,18588.000000,58000.000000
29204.000000,20100.000000,18549.000000,57997.000000
29200.000000,20098.000000,18555.000000,57988.000000
29190.000000,20057.000000,18541.000000,57971.000000
29174.000000,20047.000000,18542.000000,57978.000000
29201.000000,20057.000000,18504.000000,57968.000000
29166.000000,20061.000000,18541.000000,57973.000000
29185.000000,20077.000000,18512.000000,57948.000000
29138.000000,20063.000000,18503.000000,57964.000000
29149.000000,20027.000000,18496.000000,57950.000000
29136.000000,19928.000000,18481.000000,57945.000000
29145.000000,20032.000000,18484.000000,57953.000000
29135.000000,20005.000000,18488.000000,57945.000000
29152.000000,20037.000000,18477.000000,57939.000000
29146.000000,20018.000000,18452.000000,57947.000000
29132.000000,20001.000000,18463.000000,57933.000000
29132.000000,20024.000000,18457.000000,57912.000000
29143.000000,19995.000000,18426.000000,57907.000000
29112.000000,19970.000000,18429.000000,57916.000000
29106.000000,20019.000000,18426.000000,57925.000000
29072.000000,19983.000000,18412.000000,57924.000000
29100.000000,19972.000000,18443.000000,57901.000000
29085.000000,20009.000000,18412.000000,57902.000000
29079.000000,20020.000000,18419.000000,57911.000000
29078.000000,19972.000000,18413.000000,57891.000000
29093.000000,19987.000000,18416.000000,57898.000000
29070.000000,20015.000000,18398.000000,57909.000000
29060.000000,19932.000000,18365.000000,57891.000000
29045.000000,19929.000000,18361.000000,57888.000000
29032.000000,19985.000000,18359.000000,57898.000000
29076.000000,19975.000000,18381.000000,57870.000000
29032.000000,19932.000000,18328.000000,57856.000000
29036.000000,19955.000000,18357.000000,57860.000000
29012.000000,19911.000000,18311.000000,57849.000000
29006.000000,19908.000000,18326.000000,57839.000000
29029.000000,19933.000000,18318.000000,57837.000000
29018.000000,19911.000000,18300.000000,57870.000000
28988.000000,19930.000000,18272.000000,57851.000000
29008.000000,19917.000000,18285.000000,57812.000000
28977.000000,19905.000000,18269.000000,57839.000000
28999.000000,19874.000000,18278.000000,57826.000000
28972.000000,19888.000000,18281.000000,57824.000000
28983.000000,19885.000000,18292.000000,57831.000000
28972.000000,19884.000000,18269.000000,57844.000000
28958.000000,19895.000000,18263.000000,57806.000000
28963.000000,19875.000000,18237.000000,57835.000000
28946.000000,19883.000000,18242.000000,57805.000000
28954.000000,19889.000000,18251.000000,57821.000000
28933.000000,19870.000000,18222.000000,57804.000000
28931.000000,19888.000000,18261.000000,57810.000000
28948.000000,19841.000000,18242.000000,57786.000000
28902.000000,19853.000000,18240.000000,57790.000000
28927.000000,19857.000000,18213.000000,57770.000000
28943.000000,19834.000000,18206.000000,57784.000000
28895.000000,19816.000000,18171.000000,57763.000000
28898.000000,19843.000000,18208.000000,57791.000000
28917.000000,19837.000000,18178.000000,57778.000000
28890.000000,19804.000000,18199.000000,57768.000000
28913.000000,19818.000000,18179.000000,57727.000000
28889.000000,19799.000000,18162.000000,57759.000000
28870.000000,19814.000000,18143.000000,57743.000000
28821.000000,19790.000000,18145.000000,57759.000000
28848.000000,19796.000000,18131.000000,57724.000000
28819.000000,19783.000000,18142.000000,57732.000000
28817.000000,19752.000000,18108.000000,57727.000000
28849.000000,19741.000000,18095.000000,57722.000000
28811.000000,19769.000000,18109.000000,57701.000000
28805.000000,19739.000000,18083.000000,57729.000000
28798.000000,19787.000000,18072.000000,57754.000000
28788.000000,19763.000000,18076.000000,57714.000000
28765.000000,19730.000000,18074.000000,57706.000000
28780.000000,19720.000000,18069.000000,57699.000000
28786.000000,19731.000000,18062.000000,57694.000000
28787.000000,19737.000000,18077.000000,57714.000000
28750.000000,19755.000000,18052.000000,57671.000000
28760.000000,19733.000000,18058.000000,57670.000000
28794.000000,19749.000000,18070.000000,57697.000000
28791.000000,19763.000000,18071.000000,57720.000000
28777.000000,19769.000000,18077.000000,57708.000000
28774.000000,19737.000000,18099.000000,57713.000000
28802.000000,19734.000000,18092.000000,57737.000000
28806.000000,19745.000000,18103.000000,57696.000000
28829.000000,19768.000000,18136.000000,57723.000000
28840.000000,19765.000000,18130.000000,57717.000000
28851.000000,19807.000000,18142.000000,57764.000000
28858.000000,19830.000000,18149.000000,57748.000000
28895.000000,19808.000000,18187.000000,57757.000000
28927.000000,19818.000000,18173.000000,57769.000000
28877.000000,19818.000000,18178.000000,57760.000000
28896.000000,19819.000000,18201.000000,57791.000000
28915.000000,19843.000000,18212.000000,57800.000000
28923.000000,19858.000000,18223.000000,57784.000000
28936.000000,19841.000000,18270.000000,57824.000000
28945.000000,19888.000000,18245.000000,57799.000000
29006.000000,19875.000000,18264.000000,57827.000000
28990.000000,19896.000000,18290.000000,57827.000000
29017.000000,19895.000000,18320.000000,57856.000000
29036.000000,19898.000000,18318.000000,57889.000000
29058.000000,19939.000000,18332.000000,57881.000000
29076.000000,19943.000000,18379.000000,57904.000000
29088.000000,19958.000000,18388.000000,57894.000000
29126.000000,19995.000000,18417.000000,57892.000000
29121.000000,20000.000000,18467.000000,57923.000000
29152.000000,19999.000000,18463.000000,57950.000000
29164.000000,20039.000000,18477.000000,57965.000000
29198.000000,20037.000000,18508.000000,57987.000000
29215.000000,20059.000000,18569.000000,57971.000000
29242.000000,20074.000000,18575.000000,58008.000000
29285.000000,20109.000000,18608.000000,58049.000000
29276.000000,20119.000000,18628.000000,58055.000000
29316.000000,20148.000000,18673.000000,58066.000000
29320.000000,20150.000000,18673.000000,58078.000000
29355.000000,20157.000000,18656.000000,58064.000000
29384.000000,20168.000000,18706.000000,58099.000000
29390.000000,20165.000000,18724.000000,58105.000000
29391.000000,20205.000000,18753.000000,58098.000000
29405.000000,20199.000000,18746.000000,58112.000000
29437.000000,20236.000000,18759.000000,58147.000000
29455.000000,20229.000000,18774.000000,58149.000000
29453.000000,20214.000000,18815.000000,58152.000000
29444.000000,20223.000000,18794.000000,58145.000000
29452.000000,20207.000000,18780.000000,58135.000000
29454.000000,20241.000000,18810.000000,58156.000000
29473.000000,20248.000000,18760.000000,58123.000000
29454.000000,20233.000000,18790.000000,58172.000000
29447.000000,20221.000000,18797.000000,58135.000000
29412.000000,20196.000000,18768.000000,58131.000000
29413.000000,20211.000000,18779.000000,58136.000000
29416.000000,20217.000000,18749.000000,58097.000000
29406.000000,20183.000000,18758.000000,58105.000000
29413.000000,20180.000000,18718.000000,58101.000000
29397.000000,20180.000000,18734.000000,58131.000000
29348.000000,20160.000000,18717.000000,58102.000000
29369.000000,20184.000000,18719.000000,58121.000000
29348.000000,20182.000000,18696.000000,58102.000000
29360.000000,20153.000000,18712.000000,58079.000000
29365.000000,20160.000000,18692.000000,58060.000000
29379.000000,20151.000000,18655.000000,58094.000000
29345.000000,20186.000000,18705.000000,58079.000000
29341.000000,20166.000000,18694.000000,58080.000000
29379.000000,20177.000000,18673.000000,58095.000000
29362.000000,20141.000000,18699.000000,58080.000000
29338.000000,20128.000000,18690.000000,58072.000000
29336.000000,20151.000000,18664.000000,58075.000000
29350.000000,20141.000000,18660.000000,58054.000000
29336.000000,20144.000000,18664.000000,58080.000000
29349.000000,20162.000000,18656.000000,58059.000000
29320.000000,20128.000000,18646.000000,58064.000000
29335.000000,20145.000000,18629.000000,58068.000000
29310.000000,20145.000000,18642.000000,58030.000000
29298.000000,20088.000000,18627.000000,58054.000000
29312.000000,20116.000000,18633.000000,58041.000000
29271.000000,20097.000000,18631.000000,58041.000000
29291.000000,20128.000000,18624.000000,58046.000000
29298.000000,20119.000000,18595.000000,58033.000000
29250.000000,20095.000000,18598.000000,58039.000000
29298.000000,20108.000000,18585.000000,58045.000000
29259.000000,20079.000000,18586.000000,58033.000000
29246.000000,20084.000000,18579.000000,58007.000000
29230.000000,20079.000000,18541.000000,57999.000000
29262.000000,20075.000000,18599.000000,57990.000000
29251.000000,20007.000000,18564.000000,58009.000000
29232.000000,20042.000000,18557.000000,57985.000000
29257.000000,20080.000000,18519.000000,57985.000000
29222.000000,20058.000000,18523.000000,57996.000000
29218.000000,20040.000000,18524.000000,57975.000000
29201.000000,20034.000000,18483.000000,57949.000000
29175.000000,20038.000000,18489.000000,57968.000000
29199.000000,20042.000000,18489.000000,57975.000000
29196.000000,20037.000000,18490.000000,57939.000000
29195.000000,20009.000000,18480.000000,57956.000000
29155.000000,20039.000000,18438.000000,57935.000000
29178.000000,20001.000000,18450.000000,57948.000000
29196.000000,20000.000000,18462.000000,57930.000000
29157.000000,19994.000000,18414.000000,57973.000000
29176.000000,20010.000000,18459.000000,57929.000000
29141.000000,19988.000000,18460.000000,57947.000000
29152.000000,19984.000000,18413.000000,57928.000000
29142.000000,19988.000000,18446.000000,57925.000000
29135.000000,19965.000000,18443.000000,57928.000000
29103.000000,19959.000000,18440.000000,57939.000000
29125.000000,19982.000000,18387.000000,57920.000000
29115.000000,19942.000000,18405.000000,57936.000000
29109.000000,19934.000000,18371.000000,57899.000000
29089.000000,19936.000000,18415.000000,57919.000000
29095.000000,19963.000000,18374.000000,57869.000000
29098.000000,19936.000000,18378.000000,57900.000000
29057.000000,19952.000000,18382.000000,57868.000000
29071.000000,19915.000000,18377.000000,57887.000000
29067.000000,19926.000000,18372.000000,57854.000000
29030.000000,19909.000000,18360.000000,57867.000000
29023.000000,19926.000000,18369.000000,57887.000000
29056.000000,19895.000000,18331.000000,57859.000000
29069.000000,19904.000000,18330.000000,57863.000000
29027.000000,19924.000000,18317.000000,57844.000000
29030.000000,19913.000000,18321.000000,57865.000000
29022.000000,19883.000000,18315.000000,57866.000000
29035.000000,19905.000000,18293.000000,57841.000000
29030.000000,19867.000000,18290.000000,57814.000000
28997.000000,19911.000000,18281.000000,57843.000000
28990.000000,19905.000000,18297.000000,57826.000000
28985.000000,19868.000000,18262.000000,57820.000000
28960.000000,19875.000000,18256.000000,57841.000000
29001.000000,19861.000000,18263.000000,57842.000000
28969.000000,19846.000000,18264.000000,57802.000000
28976.000000,19852.000000,18230.000000,57811.000000
28961.000000,19845.000000,18220.000000,57800.000000
28966.000000,19841.000000,18235.000000,57815.000000
28967.000000,19834.000000,18200.000000,57795.000000
28956.000000,19855.000000,18210.000000,57804.000000
28941.000000,19859.000000,18204.000000,57814.000000
28961.000000,19832.000000,18223.000000,57817.000000
28947.000000,19816.000000,18220.000000,57796.000000
28934.000000,19824.000000,18221.000000,57779.000000
28970.000000,19829.000000,18200.000000,57805.000000
28939.000000,19813.000000,18191.000000,57756.000000
28912.000000,19805.000000,18185.000000,57797.000000
28909.000000,19810.000000,18164.000000,57746.000000
28925.000000,19785.000000,18127.000000,57757.000000
28903.000000,19781.000000,18134.000000,57769.000000
28878.000000,19774.000000,18143.000000,57770.000000
28873.000000,19779.000000,18116.000000,57742.000000
28863.000000,19798.000000,18111.000000,57744.000000
28884.000000,19779.000000,18127.000000,57741.000000
28849.000000,19745.000000,18094.000000,57723.000000
28833.000000,19730.000000,18077.000000,57706.000000
28801.000000,19713.000000,18073.000000,57720.000000
28781.000000,19726.000000,18041.000000,57721.000000
28795.000000,19729.000000,18037.000000,57692.000000
28782.000000,19714.000000,18006.000000,57706.000000
28750.000000,19692.000000,18008.000000,57678.000000
28756.000000,19668.000000,18007.000000,57649.000000
28752.000000,19703.000000,18015.000000,57700.000000
28743.000000,19721.000000,18019.000000,57693.000000
28751.000000,19715.000000,18034.000000,57668.000000
28780.000000,19706.000000,18005.000000,57662.000000
28777.000000,19693.000000,18018.000000,57668.000000
28779.000000,19697.000000,18032.000000,57673.000000
28820.000000,19734.000000,18036.000000,57710.000000
28810.000000,19740.000000,18060.000000,57710.000000
28814.000000,19685.000000,18079.000000,57697.000000
28822.000000,19755.000000,18094.000000,57719.000000
28840.000000,19761.000000,18099.000000,57744.000000
28829.000000,19770.000000,18095.000000,57705.000000
28841.000000,19780.000000,18112.000000,57768.000000
28846.000000,19772.000000,18147.000000,57734.000000
28897.000000,19733.000000,18160.000000,57751.000000
28887.000000,19799.000000,18157.000000,57787.000000
28883.000000,19798.000000,18175.000000,57763.000000
28932.000000,19832.000000,18189.000000,57803.000000
28916.000000,19876.000000,18200.000000,57799.000000
28908.000000,19828.000000,18205.000000,57812.000000
28924.000000,19843.000000,18224.000000,57789.000000
28964.000000,19856.000000,18245.000000,57838.000000
28978.000000,19863.000000,18270.000000,57845.000000
28983.000000,19872.000000,18259.000000,57826.000000
29010.000000,19892.000000,18318.000000,57879.000000
29003.000000,19924.000000,18327.000000,57867.000000
29057.000000,19935.000000,18359.000000,57858.000000
29080.000000,19920.000000,18344.000000,57908.000000
29095.000000,19928.000000,18434.000000,57929.000000
29095.000000,19948.000000,18421.000000,57923.000000
29098.000000,19982.000000,18466.000000,57957.000000
29156.000000,19988.000000,18470.000000,57961.000000
29204.000000,20013.000000,18476.000000,57932.000000
29184.000000,20008.000000,18519.000000,58016.000000
29222.000000,20052.000000,18521.000000,58013.000000
29261.000000,20072.000000,18594.000000,58027.000000
29275.000000,20117.000000,18645.000000,58053.000000
29307.000000,20117.000000,18654.000000,58085.000000
29336.000000,20115.000000,18634.000000,58075.000000
29320.000000,20168.000000,18710.000000,58117.000000
29385.000000,20149.000000,18717.000000,58117.000000
29405.000000,20162.000000,18736.000000,58129.000000
29430.000000,20195.000000,18757.000000,58155.000000
29440.000000,20217.000000,18785.000000,58169.000000
29443.000000,20191.000000,18797.000000,58130.000000
29442.000000,20193.000000,18822.000000,58171.000000
29470.000000,20238.000000,18823.000000,58164.000000
29420.000000,20236.000000,18778.000000,58140.000000
29463.000000,20212.000000,18815.000000,58174.000000
29436.000000,20215.000000,18799.000000,58148.000000
29439.000000,20234.000000,18815.000000,58132.000000
29396.000000,20167.000000,18783.000000,58148.000000
29407.000000,20197.000000,18775.000000,58135.000000
29416.000000,20172.000000,18755.000000,58129.000000
29411.000000,20170.000000,18797.000000,58145.000000
29409.000000,20165.000000,18761.000000,58106.000000
29393.000000,20176.000000,18757.000000,58133.000000
29388.000000,20169.000000,18742.000000,58121.000000
29351.000000,20177.000000,18737.000000,58099.000000
29377.000000,20184.000000,18742.000000,58107.000000
29370.000000,20167.000000,18727.000000,58114.000000
29369.000000,20139.000000,18750.000000,58107.000000
29372.000000,20162.000000,18713.000000,58084.000000
29335.000000,20158.000000,18698.000000,58103.000000
29342.000000,20147.000000,18695.000000,58093.000000
29351.000000,20140.000000,18687.000000,58036.000000
29335.000000,20149.000000,18675.000000,58074.000000
29329.000000,20099.000000,18682.000000,58088.000000
29334.000000,20160.000000,18668.000000,58082.000000
29332.000000,20105.000000,18668.000000,58047.000000
29290.000000,20138.000000,18657.000000,58082.000000
29324.000000,20124.000000,18630.000000,58064.000000
29307.000000,20068.000000,18614.000000,58053.000000
29302.000000,20102.000000,18628.000000,58052.000000
29290.000000,20084.000000,18612.000000,58050.000000
29268.000000,20075.000000,18594.000000,58021.000000
29276.000000,20066.000000,18593.000000,58022.000000
29243.000000,20071.000000,18577.000000,57993.000000
29273.000000,20094.000000,18606.000000,58030.000000
29271.000000,20074.000000,18572.000000,57995.000000
29245.000000,20074.000000,18592.000000,58023.000000
29247.000000,20060.000000,18581.000000,58000.000000
29219.000000,20030.000000,18549.000000,57987.000000
29226.000000,20027.000000,18528.000000,57988.000000
29209.000000,20055.000000,18535.000000,58011.000000
29218.000000,20035.000000,18520.000000,57966.000000
29225.000000,20005.000000,18525.000000,57966.000000
29207.000000,20020.000000,18518.000000,58006.000000
29223.000000,20014.000000,18502.000000,57961.000000
29205.000000,20017.000000,18508.000000,57999.000000
29193.000000,20026.000000,18493.000000,57967.000000
29191.000000,20014.000000,18487.000000,57996.000000
29218.000000,20005.000000,18481.000000,57960.000000
29168.000000,19969.000000,18460.000000,57956.000000
29182.000000,19987.000000,18468.000000,57951.000000
29171.000000,20009.000000,18459.000000,57945.000000
29139.000000,19996.000000,18435.000000,57937.000000
29144.000000,19986.000000,18434.000000,57928.000000
29156.000000,19988.000000,18437.000000,57919.000000
29164.000000,19971.000000,18420.000000,57938.000000
29130.000000,19956.000000,18393.000000,57934.000000
29120.000000,19963.000000,18406.000000,57913.000000
29133.000000,19953.000000,18392.000000,57900.000000
29092.000000,19965.000000,18361.000000,57900.000000
29102.000000,19930.000000,18390.000000,57900.000000
29091.000000,19913.000000,18370.000000,57889.000000
29107.000000,19913.000000,18355.000000,57903.000000
29061.000000,19922.000000,18343.000000,57873.000000
29036.000000,19914.000000,18366.000000,57881.000000
29064.000000,19956.000000,18315.000000,57883.000000
29085.000000,19927.000000,18339.000000,57877.000000
29057.000000,19905.000000,18326.000000,57878.000000
29040.000000,19889.000000,18302.000000,57861.000000
29050.000000,19890.000000,18333.000000,57869.000000
29039.000000,19876.000000,18308.000000,57857.000000
29036.000000,19881.000000,18311.000000,57842.000000
29017.000000,19851.000000,18288.000000,57842.000000
29034.000000,19871.000000,18280.000000,57866.000000
29037.000000,19896.000000,18291.000000,57838.000000
29015.000000,19868.000000,18285.000000,57838.000000
29038.000000,19890.000000,18289.000000,57850.000000
29000.000000,19880.000000,18264.000000,57808.000000
29008.000000,19881.000000,18277.000000,57826.000000
29010.000000,19854.000000,18233.000000,57818.000000
29009.000000,19819.000000,18250.000000,57839.000000
28987.000000,19831.000000,18242.000000,57854.000000
28990.000000,19828.000000,18248.000000,57835.000000
28978.000000,19821.000000,18228.000000,57814.000000
28937.000000,19852.000000,18222.000000,57789.000000
28952.000000,19850.000000,18213.000000,57822.000000
28967.000000,19801.000000,18186.000000,57784.000000
28946.000000,19827.000000,18211.000000,57794.000000
28938.000000,19814.000000,18201.000000,57801.000000
28907.000000,19768.000000,18199.000000,57804.000000
28908.000000,19791.000000,18212.000000,57777.000000
28913.000000,19775.000000,18165.000000,57768.000000
28897.000000,19792.000000,18175.000000,57773.000000
28895.000000,19759.000000,18155.000000,57745.000000
28915.000000,19747.000000,18143.000000,57748.000000
28898.000000,19779.000000,18152.000000,57746.000000
28881.000000,19782.000000,18157.000000,57753.000000
28869.000000,19777.000000,18138.000000,57746.000000
28843.000000,19723.000000,18105.000000,57753.000000
28854.000000,19729.000000,18112.000000,57725.000000
28834.000000,19708.000000,18103.000000,57706.000000
28837.000000,19697.000000,18081.000000,57728.000000
28830.000000,19729.000000,18078.000000,57704.000000
28825.000000,19736.000000,18069.000000,57680.000000
28832.000000,19720.000000,18075.000000,57729.000000
28803.000000,19735.000000,18109.000000,57716.000000
28801.000000,19761.000000,18089.000000,57747.000000
28865.000000,19740.000000,18094.000000,57746.000000
28864.000000,19741.000000,18112.000000,57765.000000
28848.000000,19731.000000,18081.000000,57711.000000
28803.000000,19770.000000,18112.000000,57743.000000
28827.000000,19773.000000,18131.000000,57748.000000
28890.000000,19777.000000,18140.000000,57743.000000
28905.000000,19767.000000,18159.000000,57784.000000
28884.000000,19783.000000,18181.000000,57792.000000
28897.000000,19781.000000,18194.000000,57760.000000
28919.000000,19779.000000,18198.000000,57797.000000
28918.000000,19812.000000,18229.000000,57760.000000
28930.000000,19830.000000,18246.000000,57813.000000
28957.000000,19823.000000,18246.000000,57820.000000
28967.000000,19819.000000,18231.000000,57819.000000
28970.000000,19849.000000,18276.000000,57838.000000
28974.000000,19887.000000,18280.000000,57832.000000
29039.000000,19850.000000,18328.000000,57830.000000
29020.000000,19875.000000,18328.000000,57871.000000
29057.000000,19903.000000,18375.000000,57885.000000
29047.000000,19908.000000,18389.000000,57907.000000
29068.000000,19948.000000,18365.000000,57909.000000
29097.000000,19955.000000,18412.000000,57928.000000
29126.000000,19964.000000,18427.000000,57940.000000
29137.000000,19972.000000,18464.000000,57946.000000
29164.000000,19988.000000,18532.000000,57989.000000
29166.000000,19995.000000,18505.000000,57982.000000
29203.000000,20027.000000,18536.000000,57996.000000
29217.000000,20032.000000,18556.000000,58014.000000
29255.000000,20059.000000,18599.000000,58033.000000
29253.000000,20098.000000,18616.000000,58033.000000
29292.000000,20093.000000,18647.000000,58067.000000
29303.000000,20123.000000,18682.000000,58092.000000
29351.000000,20124.000000,18712.000000,58088.000000
29364.000000,20144.000000,18725.000000,58096.000000
29348.000000,20153.000000,18749.000000,58107.000000
29383.000000,20180.000000,18761.000000,58157.000000
29447.000000,20205.000000,18784.000000,58138.000000
29443.000000,20196.000000,18832.000000,58162.000000
29475.000000,20198.000000,18802.000000,58176.000000
29469.000000,20221.000000,18873.000000,58173.000000
29455.000000,20216.000000,18838.000000,58187.000000
29469.000000,20219.000000,18877.000000,58181.000000
29475.000000,20254.000000,18885.000000,58173.000000
29453.000000,20246.000000,18858.000000,58177.000000
29510.000000,20250.000000,18885.000000,58175.000000
29501.000000,20235.000000,18842.000000,58160.000000
29467.000000,20232.000000,18851.000000,58203.000000
29433.000000,20247.000000,18815.000000,58157.000000
29400.000000,20238.000000,18829.000000,58175.000000
29422.000000,20212.000000,18814.000000,58173.000000
29431.000000,20200.000000,18788.000000,58158.000000
29392.000000,20194.000000,18807.000000,58148.000000
29420.000000,20200.000000,18784.000000,58145.000000
29379.000000,20161.000000,18802.000000,58124.000000
29397.000000,20186.000000,18777.000000,58159.000000
29419.000000,20159.000000,18789.000000,58119.000000
29380.000000,20152.000000,18731.000000,58102.000000
29378.000000,20162.000000,18755.000000,58144.000000
29379.000000,20175.000000,18745.000000,58120.000000
29360.000000,20173.000000,18723.000000,58130.000000
29380.000000,20126.000000,18737.000000,58116.000000
29365.000000,20142.000000,18703.000000,58101.000000
29345.000000,20138.000000,18701.000000,58100.000000
29347.000000,20169.000000,18699.000000,58088.000000
29325.000000,20082.000000,18693.000000,58058.000000
29341.000000,20119.000000,18680.000000,58072.000000
29323.000000,20136.000000,18674.000000,58085.000000
29328.000000,20146.000000,18667.000000,58090.000000
29320.000000,20106.000000,18659.000000,58073.000000
29335.000000,20118.000000,18671.000000,58068.000000
29273.000000,20097.000000,18634.000000,58053.000000
29316.000000,20084.000000,18645.000000,58079.000000
29291.000000,20082.000000,18605.000000,58069.000000
29283.000000,20056.000000,18575.000000,58066.000000
29277.000000,20066.000000,18618.000000,58005.000000
29260.000000,20044.000000,18571.000000,58032.000000
29264.000000,20034.000000,18593.000000,58034.000000
29243.000000,20046.000000,18592.000000,58033.000000
29228.000000,20019.000000,18563.000000,58015.000000
29225.000000,20038.000000,18570.000000,58026.000000
29217.000000,20076.000000,18549.000000,58013.000000
29237.000000,20046.000000,18534.000000,57973.000000
29207.000000,20021.000000,18531.000000,58008.000000
29204.000000,20021.000000,18510.000000,57987.000000
29220.000000,20033.000000,18508.000000,57963.000000
29173.000000,20012.000000,18545.000000,57980.000000
29194.000000,19983.000000,18478.000000,57949.000000
29177.000000,19974.000000,18495.000000,57948.000000
29169.000000,20005.000000,18473.000000,57958.000000
29117.000000,19974.000000,18450.000000,57959.000000
29128.000000,19961.000000,18461.000000,57949.000000
29121.000000,19934.000000,18444.000000,57937.000000
29153.000000,19982.000000,18449.000000,57946.000000
29131.000000,19936.000000,18431.000000,57911.000000
29111.000000,19932.000000,18400.000000,57927.000000
29104.000000,19946.000000,18421.000000,57925.000000
29063.000000,19921.000000,18407.000000,57935.000000
29114.000000,19925.000000,18382.000000,57890.000000
29100.000000,19922.000000,18375.000000,57908.000000
29053.000000,19902.000000,18379.000000,57923.000000
29076.000000,19908.000000,18377.000000,57890.000000
29086.000000,19912.000000,18374.000000,57909.000000
29073.000000,19903.000000,18361.000000,57904.000000
29092.000000,19902.000000,18382.000000,57896.000000
29073.000000,19894.000000,18312.000000,57875.000000
29073.000000,19910.000000,18347.000000,57898.000000
29056.000000,19887.000000,18328.000000,57862.000000
29058.000000,19892.000000,18347.000000,57895.000000
29056.000000,19879.000000,18329.000000,57876.000000
29034.000000,19878.000000,18287.000000,57874.000000
29032.000000,19892.000000,18286.000000,57842.000000
28991.000000,19867.000000,18287.000000,57847.000000
28997.000000,19846.000000,18266.000000,57838.000000
28976.000000,19847.000000,18243.000000,57862.000000
29016.000000,19840.000000,18257.000000,57838.000000
28961.000000,19831.000000,18255.000000,57847.000000
28961.000000,19858.000000,18239.000000,57798.000000
28970.000000,19822.000000,18222.000000,57793.000000
28948.000000,19801.000000,18224.000000,57800.000000
28927.000000,19770.000000,18197.000000,57789.000000
28897.000000,19768.000000,18187.000000,57771.000000
28904.000000,19782.000000,18177.000000,57762.000000
28897.000000,19768.000000,18151.000000,57768.000000
28897.000000,19748.000000,18155.000000,57764.000000
28857.000000,19765.000000,18118.000000,57748.000000
28852.000000,19772.000000,18107.000000,57749.000000
28863.000000,19743.000000,18089.000000,57729.000000
28851.000000,19723.000000,18080.000000,57722.000000
28844.000000,19718.000000,18081.000000,57738.000000
28859.000000,19725.000000,18058.000000,57718.000000
28833.000000,19676.000000,18046.000000,57698.000000
28807.000000,19728.000000,18099.000000,57733.000000
28820.000000,19710.000000,18062.000000,57678.000000
28794.000000,19664.000000,18061.000000,57694.000000
28800.000000,19697.000000,18070.000000,57721.000000
28809.000000,19702.000000,18040.000000,57734.000000
28820.000000,19678.000000,18054.000000,57732.000000
28815.000000,19706.000000,18069.000000,57712.000000
28831.000000,19693.000000,18093.000000,57708.000000
28830.000000,19698.000000,18063.000000,57708.000000
28860.000000,19714.000000,18085.000000,57709.000000
28857.000000,19722.000000,18101.000000,57733.000000
28868.000000,19740.000000,18111.000000,57743.000000
28839.000000,19740.000000,18108.000000,57735.000000
28881.000000,19738.000000,18109.000000,57729.000000
28856.000000,19742.000000,18161.000000,57748.000000
28908.000000,19763.000000,18153.000000,57765.000000
28905.000000,19769.000000,18157.000000,57785.000000
28885.000000,19779.000000,18198.000000,57766.000000
28915.000000,19788.000000,18190.000000,57782.000000
28923.000000,19795.000000,18218.000000,57794.000000
28970.000000,19737.000000,18234.000000,57808.000000
28954.000000,19833.000000,18278.000000,57822.000000
28964.000000,19839.000000,18254.000000,57828.000000
29011.000000,19842.000000,18291.000000,57845.000000
29026.000000,19835.000000,18283.000000,57823.000000
29044.000000,19881.000000,18314.000000,57886.000000
29079.000000,19871.000000,18356.000000,57880.000000
29085.000000,19872.000000,18401.000000,57892.000000
29104.000000,19943.000000,18403.000000,57911.000000
29103.000000,19946.000000,18389.000000,57916.000000
29153.000000,19942.000000,18446.000000,57962.000000
29158.000000,19987.000000,18484.000000,57975.000000
29189.000000,19980.000000,18509.000000,57987.000000
29237.000000,20015.000000,18512.000000,58008.000000
29287.000000,20017.000000,18558.000000,58045.000000
29272.000000,20051.000000,18598.000000,58038.000000
29270.000000,20041.000000,18626.000000,58041.000000
29305.000000,20077.000000,18637.000000,58082.000000
29370.000000,20108.000000,18683.000000,58071.000000
29388.000000,20126.000000,18694.000000,58118.000000
29357.000000,20124.000000,18723.000000,58116.000000
29423.000000,20151.000000,18737.000000,58143.000000
29440.000000,20156.000000,18781.000000,58173.000000
29487.000000,20201.000000,18825.000000,58157.000000
29479.000000,20200.000000,18808.000000,58172.000000
29515.000000,20228.000000,18838.000000,58195.000000
29483.000000,20229.000000,18843.000000,58194.000000
29540.000000,20240.000000,18869.000000,58202.000000
29529.000000,20261.000000,18892.000000,58216.000000
29523.000000,20227.000000,18881.000000,58213.000000
29525.000000,20242.000000,18873.000000,58188.000000
29536.000000,20213.000000,18893.000000,58193.000000
29506.000000,20232.000000,18892.000000,58208.000000
29497.000000,20237.000000,18863.000000,58186.000000
29498.000000,20238.000000,18868.000000,58208.000000
29473.000000,20216.000000,18831.000000,58198.000000
29498.000000,20188.000000,18848.000000,58171.000000
29459.000000,20204.000000,18808.000000,58180.000000
29484.000000,20218.000000,18825.000000,58197.000000
29460.000000,20187.000000,18823.000000,58173.000000
29461.000000,20194.000000,18789.000000,58179.000000
29440.000000,20174.000000,18798.000000,58133.000000
29449.000000,20191.000000,18762.000000,58123.000000
29442.000000,20160.000000,18785.000000,58159.000000
29438.000000,20180.000000,18774.000000,58116.000000
29398.000000,20165.000000,18756.000000,58133.000000
29397.000000,20157.000000,18723.000000,58111.000000
29417.000000,20125.000000,18747.000000,58105.000000
29389.000000,20145.000000,18717.000000,58082.000000
29372.000000,20132.000000,18704.000000,58104.000000
29396.000000,20113.000000,18732.000000,58118.000000
29357.000000,20105.000000,18679.000000,58099.000000
29348.000000,20129.000000,18706.000000,58092.000000
29345.000000,20109.000000,18693.000000,58101.000000
29353.000000,20108.000000,18671.000000,58065.000000
29340.000000,20124.000000,18672.000000,58066.000000
29338.000000,20079.000000,18669.000000,58097.000000
29337.000000,20085.000000,18643.000000,58066.000000
29337.000000,20105.000000,18655.000000,58046.000000
29379.000000,20095.000000,18644.000000,58057.000000
29312.000000,20083.000000,18642.000000,58062.000000
29320.000000,20093.000000,18643.000000,58052.000000
29295.000000,20064.000000,18619.000000,58034.000000
29306.000000,20092.000000,18601.000000,58028.000000
29268.000000,20064.000000,18597.000000,58039.000000
29281.000000,20050.000000,18586.000000,58008.000000
29264.000000,20045.000000,18600.000000,58026.000000
29237.000000,20049.000000,18557.000000,58024.000000
29206.000000,20023.000000,18559.000000,58016.000000
29236.000000,20033.000000,18547.000000,58015.000000
29276.000000,20008.000000,18562.000000,58003.000000
29214.000000,20030.000000,18533.000000,58006.000000
29198.000000,19984.000000,18519.000000,57967.000000
29202.000000,19987.000000,18513.000000,57967.000000
29202.000000,20007.000000,18471.000000,57963.000000
29190.000000,19971.000000,18489.000000,57978.000000
29156.000000,19968.000000,18469.000000,57947.000000
29218.000000,19970.000000,18477.000000,57944.000000
29172.000000,19957.000000,18458.000000,57951.000000
29199.000000,19977.000000,18443.000000,57963.000000
29147.000000,19946.000000,18441.000000,57943.000000
29158.000000,19962.000000,18452.000000,57943.000000
29128.000000,19949.000000,18415.000000,57937.000000
29103.000000,19926.000000,18389.000000,57926.000000
29131.000000,19919.000000,18373.000000,57898.000000
29069.000000,19908.000000,18389.000000,57907.000000
29095.000000,19934.000000,18380.000000,57911.000000
29094.000000,19887.000000,18380.000000,57894.000000
29087.000000,19892.000000,18390.000000,57916.000000
29097.000000,19909.000000,18358.000000,57911.000000
29090.000000,19917.000000,18366.000000,57874.000000
29073.000000,19886.000000,18355.000000,57911.000000
29036.000000,19890.000000,18356.000000,57896.000000
29077.000000,19881.000000,18348.000000,57853.000000
29041.000000,19869.000000,18336.000000,57863.000000
29039.000000,19857.000000,18309.000000,57881.000000
29046.000000,19858.000000,18304.000000,57863.000000
29042.000000,19867.000000,18312.000000,57867.000000
29027.000000,19870.000000,18308.000000,57849.000000
29016.000000,19845.000000,18284.000000,57824.000000
29003.000000,19836.000000,18275.000000,57849.000000
28963.000000,19850.000000,18260.000000,57795.000000
28985.000000,19810.000000,18249.000000,57804.000000
28985.000000,19795.000000,18226.000000,57815.000000
28969.000000,19793.000000,18245.000000,57825.000000
28988.000000,19773.000000,18260.000000,57822.000000
28963.000000,19816.000000,18224.000000,57805.000000
28975.000000,19800.000000,18210.000000,57819.000000
28962.000000,19805.000000,18201.000000,57804.000000
28951.000000,19765.000000,18181.000000,57815.000000
28935.000000,19804.000000,18186.000000,57778.000000
28910.000000,19780.000000,18178.000000,57776.000000
28937.000000,19761.000000,18170.000000,57774.000000
28896.000000,19739.000000,18150.000000,57773.000000
28885.000000,19741.000000,18161.000000,57768.000000
28874.000000,19716.000000,18137.000000,57729.000000
28865.000000,19752.000000,18118.000000,57750.000000
28855.000000,19716.000000,18103.000000,57725.000000
28870.000000,19690.000000,18072.000000,57708.000000
28839.000000,19698.000000,18073.000000,57703.000000
28840.000000,19676.000000,18074.000000,57692.000000
28798.000000,19683.000000,18025.000000,57692.000000
28813.000000,19690.000000,18051.000000,57699.000000
28788.000000,19648.000000,18023.000000,57688.000000
28766.000000,19657.000000,18047.000000,57677.000000
28745.000000,19670.000000,18057.000000,57706.000000
28788.000000,19665.000000,18034.000000,57667.000000
28766.000000,19640.000000,18020.000000,57684.000000
28770.000000,19684.000000,18017.000000,57697.000000
28745.000000,19631.000000,18037.000000,57694.000000
28773.000000,19688.000000,18036.000000,57673.000000
28771.000000,19670.000000,18043.000000,57691.000000
28795.000000,19697.000000,18037.000000,57703.000000
28791.000000,19680.000000,18068.000000,57701.000000
28828.000000,19691.000000,18028.000000,57681.000000
28818.000000,19678.000000,18073.000000,57732.000000
28835.000000,19704.000000,18075.000000,57717.000000
28827.000000,19685.000000,18089.000000,57710.000000
28855.000000,19726.000000,18110.000000,57738.000000
28839.000000,19707.000000,18128.000000,57711.000000
28872.000000,19716.000000,18145.000000,57740.000000
28915.000000,19750.000000,18147.000000,57762.000000
28910.000000,19768.000000,18151.000000,57775.000000
28910.000000,19748.000000,18197.000000,57776.000000
28926.000000,19776.000000,18197.000000,57799.000000
28942.000000,19806.000000,18218.000000,57839.000000
28962.000000,19816.000000,18246.000000,57826.000000
28981.000000,19800.000000,18277.000000,57808.000000
28984.000000,19848.000000,18284.000000,57841.000000
29032.000000,19869.000000,18342.000000,57875.000000
29077.000000,19857.000000,18355.000000,57865.000000
29070.000000,19879.000000,18345.000000,57912.000000
29059.000000,19902.000000,18384.000000,57914.000000
29095.000000,19943.000000,18440.000000,57955.000000
29121.000000,19946.000000,18450.000000,57929.000000
29155.000000,19966.000000,18503.000000,57974.000000
29219.000000,20011.000000,18532.000000,57974.000000
29257.000000,20011.000000,18542.000000,58015.000000
29259.000000,20013.000000,18593.000000,58045.000000
29271.000000,20061.000000,18619.000000,58056.000000
29296.000000,20053.000000,18671.000000,58072.000000
29358.000000,20100.000000,18698.000000,58095.000000
29368.000000,20124.000000,18748.000000,58145.000000
29413.000000,20140.000000,18745.000000,58143.000000
29423.000000,20164.000000,18767.000000,58144.000000
29462.000000,20191.000000,18827.000000,58198.000000
29497.000000,20202.000000,18843.000000,58209.000000
29505.000000,20261.000000,18911.000000,58235.000000
29539.000000,20253.000000,18933.000000,58232.000000
29560.000000,20255.000000,18941.000000,58231.000000
29565.000000,20280.000000,18934.000000,58251.000000
29581.000000,20279.000000,18994.000000,58254.000000
29604.000000,20293.000000,18946.000000,58270.000000
29579.000000,20296.000000,18978.000000,58266.000000
29600.000000,20275.000000,18964.000000,58259.000000
29607.000000,20312.000000,19012.000000,58288.000000
29581.000000,20301.000000,18970.000000,58256.000000
29576.000000,20263.000000,18977.000000,58252.000000
29580.000000,20243.000000,18939.000000,58270.000000
29583.000000,20262.000000,18949.000000,58210.000000
29536.000000,20249.000000,18953.000000,58260.000000
29569.000000,20246.000000,18926.000000,58227.000000
29550.000000,20264.000000,18927.000000,58240.000000
29546.000000,20243.000000,18929.000000,58244.000000
29537.000000,20265.000000,18924.000000,58199.000000
29547.000000,20219.000000,18925.000000,58231.000000
29525.000000,20259.000000,18908.000000,58223.000000
29517.000000,20253.000000,18894.000000,58184.000000
29527.000000,20222.000000,18912.000000,58201.000000
29503.000000,20212.000000,18884.000000,58235.000000
29504.000000,20210.000000,18879.000000,58203.000000
29487.000000,20228.000000,18876.000000,58214.000000
29474.000000,20222.000000,18888.000000,58200.000000
29526.000000,20191.000000,18880.000000,58232.000000
29477.000000,20216.000000,18837.000000,58190.000000
29474.000000,20205.000000,18848.000000,58179.000000
29463.000000,20210.000000,18880.000000,58182.000000
29457.000000,20187.000000,18854.000000,58176.000000
29450.000000,20180.000000,18836.000000,58168.000000
29431.000000,20155.000000,18795.000000,58173.000000
29454.000000,20197.000000,18820.000000,58171.000000
29481.000000,20200.000000,18811.000000,58157.000000
29418.000000,20174.000000,18792.000000,58153.000000
29436.000000,20156.000000,18788.000000,58166.000000
29422.000000,20161.000000,18791.000000,58149.000000
29422.000000,20153.000000,18802.000000,58149.000000
29389.000000,20181.000000,18770.000000,58152.000000
29416.000000,20118.000000,18789.000000,58135.000000
29409.000000,20155.000000,18781.000000,58138.000000
29423.000000,20113.000000,18777.000000,58151.000000
29399.000000,20148.000000,18753.000000,58149.000000
29400.000000,20109.000000,18743.000000,58143.000000
29384.000000,20117.000000,18772.000000,58103.000000
29372.000000,20136.000000,18746.000000,58115.000000
29371.000000,20093.000000,18716.000000,58130.000000
29375.000000,20116.000000,18730.000000,58107.000000
29378.000000,20100.000000,18683.000000,58089.000000
29360.000000,20117.000000,18684.000000,58096.000000
29347.000000,20105.000000,18691.000000,58093.000000
29341.000000,20105.000000,18701.000000,58078.000000
29344.000000,20106.000000,18654.000000,58080.000000
29336.000000,20087.000000,18645.000000,58083.000000
29305.000000,20083.000000,18613.000000,58059.000000
29308.000000,20073.000000,18639.000000,58066.000000
29295.000000,20058.000000,18641.000000,58045.000000
29276.000000,20053.000000,18643.000000,58068.000000
29304.000000,20053.000000,18616.000000,58045.000000
29274.000000,20037.000000,18609.000000,58035.000000
29262.000000,20057.000000,18612.000000,58029.000000
29269.000000,20060.000000,18625.000000,58074.000000
29275.000000,20049.000000,18590.000000,58046.000000
29269.000000,20016.000000,18579.000000,58032.000000
29254.000000,19971.000000,18586.000000,57996.000000
29211.000000,19988.000000,18568.000000,57992.000000
29227.000000,20021.000000,18563.000000,57973.000000
29206.000000,19970.000000,18557.000000,58030.000000
29224.000000,20009.000000,18537.000000,57998.000000
29178.000000,19948.000000,18531.000000,57971.000000
29192.000000,19977.000000,18494.000000,57978.000000
29195.000000,19969.000000,18505.000000,57986.000000
29170.000000,20000.000000,18503.000000,57997.000000
29174.000000,19956.000000,18516.000000,57987.000000
29163.000000,19948.000000,18484.000000,57957.000000
29172.000000,19964.000000,18463.000000,57969.000000
29133.000000,19947.000000,18476.000000,57991.000000
29137.000000,19951.000000,18458.000000,57954.000000
29152.000000,19950.000000,18448.000000,57951.000000
29136.000000,19953.000000,18431.000000,57961.000000
29105.000000,19916.000000,18416.000000,57947.000000
29129.000000,19918.000000,18428.000000,57939.000000
29098.000000,19934.000000,18417.000000,57936.000000
29112.000000,19908.000000,18437.000000,57961.000000
29103.000000,19917.000000,18401.000000,57940.000000
29092.000000,19926.000000,18402.000000,57927.000000
29089.000000,19906.000000,18422.000000,57946.000000
29064.000000,19897.000000,18382.000000,57903.000000
29076.000000,19907.000000,18396.000000,57914.000000
29073.000000,19876.000000,18385.000000,57903.000000
29054.000000,19888.000000,18376.000000,57918.000000
29041.000000,19867.000000,18344.000000,57899.000000
29027.000000,19870.000000,18337.000000,57874.000000
29052.000000,19880.000000,18343.000000,57893.000000
29033.000000,19849.000000,18328.000000,57906.000000
29024.000000,19852.000000,18318.000000,57841.000000
29022.000000,19839.000000,18310.000000,57882.000000
29005.000000,19840.000000,18297.000000,57859.000000
28994.000000,19828.000000,18272.000000,57836.000000
28978.000000,19813.000000,18274.000000,57810.000000
28987.000000,19807.000000,18231.000000,57825.000000
28972.000000,19793.000000,18247.000000,57815.000000
28954.000000,19756.000000,18219.000000,57821.000000
28930.000000,19751.000000,18235.000000,57817.000000
28908.000000,19753.000000,18231.000000,57810.000000
28906.000000,19788.000000,18214.000000,57815.000000
28890.000000,19735.000000,18207.000000,57808.000000
28896.000000,19734.000000,18199.000000,57807.000000
28893.000000,19766.000000,18191.000000,57803.000000
28932.000000,19751.000000,18199.000000,57797.000000
28882.000000,19735.000000,18175.000000,57800.000000
28887.000000,19766.000000,18204.000000,57793.000000
28909.000000,19738.000000,18204.000000,57824.000000
28895.000000,19744.000000,18158.000000,57779.000000
28910.000000,19733.000000,18179.000000,57793.000000
28895.000000,19752.000000,18191.000000,57774.000000
28915.000000,19760.000000,18183.000000,57771.000000
28899.000000,19782.000000,18190.000000,57811.000000
28913.000000,19775.000000,18226.000000,57830.000000
28930.000000,19745.000000,18236.000000,57806.000000
28920.000000,19745.000000,18229.000000,57830.000000
28928.000000,19775.000000,18275.000000,57814.000000
28934.000000,19825.000000,18264.000000,57858.000000
28951.000000,19813.000000,18290.000000,57869.000000
29013.000000,19839.000000,18322.000000,57841.000000
28986.000000,19849.000000,18321.000000,57876.000000
29006.000000,19849.000000,18342.000000,57907.000000
29028.000000,19849.000000,18338.000000,57846.000000
29029.000000,19856.000000,18355.000000,57907.000000
29065.000000,19873.000000,18400.000000,57902.000000
29061.000000,19881.000000,18410.000000,57923.000000
29129.000000,19916.000000,18442.000000,57956.000000
29104.000000,19908.000000,18446.000000,57950.000000
29120.000000,19912.000000,18463.000000,57998.000000
29141.000000,19946.000000,18508.000000,57990.000000
29166.000000,19969.000000,18520.000000,58014.000000
29234.000000,19957.000000,18550.000000,58017.000000
29217.000000,19985.000000,18576.000000,58021.000000
29232.000000,20019.000000,18596.000000,58050.000000
29289.000000,20049.000000,18640.000000,58057.000000
29274.000000,20052.000000,18680.000000,58100.000000
29309.000000,20074.000000,18707.000000,58118.000000
29319.000000,20076.000000,18718.000000,58116.000000
29336.000000,20110.000000,18777.000000,58159.000000
29394.000000,20152.000000,18776.000000,58160.000000
29392.000000,20172.000000,18832.000000,58159.000000
29479.000000,20164.000000,18875.000000,58242.000000
29455.000000,20198.000000,18882.000000,58214.000000
29498.000000,20205.000000,18919.000000,58270.000000
29513.000000,20227.000000,18937.000000,58253.000000
29515.000000,20250.000000,18973.000000,58259.000000
29533.000000,20326.000000,18960.000000,58272.000000
29551.000000,20254.000000,18998.000000,58292.000000
29559.000000,20281.000000,18994.000000,58289.000000
29564.000000,20272.000000,18997.000000,58299.000000
29553.000000,20271.000000,19020.000000,58301.000000
29557.000000,20274.000000,19021.000000,58318.000000
29534.000000,20262.000000,19014.000000,58289.000000
29560.000000,20242.000000,18991.000000,58274.000000
29567.000000,20267.000000,19005.000000,58281.000000
29532.000000,20263.000000,18995.000000,58289.000000
29534.000000,20264.000000,19000.000000,58278.000000
29576.000000,20269.000000,18993.000000,58292.000000
29528.000000,20224.000000,18988.000000,58276.000000
29547.000000,20260.000000,18952.000000,58255.000000
29509.000000,20225.000000,18937.000000,58260.000000
29475.000000,20228.000000,18934.000000,58258.000000
29486.000000,20213.000000,18910.000000,58241.000000
29482.000000,20229.000000,18925.000000,58236.000000
29512.000000,20213.000000,18943.000000,58208.000000
29493.000000,20230.000000,18901.000000,58250.000000
29443.000000,20172.000000,18864.000000,58208.000000
29466.000000,20184.000000,18866.000000,58218.000000
29456.000000,20204.000000,18887.000000,58230.000000
29467.000000,20172.000000,18845.000000,58218.000000
29420.000000,20183.000000,18837.000000,58192.000000
29466.000000,20186.000000,18849.000000,58195.000000
29440.000000,20186.000000,18847.000000,58201.000000
29412.000000,20182.000000,18847.000000,58162.000000
