660nm,730nm,850nm,940nm
25266.000000,21532.000000,20612.000000,56063.000000
25297.000000,21475.000000,20620.000000,56083.000000
25293.000000,21520.000000,20653.000000,56047.000000
25302.000000,21495.000000,20604.000000,56080.000000
25291.000000,21541.000000,20635.000000,56058.000000
25290.000000,21515.000000,20633.000000,56095.000000
25295.000000,21521.000000,20629.000000,56040.000000
25300.000000,21534.000000,20641.000000,56043.000000
25277.000000,21496.000000,20629.000000,56053.000000
25297.000000,21510.000000,20613.000000,56048.000000
25257.000000,21474.000000,20628.000000,56009.000000
25291.000000,21498.000000,20608.000000,56042.000000
25259.000000,21495.000000,20581.000000,56036.000000
25267.000000,21485.000000,20586.000000,56027.000000
25233.000000,21499.000000,20573.000000,56032.000000
25239.000000,21465.000000,20554.000000,56017.000000
25215.000000,21472.000000,20545.000000,56032.000000
25232.000000,21455.000000,20562.000000,56005.000000
25213.000000,21453.000000,20526.000000,55994.000000
25201.000000,21460.000000,20544.000000,56009.000000
25207.000000,21440.000000,20548.000000,56009.000000
25231.000000,21475.000000,20573.000000,56008.000000
25226.000000,21467.000000,20543.000000,56024.000000
25213.000000,21490.000000,20538.000000,56017.000000
25207.000000,21461.000000,20565.000000,56009.000000
25218.000000,21475.000000,20562.000000,56029.000000
25251.000000,21470.000000,20572.000000,56013.000000
25267.000000,21487.000000,20612.000000,56093.000000
25281.000000,21493.000000,20640.000000,56080.000000
25308.000000,21510.000000,20665.000000,56083.000000
25348.000000,21534.000000,20718.000000,56123.000000
25357.000000,21560.000000,20737.000000,56158.000000
25383.000000,21552.000000,20760.000000,56139.000000
25448.000000,21591.000000,20803.000000,56178.000000
25429.000000,21620.000000,20793.000000,56174.000000
25454.000000,21657.000000,20812.000000,56195.000000
25458.000000,21623.000000,20835.000000,56169.000000
25489.000000,21625.000000,20817.000000,56195.000000
25429.000000,21635.000000,20834.000000,56179.000000
25435.000000,21668.000000,20813.000000,56180.000000
25459.000000,21656.000000,20844.000000,56177.000000
25457.000000,21634.000000,20808.000000,56174.000000
25477.000000,21608.000000,20811.000000,56205.000000
25456.000000,21618.000000,20803.000000,56172.000000
25453.000000,21640.000000,20796.000000,56185.000000
25462.000000,21608.000000,20823.000000,56171.000000
25402.000000,21632.000000,20834.000000,56182.000000
25448.000000,21625.000000,20781.000000,56168.000000
25420.000000,21611.000000,20752.000000,56140.000000
25414.000000,21583.000000,20794.000000,56158.000000
25407.000000,21600.000000,20796.000000,56144.000000
25391.000000,21606.000000,20761.000000,56142.000000
25420.000000,21623.000000,20764.000000,56134.000000
25386.000000,21611.000000,20722.000000,56135.000000
25416.000000,21604.000000,20748.000000,56149.000000
25385.000000,21575.000000,20704.000000,56099.000000
25386.000000,21582.000000,20706.000000,56104.000000
25360.000000,21581.000000,20715.000000,56100.000000
25372.000000,21591.000000,20710.000000,56122.000000
25349.000000,21575.000000,20714.000000,56105.000000
25331.000000,21565.000000,20686.000000,56088.000000
25362.000000,21571.000000,20696.000000,56077.000000
25343.000000,21539.000000,20672.000000,56109.000000
25332.000000,21544.000000,20679.000000,56103.000000
25331.000000,21551.000000,20679.000000,56097.000000
25364.000000,21539.000000,20655.000000,56073.000000
25322.000000,21552.000000,20636.000000,56071.000000
25316.000000,21557.000000,20681.000000,56086.000000
25334.000000,21551.000000,20643.000000,56103.000000
25345.000000,21565.000000,20651.000000,56054.000000
25294.000000,21520.000000,20609.000000,56047.000000
25318.000000,21520.000000,20609.000000,56042.000000
25329.000000,21518.000000,20619.000000,56067.000000
25319.000000,21518.000000,20609.000000,56030.000000
25290.000000,21529.000000,20616.000000,56081.000000
25305.000000,21544.000000,20631.000000,56074.000000
25333.000000,21535.000000,20617.000000,56067.000000
25319.000000,21526.000000,20629.000000,56075.000000
25331.000000,21567.000000,20662.000000,56072.000000
25332.000000,21542.000000,20655.000000,56060.000000
25329.000000,21535.000000,20667.000000,56059.000000
25302.000000,21576.000000,20636.000000,56081.000000
25330.000000,21560.000000,20655.000000,56071.000000
25354.000000,21526.000000,20647.000000,56095.000000
25336.000000,21546.000000,20654.000000,56051.000000
25338.000000,21526.000000,20646.000000,56101.000000
25337.000000,21543.000000,20625.000000,56073.000000
25336.000000,21557.000000,20633.000000,56064.000000
25320.000000,21504.000000,20597.000000,56039.000000
25302.000000,21523.000000,20599.000000,56056.000000
25288.000000,21522.000000,20613.000000,56051.000000
25305.000000,21536.000000,20606.000000,56035.000000
25288.000000,21538.000000,20607.000000,56051.000000
25312.000000,21499.000000,20613.000000,56027.000000
25317.000000,21523.000000,20587.000000,56069.000000
25306.000000,21487.000000,20570.000000,56073.000000
25277.000000,21539.000000,20611.000000,56026.000000
25313.000000,21493.000000,20574.000000,56053.000000
25286.000000,21514.000000,20569.000000,56019.000000
25271.000000,21499.000000,20557.000000,56042.000000
25249.000000,21501.000000,20560.000000,56033.000000
25257.000000,21489.000000,20564.000000,56016.000000
25274.000000,21488.000000,20544.000000,56052.000000
25310.000000,21505.000000,20547.000000,56028.000000
25250.000000,21478.000000,20576.000000,56040.000000
25253.000000,21490.000000,20543.000000,56042.000000
25280.000000,21502.000000,20579.000000,56044.000000
25274.000000,21474.000000,20555.000000,56034.000000
25264.000000,21471.000000,20567.000000,56041.000000
25267.000000,21504.000000,20539.000000,56054.000000
25260.000000,21473.000000,20557.000000,56051.000000
25264.000000,21493.000000,20557.000000,56047.000000
25270.000000,21507.000000,20573.000000,56073.000000
25292.000000,21501.000000,20579.000000,56043.000000
25301.000000,21533.000000,20623.000000,56028.000000
25296.000000,21511.000000,20621.000000,56072.000000
25366.000000,21539.000000,20658.000000,56066.000000
25345.000000,21561.000000,20718.000000,56082.000000
25366.000000,21547.000000,20712.000000,56116.000000
25380.000000,21564.000000,20742.000000,56118.000000
25381.000000,21613.000000,20724.000000,56148.000000
25409.000000,21617.000000,20769.000000,56144.000000
25444.000000,21613.000000,20770.000000,56164.000000
25438.000000,21636.000000,20817.000000,56165.000000
25457.000000,21613.000000,20799.000000,56174.000000
25470.000000,21614.000000,20785.000000,56187.000000
25469.000000,21673.000000,20810.000000,56160.000000
25481.000000,21636.000000,20809.000000,56199.000000
25478.000000,21639.000000,20822.000000,56214.000000
25475.000000,21637.000000,20855.000000,56188.000000
25474.000000,21652.000000,20858.000000,56193.000000
25496.000000,21681.000000,20832.000000,56201.000000
25489.000000,21678.000000,20836.000000,56160.000000
25487.000000,21622.000000,20840.000000,56202.000000
25518.000000,21681.000000,20829.000000,56179.000000
25513.000000,21654.000000,20835.000000,56163.000000
25515.000000,21664.000000,20836.000000,56167.000000
25474.000000,21648.000000,20825.000000,56184.000000
25458.000000,21619.000000,20811.000000,56186.000000
25473.000000,21618.000000,20812.000000,56166.000000
25466.000000,21642.000000,20767.000000,56161.000000
25467.000000,21647.000000,20818.000000,56159.000000
25483.000000,21660.000000,20794.000000,56161.000000
25458.000000,21659.000000,20789.000000,56185.000000
25446.000000,21628.000000,20796.000000,56150.000000
25445.000000,21631.000000,20766.000000,56166.000000
25464.000000,21617.000000,20773.000000,56187.000000
25481.000000,21625.000000,20810.000000,56139.000000
25477.000000,21620.000000,20795.000000,56166.000000
25452.000000,21609.000000,20812.000000,56128.000000
25445.000000,21594.000000,20791.000000,56152.000000
25461.000000,21631.000000,20795.000000,56164.000000
25455.000000,21618.000000,20796.000000,56143.000000
25431.000000,21614.000000,20758.000000,56162.000000
25441.000000,21633.000000,20759.000000,56161.000000
25416.000000,21595.000000,20778.000000,56178.000000
25483.000000,21614.000000,20779.000000,56151.000000
25419.000000,21614.000000,20737.000000,56138.000000
25430.000000,21630.000000,20739.000000,56159.000000
25434.000000,21640.000000,20758.000000,56150.000000
25460.000000,21603.000000,20745.000000,56169.000000
25402.000000,21577.000000,20737.000000,56136.000000
25431.000000,21620.000000,20747.000000,56116.000000
25418.000000,21568.000000,20741.000000,56134.000000
25437.000000,21616.000000,20731.000000,56108.000000
25410.000000,21591.000000,20719.000000,56126.000000
25434.000000,21598.000000,20729.000000,56126.000000
25407.000000,21580.000000,20724.000000,56120.000000
25423.000000,21595.000000,20710.000000,56106.000000
25401.000000,21566.000000,20701.000000,56097.000000
25388.000000,21583.000000,20699.000000,56123.000000
25365.000000,21593.000000,20676.000000,56089.000000
25377.000000,21602.000000,20697.000000,56095.000000
25370.000000,21605.000000,20689.000000,56120.000000
25376.000000,21584.000000,20688.000000,56095.000000
25413.000000,21603.000000,20656.000000,56092.000000
25376.000000,21552.000000,20640.000000,56091.000000
25356.000000,21546.000000,20659.000000,56080.000000
25344.000000,21520.000000,20629.000000,56085.000000
25369.000000,21552.000000,20658.000000,56075.000000
25333.000000,21512.000000,20630.000000,56072.000000
25323.000000,21546.000000,20620.000000,56045.000000
25307.000000,21541.000000,20603.000000,56080.000000
25304.000000,21539.000000,20608.000000,56062.000000
25329.000000,21510.000000,20626.000000,56023.000000
25325.000000,21486.000000,20606.000000,56045.000000
25322.000000,21510.000000,20604.000000,56067.000000
25324.000000,21524.000000,20589.000000,56026.000000
25274.000000,21522.000000,20554.000000,56065.000000
25316.000000,21503.000000,20558.000000,56032.000000
25302.000000,21486.000000,20611.000000,56044.000000
25293.000000,21489.000000,20583.000000,56026.000000
25271.000000,21534.000000,20537.000000,56040.000000
25267.000000,21489.000000,20556.000000,56019.000000
25280.000000,21497.000000,20530.000000,56021.000000
25310.000000,21498.000000,20538.000000,56023.000000
25282.000000,21505.000000,20564.000000,56024.000000
25288.000000,21485.000000,20535.000000,56043.000000
25286.000000,21487.000000,20552.000000,56031.000000
25309.000000,21466.000000,20544.000000,56037.000000
25277.000000,21496.000000,20538.000000,56041.000000
25298.000000,21474.000000,20554.000000,56009.000000
25273.000000,21482.000000,20559.000000,56026.000000
25297.000000,21490.000000,20565.000000,56043.000000
25293.000000,21475.000000,20578.000000,56011.000000
25313.000000,21483.000000,20587.000000,56008.000000
25282.000000,21533.000000,20514.000000,56032.000000
25274.000000,21508.000000,20575.000000,56018.000000
25295.000000,21505.000000,20550.000000,56034.000000
25309.000000,21506.000000,20582.000000,56028.000000
25305.000000,21486.000000,20582.000000,56040.000000
25285.000000,21498.000000,20546.000000,56046.000000
25303.000000,21498.000000,20559.000000,56043.000000
25283.000000,21477.000000,20588.000000,56049.000000
25320.000000,21505.000000,20568.000000,56058.000000
25270.000000,21510.000000,20551.000000,56044.000000
25265.000000,21470.000000,20555.000000,56011.000000
25317.000000,21492.000000,20556.000000,56040.000000
25280.000000,21480.000000,20580.000000,56021.000000
25291.000000,21492.000000,20570.000000,56019.000000
25275.000000,21472.000000,20525.000000,56034.000000
25258.000000,21473.000000,20525.000000,56033.000000
25273.000000,21482.000000,20536.000000,56012.000000
25283.000000,21475.000000,20532.000000,55996.000000
25281.000000,21467.000000,20531.000000,56004.000000
25237.000000,21476.000000,20495.000000,55998.000000
25226.000000,21462.000000,20471.000000,55959.000000
25198.000000,21407.000000,20484.000000,55968.000000
25210.000000,21460.000000,20466.000000,55965.000000
25211.000000,21448.000000,20476.000000,55980.000000
25228.000000,21437.000000,20477.000000,55976.000000
25229.000000,21441.000000,20453.000000,55977.000000
25174.000000,21413.000000,20479.000000,55956.000000
25195.000000,21416.000000,20425.000000,55972.000000
25189.000000,21428.000000,20439.000000,55928.000000
25208.000000,21410.000000,20432.000000,55978.000000
25196.000000,21407.000000,20414.000000,55947.000000
25167.000000,21437.000000,20420.000000,55964.000000
25199.000000,21432.000000,20434.000000,55971.000000
25163.000000,21404.000000,20409.000000,55922.000000
25194.000000,21430.000000,20427.000000,55974.000000
25177.000000,21373.000000,20441.000000,55956.000000
25178.000000,21397.000000,20452.000000,55943.000000
25167.000000,21397.000000,20425.000000,55952.000000
25151.000000,21399.000000,20411.000000,55951.000000
25170.000000,21374.000000,20389.000000,55908.000000
25160.000000,21406.000000,20409.000000,55939.000000
25159.000000,21421.000000,20408.000000,55917.000000
25155.000000,21413.000000,20430.000000,55947.000000
25221.000000,21399.000000,20407.000000,55961.000000
25189.000000,21429.000000,20411.000000,55936.000000
25173.000000,21409.000000,20427.000000,55956.000000
25200.000000,21420.000000,20434.000000,55963.000000
25239.000000,21417.000000,20481.000000,55965.000000
25178.000000,21460.000000,20479.000000,55984.000000
25241.000000,21437.000000,20483.000000,55988.000000
25231.000000,21455.000000,20520.000000,56007.000000
25247.000000,21459.000000,20514.000000,56017.000000
25278.000000,21452.000000,20562.000000,56032.000000
25310.000000,21489.000000,20577.000000,56037.000000
25324.000000,21500.000000,20605.000000,56064.000000
25317.000000,21517.000000,20599.000000,56063.000000
25351.000000,21523.000000,20643.000000,56071.000000
25347.000000,21562.000000,20641.000000,56093.000000
25379.000000,21529.000000,20664.000000,56095.000000
25372.000000,21589.000000,20692.000000,56095.000000
25406.000000,21565.000000,20714.000000,56122.000000
25376.000000,21586.000000,20701.000000,56117.000000
25392.000000,21572.000000,20687.000000,56114.000000
25391.000000,21582.000000,20684.000000,56125.000000
25426.000000,21589.000000,20723.000000,56120.000000
25405.000000,21554.000000,20685.000000,56113.000000
25355.000000,21567.000000,20677.000000,56114.000000
25369.000000,21558.000000,20669.000000,56118.000000
25406.000000,21576.000000,20659.000000,56117.000000
25392.000000,21610.000000,20686.000000,56104.000000
25357.000000,21540.000000,20677.000000,56098.000000
25380.000000,21583.000000,20673.000000,56068.000000
25386.000000,21583.000000,20661.000000,56094.000000
25401.000000,21548.000000,20676.000000,56094.000000
25340.000000,21540.000000,20686.000000,56105.000000
25367.000000,21573.000000,20676.000000,56095.000000
25380.000000,21562.000000,20680.000000,56101.000000
25384.000000,21538.000000,20669.000000,56107.000000
25352.000000,21544.000000,20641.000000,56084.000000
25338.000000,21554.000000,20614.000000,56066.000000
25339.000000,21531.000000,20638.000000,56085.000000
25316.000000,21518.000000,20635.000000,56055.000000
25346.000000,21517.000000,20640.000000,56086.000000
25340.000000,21546.000000,20605.000000,56069.000000
25336.000000,21524.000000,20630.000000,56078.000000
25328.000000,21521.000000,20580.000000,56056.000000
25320.000000,21527.000000,20588.000000,56063.000000
25343.000000,21508.000000,20598.000000,56081.000000
25330.000000,21555.000000,20598.000000,56066.000000
25329.000000,21549.000000,20595.000000,56067.000000
25344.000000,21525.000000,20596.000000,56075.000000
25356.000000,21515.000000,20593.000000,56064.000000
25315.000000,21522.000000,20601.000000,56057.000000
25333.000000,21541.000000,20590.000000,56047.000000
25332.000000,21497.000000,20574.000000,56070.000000
25332.000000,21519.000000,20578.000000,56037.000000
25308.000000,21492.000000,20570.000000,56056.000000
25321.000000,21507.000000,20559.000000,56045.000000
25298.000000,21507.000000,20537.000000,56049.000000
25308.000000,21508.000000,20540.000000,56033.000000
25293.000000,21491.000000,20584.000000,56011.000000
25286.000000,21507.000000,20558.000000,56027.000000
25314.000000,21479.000000,20566.000000,56016.000000
25306.000000,21471.000000,20557.000000,56016.000000
25274.000000,21493.000000,20526.000000,56049.000000
25288.000000,21486.000000,20557.000000,56025.000000
25296.000000,21495.000000,20509.000000,56003.000000
25271.000000,21486.000000,20554.000000,56016.000000
25237.000000,21460.000000,20519.000000,56017.000000
25236.000000,21457.000000,20506.000000,56013.000000
25274.000000,21472.000000,20523.000000,56011.000000
25294.000000,21463.000000,20480.000000,55989.000000
25248.000000,21457.000000,20498.000000,56016.000000
25268.000000,21469.000000,20503.000000,56028.000000
25225.000000,21461.000000,20503.000000,56006.000000
25274.000000,21514.000000,20494.000000,55990.000000
25279.000000,21475.000000,20471.000000,56005.000000
25248.000000,21468.000000,20517.000000,55998.000000
25261.000000,21476.000000,20521.000000,56012.000000
25233.000000,21438.000000,20490.000000,55984.000000
25276.000000,21451.000000,20504.000000,55987.000000
25274.000000,21458.000000,20499.000000,56007.000000
25261.000000,21444.000000,20487.000000,56011.000000
25266.000000,21465.000000,20469.000000,56008.000000
25262.000000,21465.000000,20488.000000,55992.000000
25242.000000,21468.000000,20476.000000,56019.000000
25228.000000,21505.000000,20458.000000,56001.000000
25247.000000,21460.000000,20487.000000,55962.000000
25232.000000,21431.000000,20452.000000,55985.000000
25261.000000,21435.000000,20419.000000,55960.000000
25235.000000,21448.000000,20450.000000,55982.000000
25233.000000,21456.000000,20458.000000,56005.000000
25240.000000,21450.000000,20490.000000,55981.000000
25236.000000,21441.000000,20469.000000,55972.000000
25251.000000,21452.000000,20463.000000,55989.000000
25246.000000,21408.000000,20442.000000,55964.000000
25231.000000,21459.000000,20483.000000,55982.000000
25235.000000,21430.000000,20479.000000,55950.000000
25233.000000,21400.000000,20469.000000,55963.000000
25247.000000,21463.000000,20443.000000,55988.000000
25264.000000,21428.000000,20489.000000,55984.000000
25243.000000,21444.000000,20489.000000,55971.000000
25253.000000,21462.000000,20453.000000,56001.000000
25250.000000,21474.000000,20499.000000,55978.000000
25247.000000,21450.000000,20494.000000,56003.000000
25272.000000,21494.000000,20497.000000,55991.000000
25267.000000,21460.000000,20496.000000,55999.000000
25265.000000,21486.000000,20520.000000,56006.000000
25266.000000,21477.000000,20505.000000,56005.000000
25258.000000,21476.000000,20485.000000,55994.000000
25261.000000,21455.000000,20498.000000,56011.000000
25263.000000,21444.000000,20506.000000,55987.000000
25237.000000,21473.000000,20466.000000,56005.000000
25269.000000,21435.000000,20512.000000,55995.000000
25287.000000,21465.000000,20468.000000,55990.000000
25240.000000,21463.000000,20487.000000,56004.000000
25248.000000,21433.000000,20458.000000,55944.000000
25279.000000,21438.000000,20487.000000,55983.000000
25228.000000,21447.000000,20482.000000,56004.000000
25222.000000,21431.000000,20454.000000,55981.000000
25225.000000,21417.000000,20489.000000,56000.000000
25210.000000,21448.000000,20466.000000,55975.000000
25207.000000,21443.000000,20449.000000,55976.000000
25201.000000,21400.000000,20435.000000,55970.000000
25187.000000,21417.000000,20422.000000,55963.000000
25184.000000,21397.000000,20428.000000,55951.000000
25181.000000,21389.000000,20407.000000,55969.000000
25185.000000,21404.000000,20414.000000,55943.000000
25208.000000,21433.000000,20402.000000,55942.000000
25230.000000,21413.000000,20449.000000,55938.000000
25198.000000,21423.000000,20419.000000,55963.000000
25160.000000,21415.000000,20417.000000,55947.000000
25201.000000,21400.000000,20412.000000,55949.000000
25189.000000,21411.000000,20431.000000,55947.000000
25177.000000,21407.000000,20412.000000,55965.000000
25195.000000,21409.000000,20411.000000,55941.000000
25185.000000,21422.000000,20433.000000,55957.000000
25177.000000,21401.000000,20417.000000,55940.000000
25196.000000,21409.000000,20443.000000,55953.000000
25210.000000,21394.000000,20406.000000,55952.000000
25222.000000,21427.000000,20446.000000,55974.000000
25221.000000,21416.000000,20419.000000,55978.000000
25195.000000,21445.000000,20470.000000,55978.000000
25252.000000,21439.000000,20456.000000,55973.000000
25226.000000,21457.000000,20459.000000,56004.000000
25219.000000,21454.000000,20487.000000,56017.000000
25276.000000,21470.000000,20492.000000,56007.000000
25260.000000,21457.000000,20509.000000,56019.000000
25245.000000,21468.000000,20528.000000,56039.000000
25332.000000,21532.000000,20559.000000,56049.000000
25383.000000,21550.000000,20634.000000,56049.000000
25389.000000,21541.000000,20655.000000,56069.000000
25390.000000,21571.000000,20636.000000,56093.000000
25396.000000,21556.000000,20662.000000,56099.000000
25402.000000,21613.000000,20667.000000,56105.000000
25421.000000,21584.000000,20694.000000,56144.000000
25454.000000,21621.000000,20692.000000,56133.000000
25432.000000,21628.000000,20697.000000,56132.000000
25467.000000,21591.000000,20735.000000,56121.000000
25465.000000,21603.000000,20711.000000,56099.000000
25452.000000,21598.000000,20711.000000,56152.000000
25471.000000,21591.000000,20719.000000,56131.000000
25476.000000,21583.000000,20713.000000,56142.000000
25450.000000,21587.000000,20731.000000,56132.000000
25485.000000,21611.000000,20718.000000,56131.000000
25420.000000,21626.000000,20722.000000,56114.000000
25483.000000,21578.000000,20718.000000,56114.000000
25472.000000,21588.000000,20702.000000,56114.000000
25412.000000,21614.000000,20695.000000,56101.000000
25447.000000,21570.000000,20712.000000,56120.000000
25450.000000,21583.000000,20720.000000,56135.000000
25422.000000,21581.000000,20686.000000,56136.000000
25454.000000,21617.000000,20658.000000,56122.000000
25404.000000,21587.000000,20701.000000,56114.000000
25426.000000,21609.000000,20693.000000,56088.000000
25396.000000,21569.000000,20667.000000,56120.000000
25394.000000,21599.000000,20687.000000,56089.000000
25412.000000,21611.000000,20667.000000,56125.000000
25440.000000,21569.000000,20657.000000,56099.000000
25424.000000,21594.000000,20647.000000,56107.000000
25403.000000,21591.000000,20645.000000,56103.000000
25421.000000,21594.000000,20645.000000,56102.000000
25407.000000,21562.000000,20655.000000,56096.000000
25401.000000,21558.000000,20628.000000,56086.000000
25401.000000,21568.000000,20626.000000,56078.000000
25402.000000,21575.000000,20660.000000,56085.000000
25406.000000,21575.000000,20606.000000,56062.000000
25394.000000,21563.000000,20637.000000,56055.000000
25391.000000,21545.000000,20612.000000,56084.000000
25398.000000,21580.000000,20622.000000,56052.000000
25385.000000,21562.000000,20610.000000,56054.000000
25370.000000,21559.000000,20605.000000,56074.000000
25398.000000,21550.000000,20612.000000,56100.000000
25384.000000,21518.000000,20632.000000,56040.000000
25378.000000,21538.000000,20597.000000,56073.000000
25417.000000,21544.000000,20573.000000,56069.000000
25393.000000,21570.000000,20600.000000,56065.000000
25372.000000,21617.000000,20591.000000,56052.000000
25398.000000,21540.000000,20566.000000,56065.000000
25369.000000,21534.000000,20600.000000,56037.000000
25347.000000,21500.000000,20568.000000,56070.000000
25357.000000,21529.000000,20559.000000,56040.000000
25355.000000,21532.000000,20566.000000,56054.000000
25342.000000,21531.000000,20560.000000,56054.000000
25372.000000,21503.000000,20568.000000,56062.000000
25317.000000,21520.000000,20538.000000,56042.000000
25351.000000,21506.000000,20570.000000,56073.000000
25329.000000,21520.000000,20521.000000,56006.000000
25326.000000,21502.000000,20492.000000,56020.000000
25323.000000,21535.000000,20517.000000,56026.000000
25320.000000,21523.000000,20540.000000,55981.000000
25316.000000,21444.000000,20514.000000,56022.000000
25316.000000,21491.000000,20480.000000,56003.000000
25285.000000,21494.000000,20488.000000,56011.000000
25297.000000,21490.000000,20519.000000,55972.000000
25306.000000,21473.000000,20472.000000,55977.000000
25320.000000,21482.000000,20481.000000,55998.000000
25327.000000,21480.000000,20494.000000,55994.000000
25303.000000,21477.000000,20484.000000,55982.000000
25325.000000,21486.000000,20466.000000,55997.000000
25293.000000,21467.000000,20474.000000,55992.000000
25296.000000,21477.000000,20476.000000,56019.000000
25296.000000,21474.000000,20481.000000,55989.000000
25303.000000,21487.000000,20486.000000,55992.000000
25316.000000,21483.000000,20493.000000,56010.000000
25285.000000,21471.000000,20467.000000,55990.000000
25264.000000,21471.000000,20454.000000,56027.000000
25266.000000,21456.000000,20491.000000,55983.000000
25344.000000,21469.000000,20512.000000,56009.000000
25289.000000,21469.000000,20491.000000,56006.000000
25314.000000,21468.000000,20483.000000,56025.000000
25318.000000,21497.000000,20484.000000,56013.000000
25302.000000,21484.000000,20485.000000,56014.000000
25316.000000,21496.000000,20535.000000,56033.000000
25312.000000,21490.000000,20509.000000,56033.000000
25270.000000,21493.000000,20493.000000,56046.000000
25306.000000,21486.000000,20497.000000,56000.000000
25304.000000,21475.000000,20507.000000,56010.000000
25312.000000,21483.000000,20523.000000,56020.000000
25321.000000,21501.000000,20512.000000,56016.000000
25276.000000,21505.000000,20525.000000,56022.000000
25305.000000,21497.000000,20503.000000,56010.000000
25297.000000,21494.000000,20503.000000,55998.000000
25315.000000,21479.000000,20508.000000,55997.000000
25296.000000,21495.000000,20477.000000,56004.000000
25302.000000,21480.000000,20507.000000,56008.000000
25275.000000,21474.000000,20492.000000,55998.000000
25299.000000,21487.000000,20511.000000,56014.000000
25248.000000,21438.000000,20470.000000,55967.000000
25250.000000,21462.000000,20429.000000,55973.000000
25253.000000,21417.000000,20427.000000,55969.000000
25218.000000,21422.000000,20443.000000,55930.000000
25218.000000,21413.000000,20406.000000,55950.000000
25204.000000,21424.000000,20388.000000,55946.000000
25233.000000,21415.000000,20379.000000,55948.000000
25241.000000,21374.000000,20393.000000,55936.000000
25209.000000,21439.000000,20436.000000,55957.000000
25248.000000,21413.000000,20423.000000,55964.000000
25225.000000,21438.000000,20474.000000,55968.000000
25291.000000,21485.000000,20543.000000,56027.000000
25327.000000,21501.000000,20550.000000,56035.000000
25374.000000,21555.000000,20648.000000,56105.000000
25443.000000,21599.000000,20666.000000,56109.000000
25427.000000,21596.000000,20678.000000,56110.000000
25423.000000,21603.000000,20687.000000,56132.000000
25437.000000,21610.000000,20698.000000,56109.000000
25464.000000,21600.000000,20710.000000,56135.000000
25465.000000,21622.000000,20681.000000,56117.000000
25464.000000,21589.000000,20700.000000,56142.000000
25462.000000,21551.000000,20672.000000,56100.000000
25446.000000,21558.000000,20693.000000,56095.000000
25449.000000,21621.000000,20663.000000,56101.000000
25409.000000,21567.000000,20646.000000,56098.000000
25421.000000,21572.000000,20648.000000,56088.000000
25411.000000,21574.000000,20641.000000,56059.000000
25412.000000,21568.000000,20637.000000,56098.000000
25400.000000,21549.000000,20580.000000,56089.000000
25373.000000,21535.000000,20610.000000,56069.000000
25389.000000,21563.000000,20614.000000,56066.000000
25400.000000,21558.000000,20597.000000,56054.000000
25356.000000,21546.000000,20588.000000,56049.000000
25351.000000,21548.000000,20546.000000,56030.000000
25329.000000,21489.000000,20544.000000,56048.000000
25324.000000,21547.000000,20556.000000,56018.000000
25357.000000,21483.000000,20548.000000,56014.000000
25327.000000,21506.000000,20528.000000,56032.000000
25322.000000,21482.000000,20519.000000,56052.000000
25315.000000,21488.000000,20528.000000,56001.000000
25296.000000,21490.000000,20498.000000,56023.000000
25281.000000,21461.000000,20501.000000,56004.000000
25293.000000,21468.000000,20496.000000,55995.000000
25290.000000,21458.000000,20474.000000,55996.000000
25294.000000,21500.000000,20468.000000,55977.000000
25300.000000,21448.000000,20479.000000,56001.000000
25284.000000,21480.000000,20486.000000,55990.000000
25281.000000,21446.000000,20473.000000,55975.000000
25268.000000,21480.000000,20481.000000,56001.000000
25286.000000,21452.000000,20437.000000,55976.000000
25264.000000,21468.000000,20461.000000,55993.000000
25287.000000,21446.000000,20441.000000,55976.000000
25265.000000,21420.000000,20440.000000,55964.000000
25281.000000,21463.000000,20446.000000,55966.000000
25271.000000,21441.000000,20395.000000,55978.000000
25264.000000,21408.000000,20438.000000,55933.000000
25248.000000,21435.000000,20424.000000,55953.000000
25227.000000,21407.000000,20406.000000,55960.000000
25239.000000,21421.000000,20418.000000,55945.000000
25241.000000,21437.000000,20406.000000,55978.000000
25248.000000,21426.000000,20402.000000,55975.000000
25261.000000,21447.000000,20407.000000,55938.000000
25242.000000,21429.000000,20372.000000,55943.000000
25235.000000,21412.000000,20391.000000,55911.000000
25235.000000,21418.000000,20395.000000,55934.000000
25215.000000,21391.000000,20372.000000,55920.000000
25240.000000,21425.000000,20372.000000,55925.000000
25217.000000,21418.000000,20366.000000,55921.000000
25211.000000,21396.000000,20363.000000,55925.000000
25214.000000,21432.000000,20358.000000,55915.000000
25215.000000,21413.000000,20364.000000,55928.000000
25166.000000,21407.000000,20386.000000,55930.000000
25227.000000,21403.000000,20360.000000,55944.000000
25222.000000,21402.000000,20348.000000,55915.000000
25207.000000,21390.000000,20337.000000,55919.000000
25208.000000,21428.000000,20340.000000,55926.000000
25188.000000,21380.000000,20374.000000,55925.000000
25187.000000,21386.000000,20332.000000,55907.000000
25199.000000,21386.000000,20307.000000,55914.000000
25177.000000,21359.000000,20289.000000,55886.000000
25171.000000,21392.000000,20323.000000,55896.000000
25172.000000,21360.000000,20310.000000,55908.000000
25177.000000,21369.000000,20282.000000,55902.000000
25183.000000,21356.000000,20288.000000,55876.000000
25172.000000,21347.000000,20286.000000,55889.000000
25170.000000,21361.000000,20288.000000,55889.000000
25154.000000,21344.000000,20285.000000,55868.000000
25172.000000,21358.000000,20261.000000,55848.000000
25207.000000,21363.000000,20281.000000,55882.000000
25154.000000,21366.000000,20258.000000,55895.000000
25173.000000,21366.000000,20267.000000,55857.000000
25157.000000,21348.000000,20250.000000,55865.000000
25127.000000,21340.000000,20252.000000,55857.000000
25218.000000,21367.000000,20234.000000,55871.000000
25137.000000,21349.000000,20246.000000,55868.000000
25122.000000,21343.000000,20244.000000,55880.000000
25115.000000,21333.000000,20247.000000,55839.000000
25133.000000,21319.000000,20250.000000,55858.000000
25111.000000,21344.000000,20243.000000,55852.000000
25139.000000,21310.000000,20244.000000,55854.000000
25138.000000,21328.000000,20237.000000,55860.000000
25081.000000,21312.000000,20238.000000,55852.000000
25114.000000,21340.000000,20251.000000,55861.000000
25135.000000,21283.000000,20228.000000,55871.000000
25099.000000,21287.000000,20228.000000,55875.000000
25105.000000,21316.000000,20236.000000,55873.000000
25101.000000,21321.000000,20234.000000,55846.000000
25123.000000,21331.000000,20232.000000,55833.000000
25127.000000,21326.000000,20201.000000,55818.000000
25100.000000,21325.000000,20192.000000,55849.000000
25118.000000,21337.000000,20208.000000,55828.000000
25135.000000,21339.000000,20227.000000,55849.000000
25115.000000,21288.000000,20250.000000,55853.000000
25122.000000,21325.000000,20213.000000,55816.000000
25111.000000,21300.000000,20211.000000,55815.000000
25093.000000,21299.000000,20207.000000,55854.000000
25090.000000,21325.000000,20207.000000,55821.000000
25131.000000,21341.000000,20208.000000,55827.000000
25105.000000,21327.000000,20192.000000,55834.000000
25112.000000,21315.000000,20183.000000,55843.000000
25114.000000,21280.000000,20219.000000,55823.000000
25127.000000,21315.000000,20204.000000,55826.000000
25076.000000,21321.000000,20206.000000,55841.000000
25101.000000,21325.000000,20181.000000,55840.000000
25102.000000,21331.000000,20205.000000,55857.000000
25110.000000,21318.000000,20196.000000,55825.000000
25091.000000,21301.000000,20199.000000,55830.000000
25093.000000,21271.000000,20178.000000,55810.000000
25091.000000,21267.000000,20199.000000,55799.000000
25044.000000,21262.000000,20153.000000,55812.000000
25049.000000,21291.000000,20159.000000,55813.000000
25052.000000,21279.000000,20143.000000,55794.000000
25065.000000,21252.000000,20180.000000,55758.000000
25057.000000,21292.000000,20146.000000,55802.000000
25041.000000,21271.000000,20158.000000,55827.000000
25048.000000,21271.000000,20127.000000,55788.000000
25051.000000,21291.000000,20147.000000,55806.000000
25111.000000,21339.000000,20241.000000,55870.000000
25098.000000,21333.000000,20260.000000,55863.000000
25129.000000,21337.000000,20243.000000,55878.000000
25141.000000,21339.000000,20264.000000,55876.000000
25149.000000,21330.000000,20283.000000,55884.000000
25272.000000,21417.000000,20356.000000,55932.000000
25238.000000,21448.000000,20426.000000,55952.000000
25311.000000,21452.000000,20480.000000,55979.000000
25288.000000,21450.000000,20439.000000,55992.000000
25302.000000,21472.000000,20453.000000,55970.000000
25301.000000,21464.000000,20431.000000,55982.000000
25266.000000,21449.000000,20426.000000,55946.000000
25289.000000,21421.000000,20437.000000,55959.000000
25285.000000,21422.000000,20411.000000,55966.000000
25271.000000,21458.000000,20396.000000,55972.000000
25275.000000,21423.000000,20413.000000,55953.000000
25226.000000,21430.000000,20393.000000,55938.000000
25249.000000,21417.000000,20386.000000,55948.000000
25232.000000,21407.000000,20362.000000,55928.000000
25270.000000,21409.000000,20380.000000,55956.000000
25261.000000,21444.000000,20396.000000,55937.000000
25238.000000,21389.000000,20375.000000,55950.000000
25228.000000,21423.000000,20369.000000,55942.000000
25234.000000,21406.000000,20348.000000,55947.000000
25246.000000,21422.000000,20351.000000,55940.000000
25242.000000,21437.000000,20352.000000,55918.000000
25237.000000,21408.000000,20338.000000,55895.000000
25205.000000,21380.000000,20316.000000,55923.000000
25204.000000,21396.000000,20337.000000,55914.000000
25203.000000,21382.000000,20368.000000,55915.000000
25202.000000,21394.000000,20328.000000,55911.000000
25221.000000,21380.000000,20332.000000,55887.000000
25224.000000,21366.000000,20332.000000,55889.000000
25230.000000,21405.000000,20328.000000,55916.000000
25191.000000,21382.000000,20299.000000,55925.000000
25199.000000,21399.000000,20303.000000,55891.000000
25200.000000,21390.000000,20297.000000,55900.000000
25197.000000,21391.000000,20322.000000,55898.000000
25189.000000,21356.000000,20299.000000,55883.000000
25191.000000,21352.000000,20306.000000,55904.000000
25179.000000,21383.000000,20293.000000,55895.000000
25181.000000,21388.000000,20297.000000,55897.000000
25187.000000,21358.000000,20266.000000,55872.000000
25181.000000,21343.000000,20256.000000,55880.000000
25185.000000,21389.000000,20284.000000,55889.000000
25161.000000,21375.000000,20290.000000,55886.000000
25192.000000,21374.000000,20265.000000,55883.000000
25177.000000,21402.000000,20315.000000,55880.000000
25163.000000,21345.000000,20283.000000,55865.000000
25153.000000,21354.000000,20282.000000,55850.000000
25156.000000,21365.000000,20260.000000,55886.000000
25139.000000,21370.000000,20266.000000,55866.000000
25141.000000,21334.000000,20270.000000,55859.000000
25144.000000,21334.000000,20257.000000,55870.000000
25139.000000,21353.000000,20245.000000,55875.000000
25125.000000,21329.000000,20249.000000,55841.000000
25144.000000,21306.000000,20248.000000,55883.000000
25134.000000,21322.000000,20211.000000,55861.000000
25118.000000,21341.000000,20215.000000,55847.000000
25120.000000,21312.000000,20223.000000,55843.000000
25096.000000,21317.000000,20221.000000,55847.000000
25091.000000,21319.000000,20218.000000,55849.000000
25121.000000,21322.000000,20173.000000,55853.000000
25097.000000,21329.000000,20197.000000,55829.000000
25080.000000,21298.000000,20189.000000,55823.000000
25099.000000,21297.000000,20182.000000,55817.000000
25073.000000,21296.000000,20175.000000,55813.000000
25069.000000,21284.000000,20178.000000,55783.000000
25072.000000,21313.000000,20150.000000,55809.000000
25083.000000,21308.000000,20166.000000,55790.000000
25094.000000,21315.000000,20175.000000,55834.000000
25078.000000,21276.000000,20156.000000,55815.000000
25048.000000,21290.000000,20135.000000,55789.000000
25080.000000,21254.000000,20141.000000,55790.000000
25028.000000,21275.000000,20150.000000,55796.000000
25045.000000,21293.000000,20138.000000,55784.000000
25039.000000,21266.000000,20116.000000,55811.000000
25054.000000,21249.000000,20104.000000,55778.000000
25013.000000,21245.000000,20122.000000,55809.000000
25044.000000,21274.000000,20130.000000,55810.000000
25031.000000,21267.000000,20105.000000,55752.000000
25011.000000,21254.000000,20098.000000,55797.000000
25016.000000,21251.000000,20077.000000,55770.000000
25024.000000,21271.000000,20103.000000,55782.000000
25018.000000,21233.000000,20092.000000,55796.000000
25042.000000,21258.000000,20107.000000,55779.000000
25036.000000,21254.000000,20092.000000,55759.000000
24993.000000,21242.000000,20071.000000,55788.000000
25020.000000,21243.000000,20101.000000,55786.000000
25005.000000,21252.000000,20104.000000,55758.000000
25019.000000,21246.000000,20116.000000,55776.000000
25019.000000,21258.000000,20112.000000,55790.000000
25025.000000,21247.000000,20095.000000,55782.000000
25060.000000,21262.000000,20121.000000,55790.000000
25014.000000,21261.000000,20118.000000,55789.000000
25046.000000,21268.000000,20121.000000,55768.000000
25027.000000,21238.000000,20127.000000,55777.000000
25058.000000,21279.000000,20146.000000,55790.000000
25001.000000,21260.000000,20109.000000,55794.000000
25031.000000,21244.000000,20101.000000,55818.000000
25015.000000,21254.000000,20096.000000,55776.000000
25029.000000,21267.000000,20112.000000,55794.000000
25030.000000,21255.000000,20110.000000,55793.000000
24999.000000,21266.000000,20119.000000,55776.000000
25026.000000,21253.000000,20095.000000,55783.000000
25022.000000,21280.000000,20114.000000,55775.000000
24995.000000,21258.000000,20101.000000,55785.000000
25004.000000,21239.000000,20115.000000,55780.000000
25004.000000,21237.000000,20106.000000,55778.000000
25014.000000,21209.000000,20091.000000,55800.000000
24955.000000,21238.000000,20106.000000,55772.000000
24981.000000,21208.000000,20099.000000,55788.000000
24982.000000,21220.000000,20113.000000,55771.000000
25019.000000,21263.000000,20099.000000,55773.000000
24993.000000,21246.000000,20093.000000,55786.000000
24986.000000,21242.000000,20075.000000,55778.000000
24999.000000,21233.000000,20078.000000,55760.000000
24986.000000,21251.000000,20069.000000,55782.000000
24980.000000,21221.000000,20099.000000,55752.000000
24973.000000,21210.000000,20093.000000,55770.000000
24976.000000,21239.000000,20089.000000,55789.000000
24964.000000,21232.000000,20063.000000,55738.000000
24963.000000,21232.000000,20093.000000,55744.000000
24956.000000,21228.000000,20085.000000,55770.000000
24970.000000,21194.000000,20083.000000,55798.000000
24966.000000,21230.000000,20074.000000,55748.000000
24962.000000,21210.000000,20077.000000,55778.000000
24947.000000,21256.000000,20064.000000,55760.000000
24982.000000,21205.000000,20064.000000,55773.000000
24967.000000,21201.000000,20066.000000,55748.000000
24998.000000,21211.000000,20081.000000,55751.000000
24960.000000,21216.000000,20087.000000,55766.000000
24942.000000,21219.000000,20089.000000,55780.000000
24973.000000,21235.000000,20106.000000,55775.000000
24985.000000,21241.000000,20070.000000,55766.000000
24965.000000,21237.000000,20104.000000,55765.000000
24986.000000,21231.000000,20084.000000,55792.000000
25000.000000,21219.000000,20118.000000,55785.000000
25042.000000,21260.000000,20127.000000,55792.000000
25018.000000,21264.000000,20161.000000,55799.000000
25032.000000,21303.000000,20189.000000,55834.000000
25059.000000,21265.000000,20206.000000,55820.000000
25058.000000,21289.000000,20225.000000,55833.000000
25100.000000,21308.000000,20208.000000,55846.000000
25113.000000,21358.000000,20256.000000,55859.000000
25124.000000,21349.000000,20265.000000,55882.000000
25130.000000,21368.000000,20295.000000,55906.000000
25172.000000,21370.000000,20326.000000,55933.000000
25209.000000,21408.000000,20346.000000,55931.000000
25194.000000,21390.000000,20375.000000,55926.000000
25211.000000,21407.000000,20384.000000,55932.000000
25205.000000,21411.000000,20412.000000,55936.000000
25250.000000,21435.000000,20403.000000,55960.000000
25251.000000,21408.000000,20421.000000,55950.000000
25242.000000,21468.000000,20409.000000,55998.000000
25266.000000,21417.000000,20458.000000,55998.000000
25267.000000,21446.000000,20440.000000,55988.000000
25284.000000,21456.000000,20459.000000,55974.000000
25245.000000,21448.000000,20464.000000,56001.000000
25232.000000,21457.000000,20464.000000,55982.000000
25257.000000,21450.000000,20430.000000,55967.000000
25277.000000,21446.000000,20444.000000,55960.000000
25250.000000,21435.000000,20432.000000,55999.000000
25254.000000,21432.000000,20432.000000,55961.000000
25228.000000,21455.000000,20414.000000,55986.000000
25243.000000,21448.000000,20393.000000,55986.000000
25218.000000,21432.000000,20421.000000,55928.000000
25266.000000,21382.000000,20396.000000,55963.000000
25243.000000,21420.000000,20390.000000,55935.000000
25245.000000,21417.000000,20400.000000,55960.000000
25229.000000,21412.000000,20395.000000,55960.000000
25245.000000,21417.000000,20361.000000,55959.000000
25222.000000,21430.000000,20391.000000,55928.000000
25208.000000,21425.000000,20390.000000,55946.000000
25215.000000,21408.000000,20363.000000,55917.000000
25224.000000,21426.000000,20356.000000,55934.000000
25229.000000,21425.000000,20348.000000,55932.000000
25227.000000,21397.000000,20364.000000,55918.000000
25201.000000,21408.000000,20329.000000,55974.000000
25189.000000,21389.000000,20370.000000,55917.000000
25222.000000,21430.000000,20307.000000,55915.000000
25214.000000,21390.000000,20356.000000,55951.000000
25212.000000,21411.000000,20345.000000,55935.000000
25230.000000,21420.000000,20337.000000,55952.000000
25208.000000,21386.000000,20342.000000,55923.000000
25213.000000,21379.000000,20333.000000,55896.000000
25185.000000,21385.000000,20306.000000,55894.000000
25180.000000,21391.000000,20331.000000,55904.000000
25231.000000,21383.000000,20312.000000,55927.000000
25213.000000,21390.000000,20328.000000,55913.000000
25198.000000,21398.000000,20313.000000,55908.000000
25178.000000,21370.000000,20304.000000,55901.000000
25158.000000,21357.000000,20290.000000,55866.000000
25181.000000,21367.000000,20300.000000,55891.000000
25176.000000,21362.000000,20326.000000,55876.000000
25172.000000,21392.000000,20315.000000,55883.000000
25173.000000,21335.000000,20294.000000,55933.000000
25185.000000,21373.000000,20296.000000,55885.000000
25186.000000,21365.000000,20286.000000,55890.000000
25176.000000,21365.000000,20262.000000,55877.000000
25193.000000,21380.000000,20265.000000,55881.000000
25163.000000,21378.000000,20268.000000,55887.000000
25204.000000,21384.000000,20248.000000,55871.000000
25123.000000,21376.000000,20259.000000,55882.000000
25161.000000,21359.000000,20253.000000,55860.000000
25191.000000,21396.000000,20255.000000,55897.000000
25146.000000,21371.000000,20235.000000,55889.000000
25175.000000,21372.000000,20228.000000,55874.000000
25178.000000,21346.000000,20212.000000,55858.000000
25161.000000,21342.000000,20228.000000,55861.000000
25133.000000,21351.000000,20215.000000,55853.000000
25157.000000,21333.000000,20240.000000,55874.000000
25130.000000,21334.000000,20210.000000,55851.000000
25116.000000,21317.000000,20202.000000,55859.000000
25115.000000,21325.000000,20229.000000,55861.000000
25128.000000,21354.000000,20196.000000,55861.000000
25134.000000,21343.000000,20208.000000,55865.000000
25126.000000,21321.000000,20190.000000,55860.000000
25130.000000,21328.000000,20184.000000,55839.000000
25105.000000,21317.000000,20198.000000,55840.000000
25106.000000,21337.000000,20176.000000,55829.000000
25120.000000,21294.000000,20187.000000,55829.000000
25101.000000,21320.000000,20175.000000,55844.000000
25094.000000,21292.000000,20175.000000,55826.000000
25103.000000,21307.000000,20166.000000,55812.000000
25106.000000,21313.000000,20167.000000,55826.000000
25092.000000,21291.000000,20169.000000,55813.000000
25062.000000,21272.000000,20143.000000,55806.000000
25065.000000,21279.000000,20146.000000,55812.000000
25050.000000,21281.000000,20153.000000,55787.000000
25073.000000,21291.000000,20109.000000,55785.000000
25054.000000,21242.000000,20103.000000,55806.000000
25072.000000,21258.000000,20111.000000,55785.000000
25051.000000,21272.000000,20101.000000,55810.000000
25065.000000,21276.000000,20088.000000,55795.000000
25064.000000,21270.000000,20098.000000,55798.000000
25070.000000,21266.000000,20094.000000,55769.000000
25057.000000,21242.000000,20124.000000,55774.000000
25031.000000,21246.000000,20082.000000,55786.000000
25001.000000,21266.000000,20103.000000,55780.000000
25011.000000,21244.000000,20096.000000,55782.000000
25029.000000,21236.000000,20073.000000,55757.000000
25018.000000,21261.000000,20081.000000,55748.000000
25022.000000,21248.000000,20103.000000,55757.000000
25038.000000,21247.000000,20077.000000,55763.000000
25009.000000,21250.000000,20090.000000,55774.000000
24991.000000,21216.000000,20103.000000,55755.000000
25022.000000,21257.000000,20106.000000,55783.000000
25009.000000,21252.000000,20078.000000,55766.000000
25058.000000,21250.000000,20102.000000,55798.000000
25028.000000,21253.000000,20105.000000,55759.000000
25019.000000,21263.000000,20081.000000,55797.000000
25002.000000,21252.000000,20110.000000,55761.000000
25038.000000,21265.000000,20088.000000,55771.000000
25030.000000,21247.000000,20106.000000,55785.000000
25016.000000,21237.000000,20093.000000,55770.000000
25007.000000,21228.000000,20050.000000,55788.000000
25004.000000,21268.000000,20112.000000,55769.000000
25010.000000,21216.000000,20078.000000,55777.000000
25020.000000,21259.000000,20067.000000,55789.000000
25037.000000,21248.000000,20057.000000,55772.000000
24983.000000,21212.000000,20064.000000,55789.000000
25013.000000,21261.000000,20085.000000,55763.000000
24996.000000,21267.000000,20078.000000,55765.000000
24999.000000,21271.000000,20059.000000,55781.000000
25034.000000,21254.000000,20077.000000,55771.000000
24981.000000,21206.000000,20056.000000,55800.000000
24984.000000,21225.000000,20039.000000,55790.000000
25010.000000,21221.000000,20053.000000,55767.000000
24999.000000,21195.000000,20057.000000,55781.000000
24974.000000,21249.000000,20050.000000,55762.000000
24986.000000,21220.000000,20039.000000,55748.000000
24946.000000,21233.000000,20068.000000,55731.000000
24953.000000,21238.000000,20043.000000,55702.000000
24969.000000,21187.000000,20025.000000,55777.000000
24934.000000,21196.000000,20031.000000,55728.000000
24980.000000,21184.000000,20022.000000,55741.000000
24943.000000,21224.000000,20011.000000,55731.000000
24950.000000,21218.000000,20056.000000,55743.000000
24945.000000,21203.000000,20039.000000,55736.000000
24978.000000,21212.000000,20042.000000,55739.000000
24981.000000,21216.000000,20023.000000,55763.000000
24944.000000,21213.000000,20040.000000,55749.000000
24971.000000,21183.000000,20037.000000,55736.000000
24968.000000,21212.000000,20036.000000,55753.000000
24953.000000,21212.000000,20031.000000,55738.000000
24968.000000,21236.000000,20048.000000,55734.000000
24964.000000,21200.000000,20027.000000,55757.000000
25010.000000,21207.000000,20024.000000,55740.000000
24957.000000,21213.000000,20039.000000,55745.000000
24978.000000,21219.000000,20047.000000,55753.000000
24997.000000,21206.000000,20053.000000,55753.000000
25010.000000,21253.000000,20054.000000,55773.000000
24994.000000,21215.000000,20041.000000,55792.000000
25016.000000,21237.000000,20076.000000,55770.000000
25003.000000,21208.000000,20088.000000,55789.000000
24997.000000,21250.000000,20098.000000,55814.000000
24982.000000,21251.000000,20090.000000,55805.000000
25009.000000,21260.000000,20130.000000,55806.000000
25041.000000,21255.000000,20154.000000,55819.000000
25051.000000,21278.000000,20165.000000,55830.000000
25075.000000,21301.000000,20184.000000,55845.000000
25112.000000,21315.000000,20193.000000,55845.000000
25104.000000,21319.000000,20236.000000,55843.000000
25128.000000,21331.000000,20244.000000,55884.000000
25154.000000,21343.000000,20262.000000,55908.000000
25154.000000,21350.000000,20292.000000,55928.000000
25183.000000,21377.000000,20328.000000,55903.000000
25177.000000,21361.000000,20304.000000,55950.000000
25202.000000,21377.000000,20328.000000,55933.000000
25221.000000,21419.000000,20355.000000,55935.000000
25210.000000,21397.000000,20362.000000,55942.000000
25234.000000,21407.000000,20372.000000,55914.000000
25239.000000,21381.000000,20403.000000,55934.000000
25244.000000,21419.000000,20372.000000,55945.000000
25214.000000,21408.000000,20373.000000,55949.000000
25209.000000,21388.000000,20370.000000,55929.000000
25245.000000,21399.000000,20360.000000,55943.000000
25204.000000,21436.000000,20349.000000,55963.000000
25220.000000,21412.000000,20375.000000,55964.000000
25222.000000,21400.000000,20361.000000,55929.000000
25192.000000,21428.000000,20390.000000,55947.000000
25239.000000,21408.000000,20343.000000,55962.000000
25188.000000,21414.000000,20340.000000,55934.000000
25196.000000,21401.000000,20362.000000,55925.000000
25208.000000,21394.000000,20361.000000,55934.000000
25198.000000,21407.000000,20347.000000,55919.000000
25182.000000,21365.000000,20311.000000,55911.000000
25182.000000,21359.000000,20296.000000,55909.000000
25195.000000,21383.000000,20339.000000,55911.000000
25158.000000,21368.000000,20307.000000,55896.000000
25177.000000,21380.000000,20307.000000,55909.000000
25171.000000,21367.000000,20304.000000,55906.000000
25164.000000,21370.000000,20304.000000,55904.000000
25188.000000,21365.000000,20312.000000,55901.000000
25156.000000,21343.000000,20306.000000,55882.000000
25168.000000,21339.000000,20273.000000,55887.000000
25148.000000,21368.000000,20272.000000,55883.000000
25120.000000,21345.000000,20281.000000,55909.000000
25155.000000,21357.000000,20271.000000,55860.000000
25157.000000,21372.000000,20306.000000,55894.000000
25174.000000,21357.000000,20275.000000,55885.000000
25118.000000,21343.000000,20274.000000,55868.000000
25158.000000,21378.000000,20281.000000,55869.000000
25147.000000,21357.000000,20268.000000,55876.000000
25171.000000,21383.000000,20269.000000,55885.000000
25139.000000,21352.000000,20289.000000,55898.000000
25104.000000,21329.000000,20280.000000,55876.000000
25160.000000,21340.000000,20263.000000,55873.000000
25154.000000,21359.000000,20275.000000,55866.000000
25153.000000,21349.000000,20242.000000,55905.000000
25145.000000,21334.000000,20242.000000,55860.000000
25127.000000,21303.000000,20254.000000,55863.000000
25147.000000,21364.000000,20259.000000,55861.000000
25194.000000,21350.000000,20254.000000,55869.000000
25128.000000,21318.000000,20247.000000,55901.000000
25124.000000,21349.000000,20248.000000,55848.000000
25118.000000,21345.000000,20265.000000,55879.000000
25084.000000,21330.000000,20246.000000,55875.000000
25099.000000,21324.000000,20221.000000,55839.000000
25128.000000,21320.000000,20209.000000,55863.000000
25095.000000,21302.000000,20239.000000,55834.000000
25078.000000,21331.000000,20229.000000,55862.000000
25110.000000,21309.000000,20198.000000,55854.000000
25108.000000,21317.000000,20216.000000,55843.000000
25052.000000,21307.000000,20215.000000,55853.000000
25079.000000,21301.000000,20212.000000,55834.000000
25066.000000,21314.000000,20188.000000,55852.000000
25066.000000,21294.000000,20152.000000,55844.000000
25072.000000,21301.000000,20181.000000,55846.000000
25057.000000,21248.000000,20175.000000,55803.000000
25026.000000,21257.000000,20157.000000,55837.000000
25044.000000,21281.000000,20156.000000,55834.000000
25002.000000,21241.000000,20143.000000,55799.000000
25018.000000,21310.000000,20134.000000,55824.000000
25021.000000,21255.000000,20155.000000,55811.000000
25034.000000,21259.000000,20128.000000,55806.000000
25004.000000,21240.000000,20092.000000,55784.000000
25025.000000,21242.000000,20138.000000,55788.000000
25003.000000,21266.000000,20161.000000,55785.000000
25011.000000,21276.000000,20108.000000,55800.000000
25004.000000,21248.000000,20130.000000,55795.000000
25011.000000,21243.000000,20112.000000,55774.000000
25003.000000,21229.000000,20112.000000,55801.000000
25012.000000,21212.000000,20091.000000,55787.000000
24982.000000,21254.000000,20120.000000,55791.000000
24992.000000,21214.000000,20103.000000,55805.000000
24970.000000,21231.000000,20084.000000,55796.000000
24966.000000,21224.000000,20098.000000,55793.000000
24983.000000,21209.000000,20079.000000,55790.000000
24969.000000,21221.000000,20082.000000,55783.000000
24944.000000,21232.000000,20108.000000,55797.000000
24985.000000,21234.000000,20069.000000,55762.000000
24972.000000,21233.000000,20067.000000,55762.000000
24959.000000,21234.000000,20060.000000,55757.000000
24980.000000,21222.000000,20070.000000,55822.000000
24975.000000,21228.000000,20098.000000,55793.000000
24960.000000,21207.000000,20092.000000,55777.000000
24968.000000,21222.000000,20083.000000,55769.000000
24994.000000,21246.000000,20061.000000,55791.000000
24963.000000,21212.000000,20045.000000,55789.000000
24978.000000,21252.000000,20056.000000,55775.000000
24983.000000,21245.000000,20111.000000,55771.000000
24967.000000,21251.000000,20069.000000,55794.000000
24976.000000,21230.000000,20090.000000,55766.000000
25012.000000,21249.000000,20080.000000,55768.000000
25016.000000,21255.000000,20098.000000,55783.000000
25033.000000,21236.000000,20104.000000,55787.000000
24993.000000,21244.000000,20059.000000,55789.000000
24983.000000,21272.000000,20098.000000,55783.000000
24977.000000,21250.000000,20077.000000,55798.000000
25007.000000,21250.000000,20072.000000,55774.000000
25001.000000,21225.000000,20112.000000,55788.000000
24976.000000,21243.000000,20100.000000,55797.000000
25003.000000,21220.000000,20064.000000,55772.000000
24978.000000,21236.000000,20068.000000,55749.000000
24972.000000,21219.000000,20054.000000,55744.000000
24980.000000,21217.000000,20039.000000,55758.000000
24970.000000,21207.000000,20049.000000,55770.000000
24983.000000,21228.000000,20055.000000,55770.000000
24958.000000,21237.000000,20036.000000,55757.000000
24979.000000,21218.000000,20065.000000,55739.000000
24988.000000,21230.000000,20064.000000,55774.000000
24984.000000,21219.000000,20041.000000,55752.000000
25007.000000,21211.000000,20072.000000,55767.000000
25007.000000,21222.000000,20077.000000,55778.000000
24992.000000,21249.000000,20107.000000,55765.000000
24965.000000,21245.000000,20080.000000,55779.000000
24987.000000,21249.000000,20102.000000,55760.000000
24991.000000,21237.000000,20081.000000,55813.000000
25010.000000,21233.000000,20081.000000,55771.000000
24975.000000,21232.000000,20068.000000,55781.000000
25007.000000,21210.000000,20079.000000,55783.000000
25020.000000,21236.000000,20079.000000,55790.000000
24986.000000,21242.000000,20081.000000,55785.000000
24984.000000,21243.000000,20081.000000,55774.000000
24989.000000,21221.000000,20093.000000,55789.000000
25015.000000,21282.000000,20097.000000,55807.000000
25008.000000,21274.000000,20095.000000,55792.000000
24999.000000,21238.000000,20100.000000,55796.000000
25007.000000,21235.000000,20076.000000,55778.000000
25002.000000,21247.000000,20117.000000,55773.000000
25021.000000,21259.000000,20128.000000,55798.000000
25008.000000,21273.000000,20151.000000,55813.000000
25031.000000,21268.000000,20151.000000,55815.000000
25070.000000,21293.000000,20179.000000,55862.000000
25096.000000,21297.000000,20176.000000,55826.000000
25088.000000,21286.000000,20181.000000,55841.000000
25107.000000,21304.000000,20231.000000,55858.000000
25108.000000,21321.000000,20233.000000,55879.000000
25154.000000,21341.000000,20263.000000,55935.000000
25202.000000,21366.000000,20301.000000,55896.000000
25174.000000,21355.000000,20306.000000,55920.000000
25222.000000,21445.000000,20356.000000,55959.000000
25222.000000,21436.000000,20365.000000,55943.000000
25255.000000,21419.000000,20407.000000,55969.000000
25254.000000,21449.000000,20413.000000,55994.000000
25278.000000,21433.000000,20443.000000,56022.000000
25302.000000,21466.000000,20454.000000,55993.000000
25292.000000,21430.000000,20429.000000,56003.000000
25318.000000,21469.000000,20452.000000,56008.000000
25315.000000,21495.000000,20470.000000,56016.000000
25327.000000,21478.000000,20474.000000,56008.000000
25324.000000,21504.000000,20511.000000,56038.000000
25319.000000,21504.000000,20481.000000,56021.000000
25321.000000,21493.000000,20462.000000,56027.000000
25310.000000,21476.000000,20462.000000,56019.000000
25311.000000,21469.000000,20430.000000,56023.000000
25305.000000,21465.000000,20451.000000,56001.000000
25279.000000,21465.000000,20475.000000,55999.000000
25322.000000,21476.000000,20441.000000,56006.000000
25287.000000,21470.000000,20432.000000,55977.000000
25287.000000,21462.000000,20444.000000,56006.000000
25308.000000,21479.000000,20457.000000,56015.000000
25273.000000,21461.000000,20429.000000,55997.000000
25277.000000,21465.000000,20458.000000,55995.000000
25307.000000,21444.000000,20480.000000,56027.000000
25320.000000,21489.000000,20451.000000,56009.000000
25318.000000,21486.000000,20465.000000,56010.000000
25275.000000,21479.000000,20439.000000,56005.000000
25268.000000,21471.000000,20423.000000,55974.000000
25252.000000,21457.000000,20461.000000,55985.000000
25294.000000,21450.000000,20441.000000,56026.000000
25271.000000,21468.000000,20446.000000,55986.000000
25291.000000,21453.000000,20459.000000,55973.000000
25287.000000,21485.000000,20412.000000,55994.000000
25275.000000,21466.000000,20450.000000,55982.000000
25269.000000,21439.000000,20425.000000,55994.000000
25275.000000,21467.000000,20415.000000,56008.000000
25262.000000,21446.000000,20432.000000,55998.000000
25246.000000,21426.000000,20429.000000,55984.000000
25253.000000,21476.000000,20429.000000,55984.000000
25258.000000,21427.000000,20455.000000,55981.000000
25285.000000,21444.000000,20431.000000,55992.000000
25246.000000,21446.000000,20417.000000,55964.000000
25276.000000,21418.000000,20422.000000,55973.000000
25264.000000,21436.000000,20394.000000,55959.000000
25241.000000,21481.000000,20396.000000,55957.000000
25206.000000,21419.000000,20414.000000,55951.000000
25257.000000,21444.000000,20389.000000,55973.000000
25242.000000,21414.000000,20435.000000,55961.000000
25252.000000,21422.000000,20413.000000,55976.000000
25242.000000,21427.000000,20424.000000,55967.000000
25216.000000,21426.000000,20404.000000,55988.000000
25253.000000,21425.000000,20398.000000,55987.000000
25228.000000,21410.000000,20405.000000,55988.000000
25250.000000,21423.000000,20392.000000,55994.000000
25224.000000,21426.000000,20394.000000,55965.000000
25209.000000,21417.000000,20375.000000,55963.000000
25211.000000,21423.000000,20382.000000,55960.000000
25176.000000,21396.000000,20371.000000,55960.000000
25175.000000,21411.000000,20362.000000,55925.000000
25222.000000,21385.000000,20335.000000,55944.000000
25202.000000,21407.000000,20363.000000,55961.000000
25189.000000,21373.000000,20327.000000,55915.000000
25181.000000,21389.000000,20335.000000,55933.000000
25203.000000,21410.000000,20354.000000,55928.000000
25189.000000,21404.000000,20342.000000,55911.000000
25175.000000,21383.000000,20314.000000,55922.000000
25168.000000,21400.000000,20352.000000,55924.000000
25165.000000,21380.000000,20328.000000,55914.000000
25160.000000,21366.000000,20320.000000,55915.000000
25132.000000,21355.000000,20297.000000,55919.000000
25140.000000,21337.000000,20303.000000,55896.000000
25121.000000,21340.000000,20294.000000,55908.000000
25123.000000,21342.000000,20306.000000,55913.000000
25104.000000,21337.000000,20269.000000,55899.000000
25105.000000,21334.000000,20274.000000,55898.000000
25135.000000,21323.000000,20255.000000,55879.000000
25098.000000,21333.000000,20262.000000,55894.000000
25116.000000,21330.000000,20240.000000,55898.000000
25088.000000,21331.000000,20260.000000,55863.000000
25116.000000,21334.000000,20272.000000,55887.000000
25114.000000,21321.000000,20266.000000,55885.000000
25114.000000,21321.000000,20277.000000,55903.000000
25107.000000,21337.000000,20232.000000,55879.000000
25088.000000,21319.000000,20269.000000,55878.000000
25087.000000,21308.000000,20217.000000,55888.000000
25060.000000,21340.000000,20228.000000,55861.000000
25100.000000,21331.000000,20247.000000,55861.000000
25114.000000,21312.000000,20251.000000,55871.000000
25056.000000,21325.000000,20193.000000,55863.000000
25069.000000,21320.000000,20216.000000,55888.000000
25089.000000,21298.000000,20234.000000,55889.000000
25095.000000,21320.000000,20212.000000,55856.000000
25076.000000,21312.000000,20240.000000,55877.000000
25088.000000,21321.000000,20222.000000,55867.000000
25076.000000,21294.000000,20209.000000,55856.000000
25098.000000,21282.000000,20218.000000,55851.000000
25089.000000,21326.000000,20203.000000,55868.000000
25104.000000,21322.000000,20222.000000,55855.000000
25089.000000,21315.000000,20241.000000,55847.000000
25087.000000,21328.000000,20234.000000,55885.000000
25086.000000,21333.000000,20232.000000,55861.000000
25058.000000,21317.000000,20227.000000,55866.000000
25111.000000,21310.000000,20232.000000,55862.000000
25082.000000,21303.000000,20211.000000,55834.000000
25060.000000,21300.000000,20214.000000,55870.000000
25085.000000,21314.000000,20201.000000,55863.000000
25079.000000,21280.000000,20210.000000,55847.000000
25085.000000,21282.000000,20175.000000,55867.000000
25072.000000,21313.000000,20205.000000,55845.000000
25068.000000,21277.000000,20227.000000,55838.000000
25078.000000,21278.000000,20196.000000,55847.000000
25118.000000,21298.000000,20175.000000,55844.000000
25059.000000,21285.000000,20201.000000,55832.000000
25057.000000,21273.000000,20183.000000,55847.000000
25054.000000,21264.000000,20172.000000,55848.000000
25057.000000,21287.000000,20178.000000,55815.000000
25056.000000,21297.000000,20159.000000,55871.000000
25045.000000,21278.000000,20162.000000,55843.000000
25052.000000,21274.000000,20157.000000,55835.000000
25044.000000,21255.000000,20158.000000,55788.000000
25039.000000,21275.000000,20172.000000,55809.000000
25070.000000,21286.000000,20171.000000,55858.000000
25033.000000,21259.000000,20179.000000,55848.000000
25064.000000,21231.000000,20172.000000,55820.000000
25030.000000,21295.000000,20154.000000,55818.000000
25037.000000,21269.000000,20168.000000,55848.000000
25037.000000,21257.000000,20179.000000,55806.000000
25050.000000,21299.000000,20148.000000,55834.000000
25040.000000,21282.000000,20161.000000,55839.000000
25058.000000,21277.000000,20166.000000,55857.000000
25046.000000,21276.000000,20176.000000,55834.000000
25010.000000,21262.000000,20151.000000,55816.000000
25004.000000,21278.000000,20407.000000,55842.000000
25044.000000,21290.000000,20165.000000,55833.000000
25041.000000,21302.000000,20196.000000,55830.000000
25050.000000,21271.000000,20195.000000,55846.000000
25056.000000,21301.000000,20195.000000,55855.000000
25034.000000,21267.000000,20211.000000,55846.000000
25041.000000,21326.000000,20203.000000,55899.000000
25087.000000,21322.000000,20230.000000,55880.000000
25108.000000,21288.000000,20244.000000,55874.000000
25093.000000,21329.000000,20246.000000,55897.000000
25110.000000,21333.000000,20289.000000,55889.000000
25105.000000,21353.000000,20289.000000,55920.000000
25138.000000,21344.000000,20308.000000,55949.000000
25163.000000,21356.000000,20331.000000,55929.000000
25162.000000,21393.000000,20374.000000,55959.000000
25212.000000,21402.000000,20378.000000,55972.000000
25282.000000,21459.000000,20482.000000,56027.000000
25253.000000,21457.000000,20478.000000,56011.000000
25288.000000,21499.000000,20501.000000,56009.000000
25299.000000,21474.000000,20517.000000,56054.000000
25302.000000,21512.000000,20514.000000,56031.000000
25316.000000,21498.000000,20544.000000,56059.000000
25328.000000,21486.000000,20536.000000,56053.000000
25344.000000,21514.000000,20528.000000,56068.000000
25329.000000,21505.000000,20555.000000,56050.000000
25287.000000,21510.000000,20539.000000,56040.000000
25328.000000,21513.000000,20563.000000,56041.000000
25343.000000,21496.000000,20545.000000,56055.000000
25316.000000,21504.000000,20540.000000,56053.000000
25315.000000,21498.000000,20554.000000,56036.000000
25314.000000,21471.000000,20537.000000,56047.000000
25334.000000,21483.000000,20548.000000,56048.000000
25317.000000,21480.000000,20519.000000,56038.000000
25295.000000,21513.000000,20533.000000,56019.000000
25293.000000,21465.000000,20515.000000,56025.000000
25275.000000,21484.000000,20496.000000,56045.000000
25290.000000,21501.000000,20525.000000,56034.000000
25297.000000,21488.000000,20516.000000,56041.000000
25307.000000,21479.000000,20495.000000,56029.000000
25295.000000,21463.000000,20505.000000,56027.000000
25279.000000,21474.000000,20495.000000,56011.000000
25286.000000,21485.000000,20476.000000,56018.000000
25271.000000,21480.000000,20493.000000,55999.000000
25260.000000,21440.000000,20492.000000,56051.000000
25245.000000,21461.000000,20457.000000,56026.000000
25265.000000,21468.000000,20455.000000,56033.000000
25269.000000,21459.000000,20495.000000,56014.000000
25252.000000,21477.000000,20437.000000,56021.000000
25267.000000,21463.000000,20468.000000,56002.000000
25260.000000,21465.000000,20461.000000,56024.000000
25222.000000,21466.000000,20472.000000,56013.000000
25218.000000,21462.000000,20464.000000,56008.000000
25255.000000,21461.000000,20446.000000,56012.000000
25248.000000,21467.000000,20465.000000,56011.000000
25269.000000,21450.000000,20498.000000,56006.000000
25259.000000,21477.000000,20468.000000,55993.000000
25228.000000,21455.000000,20462.000000,56006.000000
25228.000000,21431.000000,20444.000000,55990.000000
25182.000000,21453.000000,20483.000000,56025.000000
25202.000000,21481.000000,20451.000000,55984.000000
25217.000000,21447.000000,20433.000000,55998.000000
25151.000000,21455.000000,20432.000000,55993.000000
25226.000000,21460.000000,20443.000000,55993.000000
25250.000000,21414.000000,20422.000000,56009.000000
25229.000000,21415.000000,20432.000000,55970.000000
25209.000000,21414.000000,20405.000000,55983.000000
25220.000000,21390.000000,20404.000000,55979.000000
25223.000000,21440.000000,20399.000000,55994.000000
25192.000000,21422.000000,20426.000000,55999.000000
25191.000000,21427.000000,20411.000000,55967.000000
25192.000000,21417.000000,20404.000000,55977.000000
25160.000000,21391.000000,20398.000000,55922.000000
25177.000000,21384.000000,20371.000000,55948.000000
25187.000000,21392.000000,20383.000000,55955.000000
25173.000000,21407.000000,20397.000000,55965.000000
25165.000000,21345.000000,20367.000000,55924.000000
25185.000000,21391.000000,20396.000000,55957.000000
25175.000000,21363.000000,20364.000000,55954.000000
25148.000000,21361.000000,20347.000000,55936.000000
25145.000000,21391.000000,20358.000000,55932.000000
25151.000000,21398.000000,20346.000000,55936.000000
25158.000000,21380.000000,20344.000000,55941.000000
25137.000000,21344.000000,20340.000000,55938.000000
25108.000000,21350.000000,20343.000000,55893.000000
25134.000000,21373.000000,20334.000000,55929.000000
25109.000000,21359.000000,20361.000000,55895.000000
25114.000000,21392.000000,20331.000000,55933.000000
25115.000000,21351.000000,20322.000000,55950.000000
25118.000000,21355.000000,20332.000000,55938.000000
25149.000000,21343.000000,20322.000000,55946.000000
25100.000000,21366.000000,20320.000000,55916.000000
25098.000000,21322.000000,20327.000000,55913.000000
25089.000000,21357.000000,20316.000000,55885.000000
25122.000000,21326.000000,20315.000000,55916.000000
25070.000000,21337.000000,20308.000000,55920.000000
25077.000000,21349.000000,20289.000000,55941.000000
25060.000000,21338.000000,20313.000000,55908.000000
25080.000000,21339.000000,20304.000000,55905.000000
25094.000000,21358.000000,20328.000000,55924.000000
25106.000000,21376.000000,20285.000000,55927.000000
25079.000000,21355.000000,20307.000000,55901.000000
25064.000000,21350.000000,20320.000000,55920.000000
25051.000000,21333.000000,20299.000000,55910.000000
25094.000000,21322.000000,20305.000000,55925.000000
25098.000000,21345.000000,20342.000000,55924.000000
25089.000000,21310.000000,20291.000000,55911.000000
25040.000000,21337.000000,20311.000000,55903.000000
25078.000000,21332.000000,20323.000000,55950.000000
25082.000000,21344.000000,20301.000000,55896.000000
25089.000000,21322.000000,20309.000000,55928.000000
25046.000000,21363.000000,20315.000000,55907.000000
25075.000000,21366.000000,20356.000000,55924.000000
25097.000000,21365.000000,20334.000000,55932.000000
25092.000000,21347.000000,20309.000000,55929.000000
25072.000000,21340.000000,20325.000000,55919.000000
25080.000000,21345.000000,20283.000000,55940.000000
25068.000000,21309.000000,20308.000000,55913.000000
25061.000000,21330.000000,20308.000000,55921.000000
25048.000000,21351.000000,20309.000000,55919.000000
25073.000000,21325.000000,20289.000000,55944.000000
25047.000000,21315.000000,20286.000000,55907.000000
25033.000000,21325.000000,20285.000000,55910.000000
25038.000000,21348.000000,20281.000000,55898.000000
25063.000000,21332.000000,20291.000000,55910.000000
25060.000000,21322.000000,20297.000000,55868.000000
25033.000000,21307.000000,20256.000000,55871.000000
25006.000000,21308.000000,20254.000000,55855.000000
25046.000000,21294.000000,20290.000000,55895.000000
25028.000000,21319.000000,20282.000000,55920.000000
25049.000000,21308.000000,20254.000000,55900.000000
25043.000000,21324.000000,20285.000000,55902.000000
25027.000000,21343.000000,20267.000000,55889.000000
25057.000000,21296.000000,20304.000000,55880.000000
25078.000000,21285.000000,20277.000000,55891.000000
25030.000000,21320.000000,20273.000000,55876.000000
25025.000000,21315.000000,20324.000000,55888.000000
25057.000000,21322.000000,20267.000000,55887.000000
25055.000000,21320.000000,20290.000000,55881.000000
25036.000000,21337.000000,20302.000000,55909.000000
25039.000000,21294.000000,20249.000000,55890.000000
25029.000000,21300.000000,20282.000000,55875.000000
25016.000000,21316.000000,20292.000000,55899.000000
25046.000000,21301.000000,20285.000000,55899.000000
24996.000000,21304.000000,20287.000000,55893.000000
25055.000000,21318.000000,20295.000000,55896.000000
25039.000000,21335.000000,20291.000000,55927.000000
25057.000000,21327.000000,20326.000000,55898.000000
25058.000000,21313.000000,20331.000000,55899.000000
25055.000000,21319.000000,20338.000000,55936.000000
25065.000000,21368.000000,20345.000000,55940.000000
25064.000000,21343.000000,20384.000000,55943.000000
25034.000000,21348.000000,20350.000000,55948.000000
25072.000000,21373.000000,20390.000000,55970.000000
25148.000000,21372.000000,20383.000000,55971.000000
25161.000000,21396.000000,20369.000000,55987.000000
25153.000000,21392.000000,20436.000000,55972.000000
25151.000000,21424.000000,20485.000000,56016.000000
25226.000000,21426.000000,20487.000000,56014.000000
25209.000000,21484.000000,20489.000000,56041.000000
25201.000000,21461.000000,20507.000000,56052.000000
25248.000000,21482.000000,20576.000000,56051.000000
25261.000000,21496.000000,20562.000000,56059.000000
25255.000000,21491.000000,20557.000000,56067.000000
25303.000000,21508.000000,20618.000000,56073.000000
25302.000000,21516.000000,20619.000000,56106.000000
25309.000000,21520.000000,20626.000000,56097.000000
25284.000000,21526.000000,20662.000000,56101.000000
25331.000000,21511.000000,20629.000000,56123.000000
25346.000000,21552.000000,20630.000000,56103.000000
25328.000000,21537.000000,20678.000000,56084.000000
25310.000000,21568.000000,20611.000000,56123.000000
25306.000000,21552.000000,20640.000000,56083.000000
25347.000000,21499.000000,20620.000000,56097.000000
25275.000000,21522.000000,20630.000000,56097.000000
25330.000000,21517.000000,20619.000000,56106.000000
25328.000000,21516.000000,20616.000000,56086.000000
25307.000000,21538.000000,20603.000000,56121.000000
25291.000000,21497.000000,20616.000000,56072.000000
25295.000000,21515.000000,20577.000000,56073.000000
25285.000000,21505.000000,20612.000000,56071.000000
25297.000000,21470.000000,20591.000000,56070.000000
25275.000000,21490.000000,20609.000000,56071.000000
25271.000000,21497.000000,20583.000000,56060.000000
25271.000000,21498.000000,20586.000000,56065.000000
25284.000000,21475.000000,20578.000000,56086.000000
25258.000000,21480.000000,20571.000000,56087.000000
25273.000000,21532.000000,20582.000000,56061.000000
25303.000000,21518.000000,20576.000000,56065.000000
25254.000000,21495.000000,20564.000000,56074.000000
25262.000000,21496.000000,20568.000000,56061.000000
25293.000000,21491.000000,20567.000000,56086.000000
25297.000000,21493.000000,20556.000000,56046.000000
25242.000000,21483.000000,20537.000000,56042.000000
25272.000000,21495.000000,20536.000000,56078.000000
25269.000000,21471.000000,20557.000000,56072.000000
25276.000000,21502.000000,20554.000000,56066.000000
25203.000000,21498.000000,20550.000000,56065.000000
25270.000000,21484.000000,20542.000000,56067.000000
25252.000000,21474.000000,20506.000000,56035.000000
25262.000000,21469.000000,20530.000000,56046.000000
25283.000000,21481.000000,20525.000000,56045.000000
25241.000000,21470.000000,20493.000000,56059.000000
25229.000000,21460.000000,20488.000000,56042.000000
25222.000000,21458.000000,20494.000000,56013.000000
25218.000000,21429.000000,20498.000000,56051.000000
25220.000000,21455.000000,20493.000000,56034.000000
25213.000000,21451.000000,20477.000000,56044.000000
25229.000000,21457.000000,20504.000000,56005.000000
25197.000000,21453.000000,20469.000000,56010.000000
25233.000000,21451.000000,20461.000000,56008.000000
25200.000000,21423.000000,20458.000000,55986.000000
25188.000000,21442.000000,20479.000000,56033.000000
25205.000000,21434.000000,20457.000000,56014.000000
25214.000000,21422.000000,20482.000000,56017.000000
25222.000000,21459.000000,20458.000000,56038.000000
25194.000000,21428.000000,20476.000000,56007.000000
25194.000000,21425.000000,20455.000000,56015.000000
25206.000000,21441.000000,20466.000000,55998.000000
25196.000000,21424.000000,20426.000000,55982.000000
25185.000000,21433.000000,20469.000000,56021.000000
25202.000000,21408.000000,20442.000000,55973.000000
25158.000000,21428.000000,20427.000000,56017.000000
25184.000000,21406.000000,20443.000000,55995.000000
25211.000000,21427.000000,20432.000000,55989.000000
25158.000000,21397.000000,20398.000000,55999.000000
25170.000000,21391.000000,20418.000000,55972.000000
25174.000000,21380.000000,20425.000000,55949.000000
25145.000000,21375.000000,20403.000000,55971.000000
25142.000000,21377.000000,20383.000000,55933.000000
25136.000000,21384.000000,20378.000000,55939.000000
25145.000000,21403.000000,20407.000000,55962.000000
25173.000000,21371.000000,20380.000000,55972.000000
25162.000000,21363.000000,20373.000000,55954.000000
25141.000000,21359.000000,20379.000000,55957.000000
25144.000000,21379.000000,20388.000000,55951.000000
25149.000000,21390.000000,20395.000000,55943.000000
25128.000000,21409.000000,20377.000000,55966.000000
25122.000000,21408.000000,20417.000000,55969.000000
25181.000000,21420.000000,20403.000000,55984.000000
25150.000000,21413.000000,20401.000000,55985.000000
25144.000000,21401.000000,20408.000000,55972.000000
25145.000000,21391.000000,20417.000000,56005.000000
25147.000000,21412.000000,20414.000000,55981.000000
25144.000000,21409.000000,20380.000000,55965.000000
25174.000000,21418.000000,20415.000000,55966.000000
25121.000000,21389.000000,20393.000000,55992.000000
25168.000000,21421.000000,20406.000000,55991.000000
25156.000000,21384.000000,20394.000000,55968.000000
25160.000000,21384.000000,20388.000000,55986.000000
25162.000000,21380.000000,20406.000000,55957.000000
25137.000000,21390.000000,20390.000000,55976.000000
25161.000000,21369.000000,20388.000000,55984.000000
25140.000000,21384.000000,20387.000000,55972.000000
25202.000000,21353.000000,20382.000000,55985.000000
25122.000000,21383.000000,20377.000000,55953.000000
25115.000000,21365.000000,20362.000000,55980.000000
25120.000000,21356.000000,20359.000000,55972.000000
25109.000000,21387.000000,20363.000000,55987.000000
25146.000000,21390.000000,20366.000000,55967.000000
25127.000000,21365.000000,20389.000000,55945.000000
25134.000000,21366.000000,20372.000000,55965.000000
25137.000000,21385.000000,20367.000000,55953.000000
25121.000000,21372.000000,20367.000000,55986.000000
25143.000000,21362.000000,20383.000000,55944.000000
25126.000000,21384.000000,20386.000000,55939.000000
25128.000000,21389.000000,20353.000000,55966.000000
25137.000000,21352.000000,20366.000000,55941.000000
25112.000000,21368.000000,20361.000000,55978.000000
25135.000000,21370.000000,20352.000000,55958.000000
25121.000000,21371.000000,20392.000000,55949.000000
25101.000000,21375.000000,20345.000000,55934.000000
25087.000000,21385.000000,20368.000000,55945.000000
25112.000000,21365.000000,20358.000000,55937.000000
25063.000000,21339.000000,20346.000000,55952.000000
25120.000000,21366.000000,20338.000000,55924.000000
25124.000000,21364.000000,20364.000000,55937.000000
25121.000000,21355.000000,20361.000000,55935.000000
25091.000000,21365.000000,20334.000000,55933.000000
25143.000000,21389.000000,20337.000000,55934.000000
25092.000000,21324.000000,20342.000000,55950.000000
25137.000000,21389.000000,20348.000000,55937.000000
25104.000000,21380.000000,20362.000000,55941.000000
25131.000000,21362.000000,20338.000000,55950.000000
25155.000000,21383.000000,20353.000000,55954.000000
25128.000000,21358.000000,20362.000000,55993.000000
25129.000000,21379.000000,20410.000000,55972.000000
25140.000000,21392.000000,20414.000000,55984.000000
25129.000000,21391.000000,20383.000000,55995.000000
25164.000000,21398.000000,20416.000000,55991.000000
25174.000000,21426.000000,20413.000000,55972.000000
25200.000000,21413.000000,20458.000000,56034.000000
25205.000000,21425.000000,20454.000000,56018.000000
25228.000000,21449.000000,20492.000000,56042.000000
25215.000000,21455.000000,20531.000000,56053.000000
25263.000000,21431.000000,20519.000000,56062.000000
25267.000000,21469.000000,20560.000000,56051.000000
25274.000000,21498.000000,20581.000000,56103.000000
25308.000000,21526.000000,20610.000000,56097.000000
25335.000000,21536.000000,20631.000000,56101.000000
25365.000000,21534.000000,20630.000000,56141.000000
25347.000000,21522.000000,20656.000000,56129.000000
25381.000000,21507.000000,20697.000000,56155.000000
25370.000000,21577.000000,20690.000000,56147.000000
25350.000000,21593.000000,20690.000000,56149.000000
25396.000000,21614.000000,20719.000000,56163.000000
25402.000000,21615.000000,20744.000000,56148.000000
25419.000000,21591.000000,20700.000000,56200.000000
25392.000000,21571.000000,20692.000000,56153.000000
25405.000000,21567.000000,20670.000000,56150.000000
25403.000000,21585.000000,20714.000000,56156.000000
25400.000000,21533.000000,20683.000000,56152.000000
25411.000000,21577.000000,20709.000000,56167.000000
25379.000000,21557.000000,20695.000000,56137.000000
25382.000000,21600.000000,20703.000000,56110.000000
25394.000000,21560.000000,20683.000000,56120.000000
25385.000000,21584.000000,20686.000000,56182.000000
25375.000000,21572.000000,20665.000000,56137.000000
25350.000000,21540.000000,20684.000000,56145.000000
25380.000000,21571.000000,20682.000000,56143.000000
25394.000000,21564.000000,20675.000000,56165.000000
25379.000000,21566.000000,20650.000000,56153.000000
25368.000000,21535.000000,20667.000000,56132.000000
25360.000000,21564.000000,20676.000000,56108.000000
25384.000000,21559.000000,20641.000000,56127.000000
25337.000000,21562.000000,20650.000000,56112.000000
25344.000000,21542.000000,20640.000000,56116.000000
25357.000000,21559.000000,20634.000000,56125.000000
25346.000000,21545.000000,20632.000000,56104.000000
25335.000000,21563.000000,20626.000000,56122.000000
25361.000000,21541.000000,20643.000000,56121.000000
25372.000000,21538.000000,20669.000000,56126.000000
25354.000000,21536.000000,20646.000000,56128.000000
25366.000000,21535.000000,20634.000000,56102.000000
25344.000000,21531.000000,20626.000000,56132.000000
25328.000000,21521.000000,20599.000000,56111.000000
25335.000000,21535.000000,20598.000000,56075.000000
25334.000000,21501.000000,20611.000000,56076.000000
25327.000000,21490.000000,20612.000000,56082.000000
25321.000000,21518.000000,20628.000000,56120.000000
25325.000000,21507.000000,20612.000000,56098.000000
25294.000000,21510.000000,20599.000000,56104.000000
25329.000000,21529.000000,20616.000000,56100.000000
25342.000000,21507.000000,20604.000000,56123.000000
25315.000000,21511.000000,20614.000000,56082.000000
25323.000000,21496.000000,20598.000000,56091.000000
25347.000000,21507.000000,20574.000000,56104.000000
25311.000000,21495.000000,20572.000000,56087.000000
25306.000000,21521.000000,20564.000000,56094.000000
25310.000000,21487.000000,20559.000000,56097.000000
25310.000000,21502.000000,20548.000000,56081.000000
25277.000000,21514.000000,20542.000000,56074.000000
25306.000000,21523.000000,20576.000000,56069.000000
25294.000000,21500.000000,20567.000000,56087.000000
25332.000000,21514.000000,20556.000000,56076.000000
25291.000000,21501.000000,20576.000000,56060.000000
25289.000000,21498.000000,20518.000000,56073.000000
25303.000000,21479.000000,20539.000000,56064.000000
25283.000000,21480.000000,20533.000000,56071.000000
25260.000000,21495.000000,20518.000000,56047.000000
25276.000000,21481.000000,20562.000000,56049.000000
25272.000000,21458.000000,20487.000000,56001.000000
25250.000000,21477.000000,20530.000000,56050.000000
25263.000000,21495.000000,20511.000000,56046.000000
25264.000000,21487.000000,20504.000000,56051.000000
25265.000000,21477.000000,20492.000000,56035.000000
25276.000000,21483.000000,20512.000000,56026.000000
25251.000000,21468.000000,20518.000000,56050.000000
25273.000000,21432.000000,20473.000000,56034.000000
25248.000000,21483.000000,20499.000000,56063.000000
25242.000000,21452.000000,20522.000000,56048.000000
25345.000000,21433.000000,20498.000000,56019.000000
25236.000000,21447.000000,20485.000000,56015.000000
25224.000000,21437.000000,20483.000000,56054.000000
25236.000000,21462.000000,20484.000000,56019.000000
25245.000000,21486.000000,20492.000000,56043.000000
25234.000000,21472.000000,20503.000000,56031.000000
25248.000000,21466.000000,20508.000000,56035.000000
25220.000000,21447.000000,20502.000000,56033.000000
25260.000000,21455.000000,20485.000000,56021.000000
25241.000000,21464.000000,20499.000000,56051.000000
25256.000000,21477.000000,20474.000000,56033.000000
25234.000000,21450.000000,20514.000000,56042.000000
25250.000000,21466.000000,20478.000000,56053.000000
25269.000000,21368.000000,20503.000000,56046.000000
25254.000000,21467.000000,20495.000000,56015.000000
25273.000000,21496.000000,20479.000000,56019.000000
25197.000000,21467.000000,20488.000000,56045.000000
25239.000000,21453.000000,20500.000000,56041.000000
25263.000000,21468.000000,20513.000000,56023.000000
25299.000000,21447.000000,20503.000000,56039.000000
25234.000000,21470.000000,20502.000000,56037.000000
25271.000000,21466.000000,20487.000000,56040.000000
25212.000000,21441.000000,20462.000000,56017.000000
25241.000000,21475.000000,20481.000000,56065.000000
25224.000000,21457.000000,20472.000000,56030.000000
25225.000000,21464.000000,20461.000000,56021.000000
25226.000000,21456.000000,20458.000000,56033.000000
25219.000000,21469.000000,20472.000000,56008.000000
25246.000000,21436.000000,20442.000000,56000.000000
25187.000000,21439.000000,20410.000000,56009.000000
25243.000000,21429.000000,20447.000000,55980.000000
25208.000000,21435.000000,20406.000000,55993.000000
25205.000000,21437.000000,20444.000000,56005.000000
25246.000000,21426.000000,20451.000000,56001.000000
25217.000000,21430.000000,20455.000000,55990.000000
25223.000000,21428.000000,20465.000000,56040.000000
25206.000000,21437.000000,20438.000000,56008.000000
25178.000000,21435.000000,20429.000000,56002.000000
25207.000000,21424.000000,20438.000000,56004.000000
25213.000000,21420.000000,20453.000000,56012.000000
25208.000000,21441.000000,20435.000000,56011.000000
25214.000000,21449.000000,20439.000000,55997.000000
25228.000000,21419.000000,20435.000000,55996.000000
25209.000000,21442.000000,20420.000000,56020.000000
25239.000000,21453.000000,20425.000000,56005.000000
25227.000000,21440.000000,20443.000000,56004.000000
25243.000000,21422.000000,20464.000000,55997.000000
25265.000000,21459.000000,20434.000000,56026.000000
25210.000000,21454.000000,20452.000000,55994.000000
25230.000000,21457.000000,20447.000000,56031.000000
25236.000000,21426.000000,20469.000000,56032.000000
25246.000000,21463.000000,20483.000000,56024.000000
25253.000000,21433.000000,20457.000000,56033.000000
25235.000000,21463.000000,20496.000000,56041.000000
25246.000000,21471.000000,20490.000000,56050.000000
25270.000000,21476.000000,20519.000000,56050.000000
25273.000000,21476.000000,20519.000000,56083.000000
25287.000000,21501.000000,20558.000000,56070.000000
25315.000000,21507.000000,20573.000000,56085.000000
25337.000000,21500.000000,20569.000000,56107.000000
25347.000000,21531.000000,20587.000000,56103.000000
25348.000000,21522.000000,20630.000000,56130.000000
25378.000000,21555.000000,20623.000000,56143.000000
25390.000000,21553.000000,20665.000000,56149.000000
25364.000000,21571.000000,20696.000000,56164.000000
25421.000000,21571.000000,20692.000000,56158.000000
25402.000000,21593.000000,20714.000000,56162.000000
25439.000000,21590.000000,20732.000000,56182.000000
25424.000000,21601.000000,20754.000000,56169.000000
25442.000000,21618.000000,20728.000000,56167.000000
25467.000000,21597.000000,20735.000000,56169.000000
25423.000000,21585.000000,20767.000000,56190.000000
25456.000000,21546.000000,20765.000000,56193.000000
25461.000000,21598.000000,20740.000000,56199.000000
25491.000000,21610.000000,20735.000000,56211.000000
25445.000000,21642.000000,20744.000000,56231.000000
25448.000000,21609.000000,20750.000000,56208.000000
25500.000000,21614.000000,20753.000000,56177.000000
25436.000000,21621.000000,20708.000000,56179.000000
25465.000000,21606.000000,20719.000000,56177.000000
25436.000000,21602.000000,20724.000000,56151.000000
25428.000000,21591.000000,20731.000000,56187.000000
25441.000000,21630.000000,20717.000000,56179.000000
25442.000000,21579.000000,20715.000000,56138.000000
25429.000000,21602.000000,20730.000000,56176.000000
25452.000000,21619.000000,20725.000000,56166.000000
25428.000000,21560.000000,20688.000000,56180.000000
25462.000000,21588.000000,20715.000000,56151.000000
25426.000000,21606.000000,20715.000000,56184.000000
25434.000000,21596.000000,20701.000000,56160.000000
25435.000000,21574.000000,20664.000000,56174.000000
25417.000000,21563.000000,20678.000000,56139.000000
25403.000000,21570.000000,20672.000000,56148.000000
25434.000000,21580.000000,20635.000000,56168.000000
25422.000000,21578.000000,20671.000000,56142.000000
25400.000000,21614.000000,20681.000000,56168.000000
25430.000000,21584.000000,20685.000000,56143.000000
25442.000000,21569.000000,20698.000000,56154.000000
25378.000000,21558.000000,20671.000000,56136.000000
25421.000000,21570.000000,20674.000000,56161.000000
25421.000000,21561.000000,20674.000000,56156.000000
25400.000000,21578.000000,20630.000000,56123.000000
25396.000000,21575.000000,20645.000000,56132.000000
25421.000000,21569.000000,20665.000000,56124.000000
25429.000000,21549.000000,20655.000000,56123.000000
25402.000000,21574.000000,20638.000000,56146.000000
25406.000000,21553.000000,20663.000000,56122.000000
25413.000000,21534.000000,20664.000000,56159.000000
25411.000000,21547.000000,20650.000000,56121.000000
25375.000000,21560.000000,20652.000000,56138.000000
25398.000000,21561.000000,20632.000000,56122.000000
25391.000000,21554.000000,20650.000000,56139.000000
25373.000000,21532.000000,20619.000000,56122.000000
25403.000000,21555.000000,20640.000000,56123.000000
25383.000000,21535.000000,20634.000000,56128.000000
25403.000000,21534.000000,20622.000000,56126.000000
25384.000000,21517.000000,20606.000000,56100.000000
25375.000000,21541.000000,20583.000000,56113.000000
25356.000000,21530.000000,20583.000000,56089.000000
25357.000000,21522.000000,20605.000000,56111.000000
25335.000000,21514.000000,20590.000000,56108.000000
25348.000000,21538.000000,20572.000000,56080.000000
25341.000000,21514.000000,20579.000000,56081.000000
25348.000000,21486.000000,20573.000000,56090.000000
25328.000000,21507.000000,20576.000000,56080.000000
25324.000000,21510.000000,20559.000000,56096.000000
25317.000000,21489.000000,20560.000000,56084.000000
25309.000000,21512.000000,20557.000000,56093.000000
25315.000000,21524.000000,20541.000000,56081.000000
25305.000000,21522.000000,20572.000000,56085.000000
25364.000000,21503.000000,20573.000000,56090.000000
25327.000000,21507.000000,20562.000000,56079.000000
25329.000000,21510.000000,20593.000000,56086.000000
25320.000000,21510.000000,20547.000000,56086.000000
25323.000000,21575.000000,20595.000000,56082.000000
25324.000000,21509.000000,20573.000000,56097.000000
25336.000000,21486.000000,20603.000000,56080.000000
25311.000000,21534.000000,20590.000000,56089.000000
25305.000000,21541.000000,20552.000000,56089.000000
25322.000000,21500.000000,20556.000000,56054.000000
25329.000000,21505.000000,20570.000000,56069.000000
25307.000000,21493.000000,20558.000000,56070.000000
25345.000000,21474.000000,20573.000000,56084.000000
25322.000000,21513.000000,20580.000000,56096.000000
25311.000000,21499.000000,20561.000000,56046.000000
25328.000000,21547.000000,20574.000000,56096.000000
25330.000000,21501.000000,20583.000000,56086.000000
25326.000000,21505.000000,20572.000000,56065.000000
25328.000000,21509.000000,20581.000000,56085.000000
25330.000000,21525.000000,20580.000000,56089.000000
25330.000000,21503.000000,20586.000000,56086.000000
25340.000000,21501.000000,20613.000000,56106.000000
25345.000000,21501.000000,20569.000000,56100.000000
25334.000000,21503.000000,20586.000000,56094.000000
25337.000000,21530.000000,20581.000000,56087.000000
25334.000000,21497.000000,20574.000000,56081.000000
25345.000000,21498.000000,20589.000000,56082.000000
25342.000000,21501.000000,20545.000000,56100.000000
25337.000000,21507.000000,20580.000000,56086.000000
25342.000000,21508.000000,20560.000000,56069.000000
25332.000000,21538.000000,20554.000000,56076.000000
25333.000000,21481.000000,20536.000000,56093.000000
25280.000000,21524.000000,20547.000000,56088.000000
25321.000000,21479.000000,20560.000000,56073.000000
25326.000000,21480.000000,20551.000000,56087.000000
25308.000000,21513.000000,20554.000000,56082.000000
25297.000000,21499.000000,20548.000000,56034.000000
25333.000000,21508.000000,20553.000000,56044.000000
25330.000000,21496.000000,20522.000000,56067.000000
25330.000000,21503.000000,20531.000000,56065.000000
25332.000000,21497.000000,20552.000000,56073.000000
25305.000000,21531.000000,20535.000000,56091.000000
25302.000000,21515.000000,20507.000000,56069.000000
25326.000000,21474.000000,20510.000000,56045.000000
25319.000000,21483.000000,20524.000000,56082.000000
25311.000000,21493.000000,20570.000000,56054.000000
25292.000000,21493.000000,20541.000000,56067.000000
25284.000000,21508.000000,20559.000000,56085.000000
25317.000000,21494.000000,20548.000000,56072.000000
25293.000000,21469.000000,20554.000000,56065.000000
25288.000000,21480.000000,20521.000000,56049.000000
25328.000000,21480.000000,20552.000000,56043.000000
25309.000000,21473.000000,20529.000000,56076.000000
25303.000000,21490.000000,20548.000000,56073.000000
25334.000000,21517.000000,20604.000000,56083.000000
25357.000000,21515.000000,20551.000000,56104.000000
25354.000000,21526.000000,20602.000000,56095.000000
25355.000000,21515.000000,20583.000000,56124.000000
25389.000000,21543.000000,20617.000000,56123.000000
25386.000000,21513.000000,20649.000000,56139.000000
25384.000000,21561.000000,20659.000000,56174.000000
25403.000000,21576.000000,20695.000000,56171.000000
25429.000000,21595.000000,20724.000000,56199.000000
25455.000000,21602.000000,20731.000000,56163.000000
25463.000000,21618.000000,20721.000000,56180.000000
25502.000000,21595.000000,20763.000000,56213.000000
25474.000000,21618.000000,20771.000000,56193.000000
25512.000000,21664.000000,20785.000000,56225.000000
25507.000000,21629.000000,20784.000000,56200.000000
25512.000000,21641.000000,20801.000000,56198.000000
25527.000000,21694.000000,20814.000000,56216.000000
25544.000000,21655.000000,20821.000000,56238.000000
25537.000000,21664.000000,20838.000000,56262.000000
25550.000000,21685.000000,20828.000000,56218.000000
25537.000000,21661.000000,20836.000000,56209.000000
25557.000000,21657.000000,20822.000000,56227.000000
25544.000000,21658.000000,20809.000000,56243.000000
25523.000000,21677.000000,20796.000000,56201.000000
25537.000000,21657.000000,20796.000000,56231.000000
25527.000000,21672.000000,20778.000000,56230.000000
25547.000000,21659.000000,20787.000000,56246.000000
25537.000000,21637.000000,20811.000000,56204.000000
25536.000000,21646.000000,20814.000000,56223.000000
25512.000000,21645.000000,20820.000000,56222.000000
25539.000000,21617.000000,20782.000000,56193.000000
25529.000000,21679.000000,20771.000000,56241.000000
25499.000000,21628.000000,20792.000000,56186.000000
25526.000000,21663.000000,20753.000000,56225.000000
25529.000000,21646.000000,20778.000000,56223.000000
25529.000000,21668.000000,20773.000000,56201.000000
25520.000000,21659.000000,20787.000000,56216.000000
25533.000000,21687.000000,20774.000000,56232.000000
25505.000000,21643.000000,20744.000000,56205.000000
25513.000000,21624.000000,20775.000000,56201.000000
25521.000000,21649.000000,20748.000000,56227.000000
25517.000000,21635.000000,20757.000000,56198.000000
25516.000000,21635.000000,20755.000000,56175.000000
25498.000000,21623.000000,20753.000000,56222.000000
25480.000000,21622.000000,20729.000000,56206.000000
25505.000000,21646.000000,20761.000000,56225.000000
25520.000000,21591.000000,20716.000000,56196.000000
25491.000000,21607.000000,20717.000000,56174.000000
25501.000000,21618.000000,20693.000000,56186.000000
25482.000000,21612.000000,20717.000000,56176.000000
25533.000000,21617.000000,20697.000000,56164.000000
25497.000000,21654.000000,20716.000000,56154.000000
25501.000000,21590.000000,20698.000000,56184.000000
25480.000000,21618.000000,20719.000000,56164.000000
25483.000000,21630.000000,20680.000000,56150.000000
25489.000000,21607.000000,20690.000000,56187.000000
25493.000000,21602.000000,20745.000000,56126.000000
25464.000000,21622.000000,20676.000000,56154.000000
25482.000000,21603.000000,20668.000000,56137.000000
25486.000000,21608.000000,20684.000000,56159.000000
25451.000000,21599.000000,20657.000000,56180.000000
25423.000000,21596.000000,20691.000000,56153.000000
25474.000000,21606.000000,20660.000000,56140.000000
25460.000000,21576.000000,20663.000000,56106.000000
25452.000000,21586.000000,20682.000000,56118.000000
25456.000000,21611.000000,20630.000000,56153.000000
25428.000000,21580.000000,20642.000000,56146.000000
25450.000000,21567.000000,20635.000000,56139.000000
25428.000000,21542.000000,20644.000000,56149.000000
25451.000000,21566.000000,20609.000000,56112.000000
25452.000000,21587.000000,20640.000000,56107.000000
25446.000000,21573.000000,20624.000000,56110.000000
25444.000000,21559.000000,20632.000000,56103.000000
25419.000000,21533.000000,20610.000000,56119.000000
25447.000000,21614.000000,20625.000000,56117.000000
25432.000000,21539.000000,20626.000000,56105.000000
25443.000000,21536.000000,20596.000000,56114.000000
25394.000000,21576.000000,20622.000000,56141.000000
25404.000000,21548.000000,20584.000000,56110.000000
25431.000000,21527.000000,20593.000000,56086.000000
25423.000000,21555.000000,20600.000000,56094.000000
25434.000000,21540.000000,20608.000000,56106.000000
25432.000000,21554.000000,20582.000000,56115.000000
25421.000000,21571.000000,20596.000000,56111.000000
25463.000000,21554.000000,20591.000000,56138.000000
25447.000000,21556.000000,20593.000000,56090.000000
25437.000000,21519.000000,20595.000000,56108.000000
25440.000000,21573.000000,20596.000000,56117.000000
25437.000000,21533.000000,20600.000000,56106.000000
25433.000000,21566.000000,20606.000000,56129.000000
25420.000000,21566.000000,20587.000000,56086.000000
25465.000000,21547.000000,20591.000000,56102.000000
25404.000000,21539.000000,20611.000000,56100.000000
25429.000000,21566.000000,20609.000000,56130.000000
25439.000000,21542.000000,20622.000000,56137.000000
25444.000000,21573.000000,20593.000000,56118.000000
25447.000000,21580.000000,20600.000000,56142.000000
25395.000000,21565.000000,20605.000000,56109.000000
25388.000000,21579.000000,20629.000000,56109.000000
25440.000000,21529.000000,20637.000000,56128.000000
25431.000000,21555.000000,20635.000000,56134.000000
25431.000000,21562.000000,20577.000000,56108.000000
25416.000000,21547.000000,20569.000000,56123.000000
25440.000000,21570.000000,20582.000000,56099.000000
25434.000000,21573.000000,20596.000000,56124.000000
25427.000000,21527.000000,20602.000000,56096.000000
25427.000000,21537.000000,20593.000000,56120.000000
25427.000000,21540.000000,20576.000000,56132.000000
25380.000000,21550.000000,20555.000000,56107.000000
25406.000000,21528.000000,20592.000000,56094.000000
25388.000000,21554.000000,20579.000000,56108.000000
25402.000000,21494.000000,20568.000000,56094.000000
25392.000000,21534.000000,20613.000000,56089.000000
25397.000000,21530.000000,20579.000000,56090.000000
25397.000000,21530.000000,20544.000000,56095.000000
25400.000000,21536.000000,20570.000000,56084.000000
25386.000000,21535.000000,20552.000000,56088.000000
25393.000000,21518.000000,20553.000000,56086.000000
25391.000000,21520.000000,20521.000000,56089.000000
25392.000000,21507.000000,20541.000000,56086.000000
25369.000000,21506.000000,20530.000000,56088.000000
25374.000000,21502.000000,20546.000000,56093.000000
25386.000000,21523.000000,20523.000000,56070.000000
25389.000000,21472.000000,20544.000000,56072.000000
25394.000000,21522.000000,20533.000000,56091.000000
25379.000000,21508.000000,20529.000000,56051.000000
25372.000000,21495.000000,20515.000000,56072.000000
25378.000000,21508.000000,20494.000000,56068.000000
25347.000000,21516.000000,20510.000000,56063.000000
25372.000000,21500.000000,20507.000000,56076.000000
25344.000000,21483.000000,20544.000000,56063.000000
25368.000000,21515.000000,20541.000000,56082.000000
25402.000000,21509.000000,20519.000000,56086.000000
25376.000000,21499.000000,20548.000000,56082.000000
25397.000000,21537.000000,20556.000000,56100.000000
25409.000000,21511.000000,20550.000000,56088.000000
25419.000000,21522.000000,20546.000000,56096.000000
25382.000000,21521.000000,20575.000000,56125.000000
25430.000000,21561.000000,20573.000000,56122.000000
25467.000000,21563.000000,20608.000000,56137.000000
25445.000000,21578.000000,20572.000000,56134.000000
25443.000000,21568.000000,20668.000000,56137.000000
25474.000000,21573.000000,20640.000000,56149.000000
25511.000000,21629.000000,20689.000000,56146.000000
25503.000000,21630.000000,20714.000000,56201.000000
25553.000000,21599.000000,20723.000000,56171.000000
25555.000000,21629.000000,20751.000000,56202.000000
25556.000000,21663.000000,20741.000000,56204.000000
25553.000000,21668.000000,20765.000000,56231.000000
25583.000000,21660.000000,20766.000000,56238.000000
25610.000000,21679.000000,20797.000000,56232.000000
25606.000000,21692.000000,20819.000000,56239.000000
25616.000000,21677.000000,20805.000000,56256.000000
25622.000000,21674.000000,20812.000000,56254.000000
25620.000000,21716.000000,20800.000000,56254.000000
25630.000000,21700.000000,20814.000000,56239.000000
25606.000000,21680.000000,20794.000000,56251.000000
25593.000000,21706.000000,20822.000000,56234.000000
25596.000000,21679.000000,20788.000000,56242.000000
25630.000000,21662.000000,20766.000000,56225.000000
25638.000000,21668.000000,20792.000000,56225.000000
25588.000000,21685.000000,20742.000000,56245.000000
25576.000000,21650.000000,20759.000000,56247.000000
25596.000000,21681.000000,20804.000000,56223.000000
25558.000000,21681.000000,20738.000000,56195.000000
25590.000000,21662.000000,20775.000000,56241.000000
25585.000000,21663.000000,20744.000000,56190.000000
25598.000000,21632.000000,20766.000000,56216.000000
25571.000000,21663.000000,20758.000000,56202.000000
25551.000000,21635.000000,20733.000000,56195.000000
25560.000000,21652.000000,20707.000000,56187.000000
25556.000000,21603.000000,20742.000000,56218.000000
25553.000000,21630.000000,20743.000000,56186.000000
25565.000000,21636.000000,20728.000000,56199.000000
25595.000000,21641.000000,20714.000000,56196.000000
25548.000000,21622.000000,20707.000000,56172.000000
25587.000000,21643.000000,20702.000000,56194.000000
25559.000000,21607.000000,20717.000000,56160.000000
25532.000000,21607.000000,20702.000000,56160.000000
25583.000000,21592.000000,20720.000000,56205.000000
25556.000000,21621.000000,20679.000000,56193.000000
25544.000000,21624.000000,20691.000000,56181.000000
25518.000000,21656.000000,20676.000000,56159.000000
25545.000000,21583.000000,20669.000000,56170.000000
25551.000000,21625.000000,20652.000000,56158.000000
25532.000000,21627.000000,20673.000000,56164.000000
25535.000000,21603.000000,20656.000000,56162.000000
25507.000000,21634.000000,20668.000000,56153.000000
25495.000000,21628.000000,20656.000000,56150.000000
25556.000000,21614.000000,20670.000000,56153.000000
25517.000000,21600.000000,20615.000000,56149.000000
25513.000000,21609.000000,20653.000000,56131.000000
25518.000000,21594.000000,20649.000000,56143.000000
25512.000000,21588.000000,20639.000000,56140.000000
25477.000000,21583.000000,20625.000000,56167.000000
25499.000000,21567.000000,20630.000000,56142.000000
25512.000000,21606.000000,20607.000000,56134.000000
25477.000000,21582.000000,20596.000000,56122.000000
25473.000000,21565.000000,20629.000000,56113.000000
25483.000000,21565.000000,20601.000000,56100.000000
25499.000000,21557.000000,20631.000000,56131.000000
25465.000000,21560.000000,20598.000000,56112.000000
25492.000000,21580.000000,20582.000000,56130.000000
25484.000000,21585.000000,20595.000000,56150.000000
25487.000000,21555.000000,20576.000000,56113.000000
25477.000000,21544.000000,20587.000000,56073.000000
25461.000000,21559.000000,20554.000000,56113.000000
25442.000000,21547.000000,20543.000000,56095.000000
25479.000000,21539.000000,20579.000000,56120.000000
25438.000000,21538.000000,20559.000000,56095.000000
25470.000000,21571.000000,20567.000000,56108.000000
25463.000000,21567.000000,20562.000000,56077.000000
25448.000000,21518.000000,20518.000000,56082.000000
25433.000000,21529.000000,20566.000000,56101.000000
25420.000000,21541.000000,20540.000000,56113.000000
25433.000000,21517.000000,20530.000000,56111.000000
25431.000000,21539.000000,20553.000000,56094.000000
25419.000000,21513.000000,20552.000000,56116.000000
25456.000000,21529.000000,20516.000000,56081.000000
25448.000000,21533.000000,20522.000000,56060.000000
25422.000000,21517.000000,20522.000000,56078.000000
25404.000000,21537.000000,20512.000000,56079.000000
25429.000000,21545.000000,20540.000000,56097.000000
25437.000000,21525.000000,20509.000000,56085.000000
25425.000000,21542.000000,20505.000000,56080.000000
25445.000000,21509.000000,20520.000000,56071.000000
25500.000000,21495.000000,20513.000000,56105.000000
25426.000000,21509.000000,20525.000000,56085.000000
25438.000000,21525.000000,20536.000000,56081.000000
25509.000000,21543.000000,20536.000000,56092.000000
25444.000000,21561.000000,20541.000000,56112.000000
25457.000000,21563.000000,20546.000000,56118.000000
25453.000000,21522.000000,20531.000000,56098.000000
25433.000000,21529.000000,20535.000000,56084.000000
25433.000000,21523.000000,20541.000000,56076.000000
25446.000000,21544.000000,20525.000000,56084.000000
25460.000000,21534.000000,20541.000000,56061.000000
25424.000000,21531.000000,20533.000000,56084.000000
25445.000000,21545.000000,20545.000000,56086.000000
25468.000000,21542.000000,20543.000000,56096.000000
25453.000000,21512.000000,20519.000000,56077.000000
25463.000000,21538.000000,20552.000000,56095.000000
25447.000000,21527.000000,20544.000000,56105.000000
25460.000000,21521.000000,20516.000000,56087.000000
25422.000000,21556.000000,20538.000000,56065.000000
25450.000000,21552.000000,20517.000000,56080.000000
25450.000000,21525.000000,20529.000000,56057.000000
25437.000000,21531.000000,20510.000000,56056.000000
25420.000000,21537.000000,20500.000000,56058.000000
25447.000000,21498.000000,20510.000000,56080.000000
25413.000000,21523.000000,20524.000000,56052.000000
25423.000000,21509.000000,20506.000000,56046.000000
25427.000000,21531.000000,20511.000000,56066.000000
25416.000000,21503.000000,20494.000000,56069.000000
25416.000000,21503.000000,20496.000000,56057.000000
25410.000000,21503.000000,20508.000000,56055.000000
25420.000000,21479.000000,20507.000000,56054.000000
25389.000000,21512.000000,20528.000000,56048.000000
25417.000000,21507.000000,20533.000000,56064.000000
25416.000000,21519.000000,20511.000000,56085.000000
25444.000000,21510.000000,20500.000000,56089.000000
25414.000000,21517.000000,20515.000000,56078.000000
25447.000000,21525.000000,20546.000000,56072.000000
25448.000000,21535.000000,20532.000000,56084.000000
25434.000000,21496.000000,20540.000000,56091.000000
25435.000000,21554.000000,20520.000000,56069.000000
25416.000000,21503.000000,20557.000000,56095.000000
25456.000000,21555.000000,20534.000000,56098.000000
25476.000000,21541.000000,20577.000000,56113.000000
25445.000000,21556.000000,20564.000000,56113.000000
25456.000000,21538.000000,20554.000000,56117.000000
25491.000000,21559.000000,20589.000000,56136.000000
25505.000000,21579.000000,20596.000000,56144.000000
25493.000000,21575.000000,20615.000000,56135.000000
25516.000000,21593.000000,20657.000000,56162.000000
25519.000000,21593.000000,20660.000000,56145.000000
25537.000000,21625.000000,20677.000000,56156.000000
25561.000000,21613.000000,20673.000000,56197.000000
25551.000000,21640.000000,20719.000000,56189.000000
25587.000000,21626.000000,20744.000000,56188.000000
25593.000000,21658.000000,20753.000000,56211.000000
25607.000000,21672.000000,20746.000000,56231.000000
25574.000000,21655.000000,20790.000000,56226.000000
25653.000000,21693.000000,20793.000000,56260.000000
25630.000000,21692.000000,20821.000000,56257.000000
25679.000000,21696.000000,20809.000000,56260.000000
25661.000000,21710.000000,20825.000000,56274.000000
25658.000000,21703.000000,20822.000000,56245.000000
25683.000000,21713.000000,20826.000000,56273.000000
25652.000000,21708.000000,20812.000000,56240.000000
25677.000000,21708.000000,20840.000000,56263.000000
25631.000000,21722.000000,20822.000000,56263.000000
25679.000000,21700.000000,20808.000000,56269.000000
25654.000000,21716.000000,20818.000000,56240.000000
25661.000000,21696.000000,20803.000000,56254.000000
25672.000000,21710.000000,20835.000000,56256.000000
25643.000000,21709.000000,20790.000000,56258.000000
25637.000000,21680.000000,20793.000000,56250.000000
25660.000000,21673.000000,20782.000000,56221.000000
25662.000000,21673.000000,20787.000000,56231.000000
25661.000000,21683.000000,20775.000000,56242.000000
25652.000000,21701.000000,20796.000000,56255.000000
25664.000000,21677.000000,20785.000000,56242.000000
25635.000000,21693.000000,20786.000000,56253.000000
25646.000000,21672.000000,20794.000000,56240.000000
25614.000000,21686.000000,20807.000000,56267.000000
25661.000000,21682.000000,20780.000000,56225.000000
25644.000000,21733.000000,20793.000000,56210.000000
25643.000000,21683.000000,20787.000000,56239.000000
25645.000000,21692.000000,20760.000000,56234.000000
25608.000000,21693.000000,20773.000000,56211.000000
25638.000000,21701.000000,20761.000000,56219.000000
25662.000000,21659.000000,20760.000000,56191.000000
25618.000000,21680.000000,20771.000000,56242.000000
25636.000000,21666.000000,20748.000000,56179.000000
25604.000000,21691.000000,20745.000000,56230.000000
25628.000000,21651.000000,20727.000000,56177.000000
25610.000000,21661.000000,20761.000000,56211.000000
25647.000000,21682.000000,20716.000000,56213.000000
25632.000000,21664.000000,20750.000000,56191.000000
25619.000000,21697.000000,20753.000000,56183.000000
25630.000000,21691.000000,20739.000000,56216.000000
25624.000000,21685.000000,20744.000000,56196.000000
25628.000000,21667.000000,20747.000000,56229.000000
25625.000000,21680.000000,20746.000000,56211.000000
25661.000000,21661.000000,20751.000000,56217.000000
25646.000000,21658.000000,20740.000000,56223.000000
25638.000000,21679.000000,20741.000000,56209.000000
25614.000000,21657.000000,20726.000000,56190.000000
25614.000000,21653.000000,20733.000000,56221.000000
25610.000000,21635.000000,20706.000000,56193.000000
25612.000000,21641.000000,20700.000000,56178.000000
25594.000000,21651.000000,20715.000000,56210.000000
25593.000000,21636.000000,20737.000000,56208.000000
25654.000000,21659.000000,20719.000000,56209.000000
25625.000000,21631.000000,20730.000000,56192.000000
25588.000000,21642.000000,20679.000000,56174.000000
25568.000000,21656.000000,20699.000000,56195.000000
25575.000000,21642.000000,20705.000000,56192.000000
25594.000000,21638.000000,20692.000000,56186.000000
25582.000000,21648.000000,20701.000000,56185.000000
25555.000000,21625.000000,20692.000000,56182.000000
25536.000000,21641.000000,20669.000000,56168.000000
25557.000000,21630.000000,20708.000000,56177.000000
25553.000000,21651.000000,20674.000000,56176.000000
25579.000000,21610.000000,20697.000000,56175.000000
25533.000000,21620.000000,20652.000000,56169.000000
25592.000000,21625.000000,20686.000000,56170.000000
25563.000000,21645.000000,20656.000000,56152.000000
25572.000000,21617.000000,20678.000000,56172.000000
25558.000000,21630.000000,20695.000000,56163.000000
25565.000000,21631.000000,20672.000000,56215.000000
25568.000000,21614.000000,20666.000000,56174.000000
25573.000000,21616.000000,20666.000000,56175.000000
25585.000000,21628.000000,20685.000000,56183.000000
25560.000000,21631.000000,20695.000000,56144.000000
25544.000000,21634.000000,20684.000000,56157.000000
25510.000000,21632.000000,20666.000000,56199.000000
25567.000000,21613.000000,20680.000000,56190.000000
25530.000000,21635.000000,20683.000000,56182.000000
25548.000000,21610.000000,20696.000000,56201.000000
25615.000000,21639.000000,20656.000000,56183.000000
25583.000000,21620.000000,20668.000000,56201.000000
25607.000000,21614.000000,20713.000000,56175.000000
25578.000000,21627.000000,20709.000000,56177.000000
25569.000000,21637.000000,20697.000000,56194.000000
25569.000000,21644.000000,20697.000000,56213.000000
25573.000000,21641.000000,20687.000000,56194.000000
25549.000000,21649.000000,20696.000000,56138.000000
25585.000000,21618.000000,20712.000000,56184.000000
25606.000000,21632.000000,20690.000000,56175.000000
25558.000000,21630.000000,20668.000000,56167.000000
25557.000000,21628.000000,20681.000000,56182.000000
25561.000000,21627.000000,20670.000000,56168.000000
25563.000000,21640.000000,20694.000000,56181.000000
25556.000000,21602.000000,20684.000000,56172.000000
25564.000000,21611.000000,20665.000000,56175.000000
25558.000000,21634.000000,20698.000000,56176.000000
25545.000000,21631.000000,20658.000000,56157.000000
25560.000000,21656.000000,20664.000000,56164.000000
25553.000000,21615.000000,20673.000000,56191.000000
25569.000000,21616.000000,20691.000000,56197.000000
25551.000000,21630.000000,20663.000000,56170.000000
25565.000000,21600.000000,20676.000000,56153.000000
25539.000000,21612.000000,20687.000000,56163.000000
25548.000000,21613.000000,20679.000000,56177.000000
25535.000000,21609.000000,20685.000000,56173.000000
25527.000000,21597.000000,20648.000000,56157.000000
25532.000000,21620.000000,20682.000000,56187.000000
25529.000000,21626.000000,20676.000000,56170.000000
25526.000000,21626.000000,20666.000000,56161.000000
25563.000000,21622.000000,20671.000000,56164.000000
25518.000000,21593.000000,20667.000000,56160.000000
25555.000000,21591.000000,20646.000000,56172.000000
25542.000000,21588.000000,20651.000000,56153.000000
25562.000000,21622.000000,20663.000000,56159.000000
25561.000000,21601.000000,20651.000000,56147.000000
25550.000000,21617.000000,20653.000000,56141.000000
25530.000000,21593.000000,20656.000000,56153.000000
25563.000000,21576.000000,20665.000000,56141.000000
25545.000000,21611.000000,20666.000000,56131.000000
25534.000000,21571.000000,20651.000000,56169.000000
25554.000000,21626.000000,20702.000000,56186.000000
25551.000000,21603.000000,20678.000000,56180.000000
25571.000000,21622.000000,20705.000000,56175.000000
25540.000000,21627.000000,20720.000000,56179.000000
25562.000000,21618.000000,20739.000000,56193.000000
25580.000000,21667.000000,20746.000000,56166.000000
25604.000000,21651.000000,20761.000000,56200.000000
25608.000000,21676.000000,20737.000000,56223.000000
25644.000000,21656.000000,20788.000000,56253.000000
25647.000000,21688.000000,20808.000000,56247.000000
25673.000000,21704.000000,20779.000000,56238.000000
25659.000000,21715.000000,20797.000000,56261.000000
25703.000000,21716.000000,20843.000000,56258.000000
25706.000000,21727.000000,20887.000000,56283.000000
25706.000000,21777.000000,20869.000000,56333.000000
25731.000000,21756.000000,20882.000000,56292.000000
25724.000000,21756.000000,20885.000000,56300.000000
25763.000000,21735.000000,20914.000000,56343.000000
25790.000000,21765.000000,20941.000000,56314.000000
25753.000000,21792.000000,20939.000000,56343.000000
25760.000000,21790.000000,20940.000000,56339.000000
25762.000000,21797.000000,20953.000000,56315.000000
25763.000000,21764.000000,20937.000000,56338.000000
25763.000000,21773.000000,20922.000000,56330.000000
25762.000000,21790.000000,20934.000000,56320.000000
25771.000000,21819.000000,20943.000000,56342.000000
25799.000000,21808.000000,20932.000000,56340.000000
25767.000000,21753.000000,20929.000000,56299.000000
25776.000000,21750.000000,20926.000000,56294.000000
25775.000000,21792.000000,20906.000000,56335.000000
25767.000000,21780.000000,20894.000000,56318.000000
25765.000000,21780.000000,20912.000000,56279.000000
25780.000000,21792.000000,20942.000000,56320.000000
25790.000000,21728.000000,20915.000000,56327.000000
25765.000000,21778.000000,20908.000000,56330.000000
25765.000000,21815.000000,20892.000000,56311.000000
25747.000000,21783.000000,20910.000000,56314.000000
25789.000000,21764.000000,20912.000000,56314.000000
25766.000000,21771.000000,20894.000000,56338.000000
25758.000000,21759.000000,20920.000000,56292.000000
25722.000000,21783.000000,20869.000000,56317.000000
25759.000000,21784.000000,20900.000000,56296.000000
25743.000000,21732.000000,20898.000000,56340.000000
25759.000000,21766.000000,20886.000000,56279.000000
25733.000000,21761.000000,20889.000000,56302.000000
25727.000000,21743.000000,20891.000000,56304.000000
25757.000000,21750.000000,20903.000000,56332.000000
25736.000000,21756.000000,20900.000000,56276.000000
25735.000000,21760.000000,20889.000000,56326.000000
25760.000000,21745.000000,20878.000000,56304.000000
25791.000000,21772.000000,20904.000000,56285.000000
25765.000000,21766.000000,20903.000000,56288.000000
25754.000000,21771.000000,20877.000000,56324.000000
25714.000000,21764.000000,20859.000000,56312.000000
25767.000000,21755.000000,20912.000000,56302.000000
25752.000000,21749.000000,20871.000000,56271.000000
25750.000000,21754.000000,20883.000000,56292.000000
25765.000000,21759.000000,20868.000000,56324.000000
25723.000000,21780.000000,20891.000000,56306.000000
25737.000000,21758.000000,20876.000000,56288.000000
25696.000000,21717.000000,20855.000000,56288.000000
25737.000000,21753.000000,20870.000000,56276.000000
25758.000000,21740.000000,20856.000000,56310.000000
25734.000000,21786.000000,20855.000000,56279.000000
25740.000000,21716.000000,20872.000000,56300.000000
25700.000000,21731.000000,20842.000000,56276.000000
25726.000000,21766.000000,20850.000000,56296.000000
25747.000000,21727.000000,20867.000000,56322.000000
25707.000000,21732.000000,20826.000000,56304.000000
25724.000000,21748.000000,20841.000000,56314.000000
25713.000000,21745.000000,20843.000000,56297.000000
25747.000000,21757.000000,20841.000000,56284.000000
25687.000000,21754.000000,20873.000000,56291.000000
25705.000000,21723.000000,20827.000000,56277.000000
25726.000000,21723.000000,20840.000000,56284.000000
25705.000000,21738.000000,20839.000000,56272.000000
25756.000000,21750.000000,20837.000000,56284.000000
25696.000000,21734.000000,20826.000000,56260.000000
25690.000000,21720.000000,20820.000000,56260.000000
25697.000000,21718.000000,20829.000000,56265.000000
25713.000000,21739.000000,20869.000000,56273.000000
25694.000000,21738.000000,20844.000000,56278.000000
25718.000000,21745.000000,20836.000000,56276.000000
25689.000000,21752.000000,20828.000000,56283.000000
25735.000000,21712.000000,20872.000000,56278.000000
25748.000000,21759.000000,20818.000000,56283.000000
25714.000000,21718.000000,20838.000000,56307.000000
25745.000000,21729.000000,20839.000000,56292.000000
25732.000000,21743.000000,20851.000000,56300.000000
25725.000000,21715.000000,20828.000000,56313.000000
25719.000000,21758.000000,20867.000000,56278.000000
25734.000000,21736.000000,20861.000000,56293.000000
25706.000000,21740.000000,20883.000000,56307.000000
25739.000000,21749.000000,20843.000000,56289.000000
25752.000000,21727.000000,20869.000000,56308.000000
25730.000000,21731.000000,20853.000000,56274.000000
25744.000000,21740.000000,20871.000000,56300.000000
25737.000000,21787.000000,20892.000000,56309.000000
25722.000000,21760.000000,20883.000000,56309.000000
25731.000000,21773.000000,20867.000000,56305.000000
25752.000000,21764.000000,20870.000000,56292.000000
25754.000000,21766.000000,20887.000000,56295.000000
25712.000000,21725.000000,20891.000000,56329.000000
25737.000000,21767.000000,20869.000000,56319.000000
25725.000000,21759.000000,20865.000000,56313.000000
25702.000000,21737.000000,20878.000000,56302.000000
25686.000000,21733.000000,20866.000000,56326.000000
25757.000000,21771.000000,20868.000000,56282.000000
25748.000000,21749.000000,20875.000000,56296.000000
25731.000000,21755.000000,20871.000000,56282.000000
25734.000000,21746.000000,20863.000000,56272.000000
25705.000000,21758.000000,20865.000000,56289.000000
25708.000000,21733.000000,20854.000000,56279.000000
25701.000000,21739.000000,20873.000000,56287.000000
25702.000000,21709.000000,20852.000000,56271.000000
25701.000000,21733.000000,20852.000000,56300.000000
25726.000000,21722.000000,20837.000000,56279.000000
25696.000000,21732.000000,20833.000000,56269.000000
25706.000000,21743.000000,20831.000000,56265.000000
25703.000000,21724.000000,20831.000000,56269.000000
25686.000000,21731.000000,20841.000000,56261.000000
25710.000000,21741.000000,20845.000000,56254.000000
25738.000000,21699.000000,20834.000000,56273.000000
25689.000000,21736.000000,20834.000000,56241.000000
25710.000000,21742.000000,20817.000000,56251.000000
25702.000000,21697.000000,20836.000000,56264.000000
25695.000000,21755.000000,20853.000000,56268.000000
25682.000000,21753.000000,20816.000000,56262.000000
25702.000000,21712.000000,20826.000000,56290.000000
25694.000000,21707.000000,20825.000000,56234.000000
25677.000000,21744.000000,20829.000000,56270.000000
25685.000000,21740.000000,20847.000000,56254.000000
25707.000000,21727.000000,20809.000000,56259.000000
25694.000000,21738.000000,20841.000000,56262.000000
25703.000000,21748.000000,20848.000000,56282.000000
