660nm,730nm,850nm,940nm
23241.000000,19644.000000,9933.000000,48630.000000
23244.000000,19674.000000,9982.000000,48653.000000
23299.000000,19690.000000,10010.000000,48680.000000
23328.000000,19719.000000,10066.000000,48687.000000
23353.000000,19761.000000,10078.000000,48706.000000
23378.000000,19771.000000,10115.000000,48732.000000
23402.000000,19755.000000,10120.000000,48725.000000
23381.000000,19780.000000,10164.000000,48779.000000
23405.000000,19808.000000,10144.000000,48745.000000
23413.000000,19783.000000,10132.000000,48741.000000
23378.000000,19798.000000,10146.000000,48743.000000
23371.000000,19788.000000,10145.000000,48739.000000
23392.000000,19784.000000,10147.000000,48769.000000
23391.000000,19763.000000,10123.000000,48708.000000
23388.000000,19808.000000,10111.000000,48728.000000
23394.000000,19755.000000,10106.000000,48746.000000
23372.000000,19749.000000,10102.000000,48724.000000
23377.000000,19718.000000,10081.000000,48699.000000
23326.000000,19732.000000,10067.000000,48725.000000
23360.000000,19722.000000,10056.000000,48701.000000
23311.000000,19726.000000,10051.000000,48681.000000
23307.000000,19707.000000,10061.000000,48728.000000
23275.000000,19724.000000,10048.000000,48676.000000
23311.000000,19705.000000,10052.000000,48700.000000
23309.000000,19703.000000,10059.000000,48712.000000
23299.000000,19756.000000,10049.000000,48685.000000
23310.000000,19696.000000,10051.000000,48676.000000
23288.000000,19703.000000,10027.000000,48689.000000
23279.000000,19707.000000,10011.000000,48684.000000
23270.000000,19725.000000,10036.000000,48677.000000
23264.000000,19670.000000,9998.000000,48637.000000
23251.000000,19671.000000,10011.000000,48682.000000
23254.000000,19664.000000,9975.000000,48658.000000
23231.000000,19642.000000,9948.000000,48653.000000
23225.000000,19646.000000,9997.000000,48653.000000
23176.000000,19616.000000,9952.000000,48623.000000
23204.000000,19635.000000,9956.000000,48623.000000
23212.000000,19644.000000,9932.000000,48622.000000
23158.000000,19633.000000,9924.000000,48644.000000
23182.000000,19618.000000,9922.000000,48616.000000
23165.000000,19596.000000,9939.000000,48616.000000
23167.000000,19616.000000,9900.000000,48607.000000
23142.000000,19579.000000,9888.000000,48612.000000
23162.000000,19590.000000,9912.000000,48576.000000
23142.000000,19564.000000,9873.000000,48593.000000
23129.000000,19552.000000,9876.000000,48587.000000
23126.000000,19562.000000,9870.000000,48578.000000
23119.000000,19548.000000,9876.000000,48574.000000
23102.000000,19561.000000,9887.000000,48585.000000
23093.000000,19560.000000,9859.000000,48590.000000
23096.000000,19554.000000,9858.000000,48587.000000
23077.000000,19517.000000,9849.000000,48547.000000
23064.000000,19546.000000,9830.000000,48583.000000
23072.000000,19558.000000,9831.000000,48558.000000
23087.000000,19536.000000,9850.000000,48567.000000
23080.000000,19542.000000,9818.000000,48549.000000
23066.000000,19535.000000,9800.000000,48584.000000
23064.000000,19512.000000,9839.000000,48559.000000
23037.000000,19515.000000,9814.000000,48535.000000
23014.000000,19491.000000,9814.000000,48557.000000
23024.000000,19510.000000,9785.000000,48554.000000
23034.000000,19481.000000,9811.000000,48548.000000
23032.000000,19495.000000,9809.000000,48537.000000
23025.000000,19522.000000,9772.000000,48524.000000
22980.000000,19470.000000,9752.000000,48522.000000
23001.000000,19466.000000,9785.000000,48525.000000
22970.000000,19477.000000,9783.000000,48505.000000
23002.000000,19490.000000,9756.000000,48531.000000
23005.000000,19496.000000,9773.000000,48523.000000
23024.000000,19470.000000,9783.000000,48549.000000
23052.000000,19485.000000,9795.000000,48531.000000
23051.000000,19484.000000,9783.000000,48536.000000
23003.000000,19453.000000,9795.000000,48539.000000
22991.000000,19481.000000,9746.000000,48503.000000
23005.000000,19475.000000,9767.000000,48511.000000
23015.000000,19484.000000,9762.000000,48486.000000
22975.000000,19449.000000,9783.000000,48539.000000
22986.000000,19475.000000,9763.000000,48516.000000
22973.000000,19474.000000,9746.000000,48522.000000
22953.000000,19480.000000,9729.000000,48502.000000
22960.000000,19436.000000,9702.000000,48503.000000
22937.000000,19428.000000,9728.000000,48471.000000
22930.000000,19400.000000,9680.000000,48452.000000
22900.000000,19433.000000,9651.000000,48467.000000
22872.000000,19400.000000,9650.000000,48463.000000
22882.000000,19390.000000,9637.000000,48436.000000
22837.000000,19336.000000,9613.000000,48438.000000
22845.000000,19356.000000,9588.000000,48422.000000
22825.000000,19342.000000,9561.000000,48423.000000
22804.000000,19328.000000,9554.000000,48404.000000
22769.000000,19318.000000,9536.000000,48413.000000
22788.000000,19304.000000,9575.000000,48426.000000
22764.000000,19292.000000,9534.000000,48414.000000
22772.000000,19291.000000,9558.000000,48404.000000
22766.000000,19268.000000,9522.000000,48394.000000
22726.000000,19304.000000,9475.000000,48371.000000
22722.000000,19291.000000,9526.000000,48392.000000
22728.000000,19261.000000,9490.000000,48362.000000
22731.000000,19271.000000,9513.000000,48370.000000
22710.000000,19242.000000,9492.000000,48373.000000
22718.000000,19261.000000,9513.000000,48374.000000
22705.000000,19252.000000,9462.000000,48368.000000
22699.000000,19248.000000,9469.000000,48361.000000
22670.000000,19253.000000,9463.000000,48375.000000
22651.000000,19236.000000,9472.000000,48368.000000
22674.000000,19230.000000,9456.000000,48378.000000
22700.000000,19244.000000,9466.000000,48357.000000
22695.000000,19260.000000,9502.000000,48355.000000
22713.000000,19248.000000,9484.000000,48365.000000
22694.000000,19259.000000,9493.000000,48369.000000
22749.000000,19272.000000,9548.000000,48383.000000
22785.000000,19288.000000,9532.000000,48383.000000
22792.000000,19314.000000,9570.000000,48413.000000
22889.000000,19410.000000,9689.000000,48463.000000
22928.000000,19450.000000,9741.000000,48488.000000
22999.000000,19485.000000,9806.000000,48537.000000
23040.000000,19517.000000,9841.000000,48583.000000
23098.000000,19581.000000,9923.000000,48639.000000
23153.000000,19600.000000,9969.000000,48638.000000
23218.000000,19681.000000,10040.000000,48671.000000
23274.000000,19703.000000,10072.000000,48726.000000
23276.000000,19774.000000,10121.000000,48729.000000
23318.000000,19745.000000,10139.000000,48754.000000
23377.000000,19786.000000,10207.000000,48798.000000
23371.000000,19822.000000,10209.000000,48784.000000
23427.000000,19837.000000,10218.000000,48809.000000
23388.000000,19830.000000,10211.000000,48809.000000
23370.000000,19837.000000,10182.000000,48765.000000
23368.000000,19799.000000,10167.000000,48762.000000
23377.000000,19774.000000,10191.000000,48784.000000
23380.000000,19759.000000,10172.000000,48763.000000
23322.000000,19769.000000,10182.000000,48745.000000
23343.000000,19747.000000,10145.000000,48726.000000
23336.000000,19747.000000,10139.000000,48732.000000
23321.000000,19729.000000,10123.000000,48752.000000
23299.000000,19735.000000,10117.000000,48736.000000
23292.000000,19744.000000,10107.000000,48738.000000
23302.000000,19727.000000,10116.000000,48709.000000
23244.000000,19716.000000,10086.000000,48708.000000
23283.000000,19722.000000,10080.000000,48711.000000
23271.000000,19714.000000,10066.000000,48735.000000
23238.000000,19714.000000,10054.000000,48711.000000
23230.000000,19682.000000,10057.000000,48692.000000
23231.000000,19677.000000,10028.000000,48680.000000
23201.000000,19638.000000,9992.000000,48673.000000
23220.000000,19670.000000,9997.000000,48673.000000
23201.000000,19648.000000,9999.000000,48672.000000
23198.000000,19681.000000,10003.000000,48651.000000
23179.000000,19637.000000,9981.000000,48640.000000
23152.000000,19625.000000,9951.000000,48654.000000
23171.000000,19607.000000,9940.000000,48608.000000
23130.000000,19589.000000,9909.000000,48659.000000
23097.000000,19580.000000,9880.000000,48583.000000
23107.000000,19557.000000,9881.000000,48616.000000
23110.000000,19543.000000,9895.000000,48591.000000
23080.000000,19561.000000,9863.000000,48618.000000
23043.000000,19546.000000,9897.000000,48580.000000
23089.000000,19579.000000,9855.000000,48604.000000
23051.000000,19582.000000,9865.000000,48586.000000
23028.000000,19527.000000,9862.000000,48603.000000
23017.000000,19536.000000,9864.000000,48582.000000
23031.000000,19505.000000,9833.000000,48562.000000
23053.000000,19514.000000,9810.000000,48566.000000
23004.000000,19459.000000,9800.000000,48523.000000
22982.000000,19484.000000,9801.000000,48550.000000
23008.000000,19484.000000,9822.000000,48572.000000
22959.000000,19479.000000,9773.000000,48550.000000
22977.000000,19490.000000,9809.000000,48544.000000
22965.000000,19461.000000,9762.000000,48512.000000
22947.000000,19470.000000,9779.000000,48536.000000
22932.000000,19465.000000,9752.000000,48524.000000
22943.000000,19455.000000,9759.000000,48514.000000
22917.000000,19428.000000,9735.000000,48520.000000
22939.000000,19450.000000,9747.000000,48522.000000
22914.000000,19425.000000,9721.000000,48526.000000
22916.000000,19442.000000,9709.000000,48516.000000
22938.000000,19455.000000,9719.000000,48523.000000
22919.000000,19455.000000,9719.000000,48510.000000
22913.000000,19429.000000,9711.000000,48509.000000
22891.000000,19427.000000,9704.000000,48508.000000
22871.000000,19423.000000,9676.000000,48470.000000
22884.000000,19402.000000,9678.000000,48503.000000
22892.000000,19403.000000,9677.000000,48500.000000
22876.000000,19361.000000,9694.000000,48475.000000
22855.000000,19378.000000,9671.000000,48449.000000
22860.000000,19387.000000,9629.000000,48461.000000
22851.000000,19362.000000,9642.000000,48429.000000
22832.000000,19359.000000,9612.000000,48443.000000
22805.000000,19314.000000,9618.000000,48460.000000
22762.000000,19313.000000,9601.000000,48434.000000
22772.000000,19310.000000,9548.000000,48405.000000
22725.000000,19295.000000,9538.000000,48411.000000
22724.000000,19250.000000,9504.000000,48377.000000
22698.000000,19240.000000,9490.000000,48398.000000
22677.000000,19255.000000,9471.000000,48358.000000
22662.000000,19227.000000,9446.000000,48369.000000
22654.000000,19203.000000,9457.000000,48332.000000
22631.000000,19205.000000,9423.000000,48296.000000
22629.000000,19214.000000,9431.000000,48360.000000
22619.000000,19150.000000,9389.000000,48318.000000
22606.000000,19166.000000,9413.000000,48303.000000
22618.000000,19173.000000,9385.000000,48322.000000
22579.000000,19163.000000,9405.000000,48289.000000
22608.000000,19187.000000,9354.000000,48317.000000
22560.000000,19143.000000,9359.000000,48264.000000
22577.000000,19138.000000,9356.000000,48276.000000
22561.000000,19129.000000,9365.000000,48319.000000
22563.000000,19148.000000,9330.000000,48302.000000
22508.000000,19143.000000,9350.000000,48304.000000
22516.000000,19114.000000,9326.000000,48263.000000
22517.000000,19104.000000,9287.000000,48284.000000
22542.000000,19110.000000,9300.000000,48277.000000
22555.000000,19134.000000,9327.000000,48295.000000
22539.000000,19151.000000,9335.000000,48290.000000
22553.000000,19124.000000,9329.000000,48302.000000
22606.000000,19150.000000,9369.000000,48324.000000
22590.000000,19148.000000,9376.000000,48325.000000
22633.000000,19199.000000,9432.000000,48363.000000
22664.000000,19227.000000,9430.000000,48342.000000
22683.000000,19248.000000,9466.000000,48380.000000
22741.000000,19258.000000,9541.000000,48401.000000
22800.000000,19341.000000,9591.000000,48441.000000
22818.000000,19360.000000,9624.000000,48462.000000
22872.000000,19368.000000,9673.000000,48485.000000
22934.000000,19435.000000,9707.000000,48527.000000
22964.000000,19493.000000,9783.000000,48578.000000
23065.000000,19523.000000,9798.000000,48598.000000
23107.000000,19576.000000,9893.000000,48594.000000
23150.000000,19621.000000,9937.000000,48649.000000
23167.000000,19626.000000,9973.000000,48679.000000
23154.000000,19635.000000,9988.000000,48647.000000
23235.000000,19675.000000,10003.000000,48720.000000
23235.000000,19680.000000,10015.000000,48687.000000
23252.000000,19701.000000,10035.000000,48696.000000
23230.000000,19700.000000,10029.000000,48708.000000
23223.000000,19688.000000,10023.000000,48704.000000
23220.000000,19695.000000,10028.000000,48680.000000
23252.000000,19689.000000,10041.000000,48711.000000
23254.000000,19658.000000,10026.000000,48685.000000
23233.000000,19677.000000,10010.000000,48698.000000
23219.000000,19674.000000,9975.000000,48693.000000
23218.000000,19656.000000,9982.000000,48713.000000
23190.000000,19638.000000,9988.000000,48674.000000
23193.000000,19607.000000,9939.000000,48664.000000
23176.000000,19614.000000,9941.000000,48652.000000
23150.000000,19629.000000,9933.000000,48598.000000
23157.000000,19610.000000,9920.000000,48641.000000
23131.000000,19606.000000,9942.000000,48655.000000
23143.000000,19592.000000,9886.000000,48639.000000
23152.000000,19602.000000,9883.000000,48619.000000
23126.000000,19602.000000,9877.000000,48624.000000
23084.000000,19565.000000,9869.000000,48582.000000
23093.000000,19544.000000,9823.000000,48593.000000
23048.000000,19517.000000,9844.000000,48587.000000
23037.000000,19516.000000,9775.000000,48572.000000
23057.000000,19544.000000,9824.000000,48555.000000
23039.000000,19497.000000,9800.000000,48578.000000
23017.000000,19496.000000,9776.000000,48565.000000
23030.000000,19508.000000,9773.000000,48559.000000
23047.000000,19507.000000,9756.000000,48581.000000
23008.000000,19485.000000,9727.000000,48558.000000
23004.000000,19478.000000,9764.000000,48542.000000
23022.000000,19462.000000,9736.000000,48547.000000
23002.000000,19471.000000,9718.000000,48530.000000
22983.000000,19478.000000,9700.000000,48550.000000
22978.000000,19430.000000,9705.000000,48508.000000
22974.000000,19423.000000,9711.000000,48492.000000
22952.000000,19421.000000,9689.000000,48482.000000
22922.000000,19405.000000,9659.000000,48526.000000
22939.000000,19438.000000,9668.000000,48523.000000
22912.000000,19399.000000,9646.000000,48509.000000
22918.000000,19406.000000,9665.000000,48504.000000
22939.000000,19393.000000,9612.000000,48479.000000
22878.000000,19392.000000,9620.000000,48484.000000
22895.000000,19427.000000,9616.000000,48482.000000
22869.000000,19381.000000,9593.000000,48489.000000
22877.000000,19366.000000,9587.000000,48441.000000
22848.000000,19332.000000,9587.000000,48470.000000
22844.000000,19346.000000,9575.000000,48465.000000
22866.000000,19361.000000,9612.000000,48447.000000
22850.000000,19360.000000,9577.000000,48459.000000
22848.000000,19356.000000,9576.000000,48443.000000
22851.000000,19351.000000,9570.000000,48432.000000
22825.000000,19356.000000,9575.000000,48437.000000
22873.000000,19362.000000,9560.000000,48427.000000
22848.000000,19376.000000,9594.000000,48442.000000
22845.000000,19353.000000,9572.000000,48467.000000
22847.000000,19366.000000,9573.000000,48446.000000
22861.000000,19350.000000,9565.000000,48441.000000
22837.000000,19372.000000,9557.000000,48417.000000
22830.000000,19309.000000,9545.000000,48450.000000
22849.000000,19347.000000,9550.000000,48429.000000
22850.000000,19349.000000,9560.000000,48451.000000
22847.000000,19353.000000,9582.000000,48459.000000
22842.000000,19333.000000,9574.000000,48438.000000
22810.000000,19323.000000,9569.000000,48412.000000
22819.000000,19329.000000,9588.000000,48427.000000
22820.000000,19313.000000,9544.000000,48399.000000
22821.000000,19336.000000,9548.000000,48441.000000
22826.000000,19319.000000,9521.000000,48452.000000
22813.000000,19292.000000,9515.000000,48435.000000
22805.000000,19318.000000,9501.000000,48406.000000
22770.000000,19284.000000,9491.000000,48402.000000
22742.000000,19270.000000,9469.000000,48373.000000
22735.000000,19268.000000,9467.000000,48366.000000
22709.000000,19249.000000,9439.000000,48356.000000
22692.000000,19263.000000,9405.000000,48359.000000
22683.000000,19204.000000,9369.000000,48334.000000
22690.000000,19205.000000,9394.000000,48375.000000
22678.000000,19219.000000,9413.000000,48348.000000
22651.000000,19209.000000,9410.000000,48325.000000
22674.000000,19208.000000,9383.000000,48343.000000
22612.000000,19159.000000,9350.000000,48316.000000
22620.000000,19171.000000,9386.000000,48355.000000
22632.000000,19190.000000,9377.000000,48330.000000
22627.000000,19158.000000,9353.000000,48332.000000
22601.000000,19185.000000,9331.000000,48339.000000
22635.000000,19179.000000,9372.000000,48319.000000
22614.000000,19166.000000,9361.000000,48331.000000
22581.000000,19162.000000,9330.000000,48332.000000
22600.000000,19163.000000,9336.000000,48304.000000
22570.000000,19163.000000,9315.000000,48274.000000
22582.000000,19135.000000,9346.000000,48288.000000
22585.000000,19174.000000,9325.000000,48301.000000
22561.000000,19167.000000,9324.000000,48289.000000
22562.000000,19151.000000,9292.000000,48279.000000
22598.000000,19138.000000,9313.000000,48276.000000
22566.000000,19144.000000,9328.000000,48319.000000
22582.000000,19175.000000,9352.000000,48321.000000
22633.000000,19171.000000,9375.000000,48338.000000
22619.000000,19188.000000,9411.000000,48308.000000
22636.000000,19188.000000,9403.000000,48323.000000
22693.000000,19233.000000,9428.000000,48362.000000
22738.000000,19270.000000,9488.000000,48361.000000
22802.000000,19293.000000,9544.000000,48426.000000
22835.000000,19342.000000,9556.000000,48439.000000
22876.000000,19373.000000,9611.000000,48456.000000
22933.000000,19378.000000,9660.000000,48508.000000
22981.000000,19439.000000,9722.000000,48547.000000
23039.000000,19529.000000,9767.000000,48563.000000
23061.000000,19573.000000,9833.000000,48620.000000
23136.000000,19597.000000,9899.000000,48632.000000
23174.000000,19653.000000,9953.000000,48658.000000
23240.000000,19688.000000,9999.000000,48693.000000
23270.000000,19696.000000,10012.000000,48711.000000
23284.000000,19741.000000,10050.000000,48761.000000
23326.000000,19757.000000,10048.000000,48719.000000
23339.000000,19792.000000,10085.000000,48756.000000
23332.000000,19763.000000,10063.000000,48736.000000
23324.000000,19790.000000,10114.000000,48773.000000
23340.000000,19779.000000,10118.000000,48765.000000
23326.000000,19788.000000,10116.000000,48751.000000
23336.000000,19776.000000,10096.000000,48751.000000
23341.000000,19755.000000,10091.000000,48755.000000
23337.000000,19774.000000,10064.000000,48726.000000
23332.000000,19790.000000,10080.000000,48796.000000
23310.000000,19777.000000,10061.000000,48742.000000
23294.000000,19824.000000,10083.000000,48741.000000
23305.000000,19796.000000,10067.000000,48729.000000
23308.000000,19730.000000,10040.000000,48728.000000
23315.000000,19772.000000,10035.000000,48719.000000
23306.000000,19731.000000,10030.000000,48728.000000
23299.000000,19755.000000,10028.000000,48714.000000
23284.000000,19746.000000,10040.000000,48716.000000
23252.000000,19745.000000,10034.000000,48709.000000
23233.000000,19722.000000,10002.000000,48720.000000
23261.000000,19659.000000,10021.000000,48695.000000
23239.000000,19715.000000,10013.000000,48678.000000
23244.000000,19719.000000,9983.000000,48669.000000
23226.000000,19690.000000,10009.000000,48718.000000
23230.000000,19693.000000,9972.000000,48675.000000
23247.000000,19688.000000,9983.000000,48697.000000
23202.000000,19714.000000,9966.000000,48665.000000
23201.000000,19691.000000,9957.000000,48694.000000
23213.000000,19683.000000,9941.000000,48659.000000
23219.000000,19682.000000,9943.000000,48679.000000
23193.000000,19679.000000,9939.000000,48647.000000
23180.000000,19680.000000,9926.000000,48656.000000
23179.000000,19679.000000,9924.000000,48652.000000
23176.000000,19636.000000,9866.000000,48652.000000
23138.000000,19671.000000,9911.000000,48661.000000
23120.000000,19631.000000,9903.000000,48644.000000
23141.000000,19635.000000,9901.000000,48645.000000
23133.000000,19609.000000,9865.000000,48622.000000
23136.000000,19609.000000,9873.000000,48639.000000
23128.000000,19618.000000,9875.000000,48607.000000
23127.000000,19606.000000,9860.000000,48617.000000
23106.000000,19633.000000,9862.000000,48627.000000
23101.000000,19619.000000,9843.000000,48592.000000
23087.000000,19605.000000,9855.000000,48603.000000
23096.000000,19597.000000,9847.000000,48588.000000
23102.000000,19597.000000,9816.000000,48606.000000
23119.000000,19589.000000,9841.000000,48598.000000
23086.000000,19594.000000,9798.000000,48591.000000
23075.000000,19584.000000,9808.000000,48573.000000
23074.000000,19579.000000,9799.000000,48591.000000
23066.000000,19601.000000,9815.000000,48592.000000
23055.000000,19575.000000,9794.000000,48596.000000
23046.000000,19571.000000,9814.000000,48619.000000
23042.000000,19566.000000,9804.000000,48590.000000
23026.000000,19582.000000,9755.000000,48573.000000
23062.000000,19561.000000,9800.000000,48596.000000
23034.000000,19570.000000,9793.000000,48590.000000
23021.000000,19556.000000,9818.000000,48574.000000
23064.000000,19545.000000,9812.000000,48561.000000
23032.000000,19564.000000,9802.000000,48581.000000
23019.000000,19546.000000,9798.000000,48606.000000
23038.000000,19562.000000,9794.000000,48570.000000
23050.000000,19571.000000,9754.000000,48554.000000
23031.000000,19580.000000,9782.000000,48566.000000
23056.000000,19575.000000,9799.000000,48576.000000
23046.000000,19552.000000,9816.000000,48562.000000
23047.000000,19565.000000,9793.000000,48566.000000
23063.000000,19581.000000,9792.000000,48597.000000
23086.000000,19558.000000,9785.000000,48585.000000
23048.000000,19577.000000,9818.000000,48575.000000
23052.000000,19559.000000,9815.000000,48577.000000
23041.000000,19581.000000,9809.000000,48587.000000
23056.000000,19553.000000,9814.000000,48578.000000
23032.000000,19582.000000,9793.000000,48581.000000
23012.000000,19579.000000,9785.000000,48567.000000
23040.000000,19549.000000,9788.000000,48587.000000
23008.000000,19553.000000,9758.000000,48539.000000
23032.000000,19535.000000,9738.000000,48540.000000
22986.000000,19537.000000,9727.000000,48543.000000
22953.000000,19518.000000,9722.000000,48516.000000
22976.000000,19488.000000,9742.000000,48530.000000
22949.000000,19478.000000,9691.000000,48492.000000
22969.000000,19478.000000,9678.000000,48507.000000
22934.000000,19472.000000,9674.000000,48524.000000
22913.000000,19444.000000,9660.000000,48491.000000
22886.000000,19476.000000,9618.000000,48495.000000
22875.000000,19424.000000,9639.000000,48471.000000
22887.000000,19460.000000,9633.000000,48461.000000
22845.000000,19410.000000,9629.000000,48482.000000
22846.000000,19411.000000,9608.000000,48478.000000
22816.000000,19382.000000,9589.000000,48463.000000
22830.000000,19372.000000,9566.000000,48459.000000
22822.000000,19387.000000,9588.000000,48458.000000
22822.000000,19377.000000,9577.000000,48464.000000
22778.000000,19371.000000,9525.000000,48428.000000
22803.000000,19368.000000,9572.000000,48452.000000
22785.000000,19337.000000,9547.000000,48425.000000
22788.000000,19372.000000,9537.000000,48416.000000
22771.000000,19363.000000,9538.000000,48422.000000
22763.000000,19322.000000,9544.000000,48429.000000
22760.000000,19348.000000,9540.000000,48428.000000
22747.000000,19340.000000,9546.000000,48440.000000
22759.000000,19343.000000,9543.000000,48441.000000
22807.000000,19375.000000,9551.000000,48413.000000
22793.000000,19400.000000,9571.000000,48429.000000
22817.000000,19407.000000,9577.000000,48463.000000
22821.000000,19377.000000,9602.000000,48461.000000
22842.000000,19443.000000,9622.000000,48467.000000
22921.000000,19441.000000,9632.000000,48496.000000
22905.000000,19490.000000,9710.000000,48507.000000
22943.000000,19535.000000,9732.000000,48554.000000
22989.000000,19550.000000,9747.000000,48555.000000
22998.000000,19563.000000,9811.000000,48596.000000
23081.000000,19609.000000,9893.000000,48618.000000
23129.000000,19682.000000,9923.000000,48651.000000
23209.000000,19732.000000,9993.000000,48705.000000
23260.000000,19756.000000,10057.000000,48738.000000
23339.000000,19768.000000,10138.000000,48755.000000
23345.000000,19819.000000,10156.000000,48757.000000
23409.000000,19853.000000,10189.000000,48830.000000
23439.000000,19898.000000,10239.000000,48852.000000
23469.000000,19919.000000,10299.000000,48864.000000
23496.000000,19925.000000,10285.000000,48880.000000
23534.000000,19966.000000,10320.000000,48880.000000
23537.000000,19965.000000,10332.000000,48889.000000
23547.000000,20001.000000,10342.000000,48913.000000
23532.000000,19991.000000,10306.000000,48922.000000
23536.000000,19991.000000,10325.000000,48898.000000
23532.000000,19985.000000,10357.000000,48893.000000
23548.000000,19994.000000,10340.000000,48904.000000
23518.000000,19967.000000,10343.000000,48905.000000
23528.000000,20232.000000,10309.000000,48858.000000
23542.000000,19994.000000,10305.000000,48905.000000
23517.000000,20007.000000,10325.000000,48898.000000
23514.000000,19990.000000,10313.000000,48896.000000
23491.000000,19983.000000,10315.000000,48904.000000
23500.000000,19969.000000,10287.000000,48856.000000
23500.000000,19935.000000,10275.000000,48886.000000
23486.000000,19946.000000,10285.000000,48843.000000
23468.000000,19964.000000,10283.000000,48862.000000
23460.000000,19918.000000,10284.000000,48854.000000
23480.000000,19926.000000,10252.000000,48824.000000
23438.000000,19917.000000,10274.000000,48827.000000
23454.000000,19888.000000,10212.000000,48826.000000
23408.000000,19900.000000,10244.000000,48847.000000
23441.000000,19923.000000,10226.000000,48852.000000
23456.000000,19906.000000,10228.000000,48845.000000
23422.000000,19879.000000,10197.000000,48847.000000
23398.000000,19882.000000,10170.000000,48807.000000
23407.000000,19854.000000,10182.000000,48809.000000
23393.000000,19858.000000,10156.000000,48797.000000
23395.000000,19862.000000,10177.000000,48801.000000
23369.000000,19852.000000,10175.000000,48802.000000
23392.000000,19843.000000,10188.000000,48797.000000
23359.000000,19880.000000,10151.000000,48793.000000
23349.000000,19842.000000,10158.000000,48803.000000
23358.000000,19835.000000,10138.000000,48787.000000
23348.000000,19840.000000,10143.000000,48754.000000
23337.000000,19805.000000,10103.000000,48803.000000
23330.000000,19822.000000,10104.000000,48790.000000
23314.000000,19787.000000,10089.000000,48760.000000
23326.000000,19799.000000,10114.000000,48776.000000
23319.000000,19800.000000,10107.000000,48760.000000
23289.000000,19791.000000,10103.000000,48766.000000
23294.000000,19777.000000,10080.000000,48778.000000
23267.000000,19770.000000,10063.000000,48754.000000
23280.000000,19767.000000,10081.000000,48735.000000
23287.000000,19750.000000,10066.000000,48723.000000
23274.000000,19759.000000,10047.000000,48731.000000
23274.000000,19744.000000,10043.000000,48722.000000
23240.000000,19738.000000,10062.000000,48728.000000
23275.000000,19743.000000,10042.000000,48717.000000
23270.000000,19736.000000,10043.000000,48738.000000
23224.000000,19767.000000,10042.000000,48707.000000
23229.000000,19769.000000,10040.000000,48713.000000
23234.000000,19735.000000,10051.000000,48718.000000
23256.000000,19751.000000,10032.000000,48724.000000
23219.000000,19775.000000,10035.000000,48709.000000
23209.000000,19734.000000,10040.000000,48712.000000
23231.000000,19738.000000,10058.000000,48684.000000
23247.000000,19727.000000,10029.000000,48740.000000
23256.000000,19760.000000,10054.000000,48737.000000
23237.000000,19708.000000,10027.000000,48712.000000
23234.000000,19739.000000,10045.000000,48703.000000
23240.000000,19722.000000,10028.000000,48698.000000
23229.000000,19719.000000,10017.000000,48720.000000
23265.000000,19742.000000,10028.000000,48733.000000
23236.000000,19746.000000,10053.000000,48728.000000
23231.000000,19731.000000,10056.000000,48730.000000
23234.000000,19775.000000,10040.000000,48724.000000
23202.000000,19759.000000,10054.000000,48726.000000
23256.000000,19779.000000,10063.000000,48715.000000
23244.000000,19739.000000,10053.000000,48724.000000
23230.000000,19733.000000,10049.000000,48729.000000
23212.000000,19724.000000,10054.000000,48717.000000
23226.000000,19730.000000,10052.000000,48728.000000
23219.000000,19725.000000,10049.000000,48700.000000
23221.000000,19711.000000,10016.000000,48701.000000
23181.000000,19713.000000,9997.000000,48691.000000
23183.000000,19677.000000,9983.000000,48676.000000
23136.000000,19685.000000,9961.000000,48687.000000
23154.000000,19660.000000,9949.000000,48671.000000
23117.000000,19680.000000,9945.000000,48664.000000
23113.000000,19651.000000,9922.000000,48677.000000
23099.000000,19625.000000,9913.000000,48654.000000
23061.000000,19604.000000,9908.000000,48611.000000
23051.000000,19615.000000,9905.000000,48587.000000
23052.000000,19616.000000,9830.000000,48590.000000
23014.000000,19579.000000,9875.000000,48608.000000
23018.000000,19572.000000,9867.000000,48603.000000
23000.000000,19564.000000,9811.000000,48589.000000
23022.000000,19564.000000,9834.000000,48586.000000
22984.000000,19580.000000,9827.000000,48605.000000
23000.000000,19573.000000,9777.000000,48561.000000
22960.000000,19548.000000,9806.000000,48596.000000
22974.000000,19549.000000,9800.000000,48579.000000
22958.000000,19550.000000,9762.000000,48583.000000
22965.000000,19516.000000,9795.000000,48547.000000
22925.000000,19506.000000,9758.000000,48578.000000
22941.000000,19512.000000,9769.000000,48566.000000
22955.000000,19482.000000,9757.000000,48558.000000
22942.000000,19508.000000,9789.000000,48584.000000
22922.000000,19526.000000,9781.000000,48536.000000
22939.000000,19539.000000,9814.000000,48567.000000
22956.000000,19514.000000,9792.000000,48581.000000
22945.000000,19561.000000,9844.000000,48599.000000
22990.000000,19574.000000,9843.000000,48613.000000
22996.000000,19602.000000,9916.000000,48657.000000
23018.000000,19585.000000,9906.000000,48633.000000
23067.000000,19651.000000,9929.000000,48666.000000
23118.000000,19683.000000,9975.000000,48703.000000
23162.000000,19709.000000,10029.000000,48697.000000
23209.000000,19721.000000,10063.000000,48746.000000
23267.000000,19788.000000,10118.000000,48784.000000
23299.000000,19802.000000,10170.000000,48804.000000
23356.000000,19860.000000,10227.000000,48846.000000
23422.000000,19914.000000,10272.000000,48871.000000
23461.000000,19957.000000,10322.000000,48910.000000
23514.000000,20012.000000,10365.000000,48922.000000
23535.000000,19984.000000,10401.000000,48954.000000
23572.000000,20052.000000,10457.000000,48945.000000
23616.000000,20080.000000,10466.000000,49017.000000
23618.000000,20075.000000,10485.000000,49018.000000
23671.000000,20095.000000,10540.000000,49002.000000
23677.000000,20109.000000,10504.000000,49021.000000
23647.000000,20113.000000,10563.000000,49019.000000
23657.000000,20099.000000,10513.000000,49028.000000
23662.000000,20119.000000,10523.000000,49024.000000
23676.000000,20092.000000,10520.000000,49024.000000
23641.000000,20100.000000,10574.000000,48999.000000
23673.000000,20098.000000,10515.000000,49022.000000
23656.000000,20101.000000,10532.000000,49031.000000
23636.000000,20095.000000,10514.000000,49022.000000
23639.000000,20081.000000,10492.000000,49028.000000
23627.000000,20060.000000,10518.000000,48997.000000
23620.000000,20086.000000,10500.000000,49017.000000
23633.000000,20070.000000,10456.000000,48970.000000
23567.000000,20037.000000,10441.000000,48984.000000
23578.000000,20055.000000,10445.000000,48972.000000
23589.000000,20027.000000,10421.000000,48990.000000
23564.000000,20045.000000,10424.000000,48988.000000
23557.000000,20024.000000,10396.000000,48953.000000
23547.000000,19997.000000,10388.000000,48920.000000
23523.000000,19976.000000,10399.000000,48969.000000
23521.000000,19986.000000,10391.000000,48937.000000
23538.000000,20008.000000,10410.000000,48977.000000
23520.000000,20006.000000,10386.000000,48925.000000
23512.000000,20007.000000,10382.000000,48939.000000
23518.000000,19991.000000,10360.000000,48911.000000
23487.000000,19970.000000,10344.000000,48926.000000
23466.000000,19943.000000,10355.000000,48880.000000
23469.000000,19960.000000,10321.000000,48917.000000
23464.000000,19916.000000,10308.000000,48894.000000
23440.000000,19942.000000,10298.000000,48919.000000
23450.000000,19926.000000,10284.000000,48899.000000
23433.000000,19928.000000,10297.000000,48894.000000
23418.000000,19915.000000,10268.000000,48878.000000
23388.000000,19912.000000,10238.000000,48868.000000
23400.000000,19895.000000,10254.000000,48860.000000
23384.000000,19895.000000,10226.000000,48874.000000
23389.000000,19902.000000,10237.000000,48840.000000
23391.000000,19854.000000,10232.000000,48841.000000
23354.000000,19862.000000,10227.000000,48848.000000
23334.000000,19851.000000,10221.000000,48818.000000
23325.000000,19849.000000,10192.000000,48844.000000
23340.000000,19841.000000,10188.000000,48825.000000
23329.000000,19861.000000,10185.000000,48814.000000
23304.000000,19832.000000,10144.000000,48828.000000
23303.000000,19804.000000,10158.000000,48801.000000
23289.000000,19814.000000,10153.000000,48800.000000
23277.000000,19804.000000,10151.000000,48791.000000
23277.000000,19785.000000,10120.000000,48773.000000
23257.000000,19773.000000,10113.000000,48784.000000
23253.000000,19781.000000,10089.000000,48800.000000
23245.000000,19787.000000,10108.000000,48770.000000
23241.000000,19781.000000,10111.000000,48796.000000
23212.000000,19752.000000,10100.000000,48758.000000
23212.000000,19762.000000,10085.000000,48777.000000
23220.000000,19763.000000,10088.000000,48752.000000
23182.000000,19737.000000,10041.000000,48762.000000
23184.000000,19716.000000,10074.000000,48721.000000
23191.000000,19704.000000,10047.000000,48737.000000
23188.000000,19730.000000,10069.000000,48726.000000
23204.000000,19722.000000,10038.000000,48748.000000
23155.000000,19712.000000,10015.000000,48729.000000
23168.000000,19718.000000,10055.000000,48725.000000
23185.000000,19733.000000,10025.000000,48729.000000
23168.000000,19758.000000,10045.000000,48742.000000
23169.000000,19727.000000,10038.000000,48731.000000
23162.000000,19747.000000,10054.000000,48732.000000
23172.000000,19732.000000,10044.000000,48706.000000
23179.000000,19726.000000,10052.000000,48737.000000
23171.000000,19729.000000,10063.000000,48736.000000
23195.000000,19698.000000,10044.000000,48760.000000
23153.000000,19699.000000,10050.000000,48738.000000
23150.000000,19669.000000,10063.000000,48744.000000
23155.000000,19697.000000,10029.000000,48719.000000
23140.000000,19658.000000,10003.000000,48699.000000
23121.000000,19675.000000,9992.000000,48675.000000
23116.000000,19661.000000,9971.000000,48702.000000
23113.000000,19677.000000,9977.000000,48665.000000
23074.000000,19626.000000,9925.000000,48662.000000
23057.000000,19644.000000,9938.000000,48687.000000
23056.000000,19617.000000,9919.000000,48663.000000
23033.000000,19630.000000,9907.000000,48649.000000
22993.000000,19606.000000,9883.000000,48628.000000
22995.000000,19566.000000,9849.000000,48623.000000
22985.000000,19564.000000,9813.000000,48618.000000
22959.000000,19544.000000,9826.000000,48592.000000
22949.000000,19540.000000,9810.000000,48602.000000
22958.000000,19527.000000,9782.000000,48595.000000
22910.000000,19491.000000,9786.000000,48573.000000
22887.000000,19522.000000,9733.000000,48533.000000
22858.000000,19467.000000,9747.000000,48520.000000
22873.000000,19435.000000,9716.000000,48555.000000
22883.000000,19466.000000,9701.000000,48560.000000
22828.000000,19447.000000,9710.000000,48550.000000
22826.000000,19418.000000,9700.000000,48514.000000
22789.000000,19424.000000,9666.000000,48514.000000
22784.000000,19409.000000,9652.000000,48515.000000
22807.000000,19376.000000,9641.000000,48486.000000
22751.000000,19417.000000,9613.000000,48491.000000
22780.000000,19397.000000,9602.000000,48507.000000
22722.000000,19370.000000,9578.000000,48473.000000
22749.000000,19391.000000,9615.000000,48461.000000
22720.000000,19373.000000,9568.000000,48463.000000
22756.000000,19350.000000,9613.000000,48493.000000
22749.000000,19369.000000,9579.000000,48466.000000
22734.000000,19371.000000,9610.000000,48499.000000
22726.000000,19365.000000,9624.000000,48493.000000
22764.000000,19357.000000,9614.000000,48491.000000
22779.000000,19370.000000,9638.000000,48517.000000
22761.000000,19389.000000,9661.000000,48486.000000
22832.000000,19424.000000,9709.000000,48550.000000
22857.000000,19472.000000,9715.000000,48548.000000
22890.000000,19503.000000,9778.000000,48591.000000
22952.000000,19535.000000,9814.000000,48595.000000
22999.000000,19592.000000,9848.000000,48638.000000
23052.000000,19622.000000,9897.000000,48640.000000
23090.000000,19671.000000,9963.000000,48693.000000
23144.000000,19683.000000,10000.000000,48721.000000
23212.000000,19721.000000,10054.000000,48771.000000
23237.000000,19785.000000,10123.000000,48807.000000
23278.000000,19812.000000,10177.000000,48806.000000
23354.000000,19878.000000,10181.000000,48843.000000
23382.000000,19864.000000,10231.000000,48859.000000
23404.000000,19938.000000,10273.000000,48909.000000
23422.000000,19908.000000,10276.000000,48900.000000
23450.000000,19945.000000,10294.000000,48913.000000
23448.000000,19927.000000,10301.000000,48912.000000
23447.000000,19919.000000,10303.000000,48910.000000
23417.000000,19957.000000,10276.000000,48879.000000
23439.000000,19922.000000,10277.000000,48900.000000
23417.000000,19921.000000,10259.000000,48856.000000
23413.000000,19905.000000,10227.000000,48874.000000
23410.000000,19891.000000,10240.000000,48877.000000
23418.000000,19877.000000,10217.000000,48895.000000
23362.000000,19852.000000,10206.000000,48878.000000
23388.000000,19910.000000,10206.000000,48840.000000
23378.000000,19856.000000,10234.000000,48821.000000
23359.000000,19844.000000,10172.000000,48848.000000
23324.000000,19834.000000,10181.000000,48829.000000
23331.000000,19833.000000,10163.000000,48806.000000
23333.000000,19785.000000,10158.000000,48819.000000
23326.000000,19814.000000,10148.000000,48854.000000
23309.000000,19798.000000,10154.000000,48822.000000
23298.000000,19801.000000,10132.000000,48795.000000
23315.000000,19788.000000,10104.000000,48810.000000
23281.000000,19788.000000,10092.000000,48780.000000
23267.000000,19774.000000,10088.000000,48807.000000
23244.000000,19754.000000,10079.000000,48781.000000
23264.000000,19734.000000,10049.000000,48781.000000
23230.000000,19740.000000,10044.000000,48783.000000
23236.000000,19739.000000,10047.000000,48768.000000
23216.000000,19744.000000,10039.000000,48731.000000
23236.000000,19712.000000,10049.000000,48759.000000
23218.000000,19699.000000,10056.000000,48762.000000
23191.000000,19719.000000,10031.000000,48733.000000
23164.000000,19658.000000,9990.000000,48732.000000
23180.000000,19692.000000,9990.000000,48734.000000
23165.000000,19686.000000,9981.000000,48744.000000
23164.000000,19652.000000,9972.000000,48697.000000
23158.000000,19669.000000,9960.000000,48710.000000
23128.000000,19639.000000,9953.000000,48684.000000
23151.000000,19645.000000,9963.000000,48685.000000
23121.000000,19592.000000,9938.000000,48696.000000
23100.000000,19625.000000,9926.000000,48688.000000
23132.000000,19636.000000,9902.000000,48659.000000
23077.000000,19620.000000,9889.000000,48661.000000
23068.000000,19597.000000,9871.000000,48641.000000
23059.000000,19592.000000,9862.000000,48665.000000
23043.000000,19600.000000,9886.000000,48653.000000
23036.000000,19576.000000,9851.000000,48623.000000
23050.000000,19584.000000,9840.000000,48635.000000
23032.000000,19559.000000,9829.000000,48652.000000
23017.000000,19557.000000,9825.000000,48615.000000
22977.000000,19545.000000,9818.000000,48627.000000
22997.000000,19542.000000,9783.000000,48603.000000
23019.000000,19493.000000,9796.000000,48599.000000
22998.000000,19563.000000,9793.000000,48583.000000
22967.000000,19506.000000,9748.000000,48590.000000
22964.000000,19531.000000,9758.000000,48615.000000
22948.000000,19495.000000,9781.000000,48567.000000
22989.000000,19470.000000,9746.000000,48589.000000
22949.000000,19535.000000,9743.000000,48557.000000
22925.000000,19504.000000,9732.000000,48571.000000
22941.000000,19486.000000,9722.000000,48575.000000
22877.000000,19461.000000,9692.000000,48561.000000
22908.000000,19456.000000,9695.000000,48547.000000
22869.000000,19458.000000,9692.000000,48542.000000
22888.000000,19449.000000,9669.000000,48578.000000
22897.000000,19442.000000,9684.000000,48539.000000
22884.000000,19442.000000,9710.000000,48542.000000
22900.000000,19462.000000,9704.000000,48553.000000
22896.000000,19463.000000,9680.000000,48564.000000
22893.000000,19440.000000,9697.000000,48543.000000
22930.000000,19445.000000,9664.000000,48540.000000
22894.000000,19442.000000,9696.000000,48527.000000
22913.000000,19461.000000,9721.000000,48518.000000
22896.000000,19444.000000,9652.000000,48548.000000
22864.000000,19449.000000,9683.000000,48526.000000
22896.000000,19471.000000,9693.000000,48544.000000
22904.000000,19438.000000,9691.000000,48546.000000
22900.000000,19459.000000,9688.000000,48541.000000
22896.000000,19459.000000,9683.000000,48535.000000
22906.000000,19434.000000,9683.000000,48526.000000
22888.000000,19456.000000,9684.000000,48561.000000
22865.000000,19417.000000,9666.000000,48541.000000
22892.000000,19406.000000,9638.000000,48513.000000
22845.000000,19440.000000,9618.000000,48539.000000
22826.000000,19391.000000,9660.000000,48492.000000
22837.000000,19364.000000,9618.000000,48532.000000
22794.000000,19386.000000,9612.000000,48486.000000
22779.000000,19370.000000,9614.000000,48508.000000
22807.000000,19362.000000,9557.000000,48501.000000
22768.000000,19343.000000,9564.000000,48453.000000
22759.000000,19330.000000,9529.000000,48464.000000
22743.000000,19297.000000,9512.000000,48420.000000
22697.000000,19317.000000,9496.000000,48426.000000
22681.000000,19298.000000,9483.000000,48419.000000
22695.000000,19279.000000,9465.000000,48406.000000
22680.000000,19283.000000,9462.000000,48436.000000
22648.000000,19247.000000,9456.000000,48396.000000
22637.000000,19193.000000,9428.000000,48407.000000
22629.000000,19254.000000,9401.000000,48385.000000
22627.000000,19240.000000,9422.000000,48397.000000
22635.000000,19266.000000,9395.000000,48400.000000
22590.000000,19188.000000,9374.000000,48366.000000
22571.000000,19170.000000,9369.000000,48342.000000
22573.000000,19190.000000,9394.000000,48345.000000
22588.000000,19228.000000,9408.000000,48389.000000
22625.000000,19231.000000,9416.000000,48406.000000
22650.000000,19237.000000,9456.000000,48417.000000
22671.000000,19257.000000,9494.000000,48413.000000
22726.000000,19310.000000,9500.000000,48460.000000
22964.000000,19488.000000,9766.000000,48589.000000
23007.000000,19526.000000,9844.000000,48624.000000
23066.000000,19627.000000,9890.000000,48674.000000
23127.000000,19660.000000,9961.000000,48706.000000
23177.000000,19685.000000,10012.000000,48741.000000
23222.000000,19711.000000,10070.000000,48752.000000
23331.000000,19813.000000,10170.000000,48835.000000
23376.000000,19852.000000,10187.000000,48845.000000
23355.000000,19822.000000,10203.000000,48864.000000
23364.000000,19837.000000,10162.000000,48865.000000
23360.000000,19837.000000,10157.000000,48850.000000
23377.000000,19842.000000,10175.000000,48828.000000
23343.000000,19783.000000,10148.000000,48830.000000
23321.000000,19787.000000,10131.000000,48832.000000
23295.000000,19755.000000,10101.000000,48788.000000
23251.000000,19733.000000,10058.000000,48776.000000
23289.000000,19767.000000,10076.000000,48790.000000
23257.000000,19709.000000,10047.000000,48765.000000
23277.000000,19733.000000,10045.000000,48776.000000
23189.000000,19728.000000,9985.000000,48749.000000
23196.000000,19682.000000,9998.000000,48745.000000
23189.000000,19702.000000,9981.000000,48747.000000
23195.000000,19691.000000,9994.000000,48742.000000
23163.000000,19642.000000,9954.000000,48706.000000
23158.000000,19633.000000,9950.000000,48735.000000
23133.000000,19634.000000,9939.000000,48705.000000
23129.000000,19662.000000,9923.000000,48700.000000
23124.000000,19620.000000,9924.000000,48705.000000
23098.000000,19618.000000,9882.000000,48644.000000
23098.000000,19590.000000,9862.000000,48670.000000
23076.000000,19564.000000,9864.000000,48646.000000
23059.000000,19567.000000,9846.000000,48672.000000
23051.000000,19571.000000,9839.000000,48640.000000
23071.000000,19603.000000,9841.000000,48681.000000
22982.000000,19535.000000,9835.000000,48658.000000
23031.000000,19555.000000,9820.000000,48617.000000
23011.000000,19518.000000,9827.000000,48615.000000
23003.000000,19537.000000,9790.000000,48637.000000
22993.000000,19546.000000,9755.000000,48606.000000
23004.000000,19491.000000,9765.000000,48630.000000
22976.000000,19494.000000,9756.000000,48608.000000
22974.000000,19534.000000,9769.000000,48625.000000
22948.000000,19486.000000,9760.000000,48582.000000
22941.000000,19478.000000,9733.000000,48579.000000
22974.000000,19476.000000,9723.000000,48582.000000
22956.000000,19475.000000,9749.000000,48586.000000
22945.000000,19455.000000,9742.000000,48607.000000
22942.000000,19484.000000,9748.000000,48575.000000
22932.000000,19493.000000,9727.000000,48601.000000
22961.000000,19479.000000,9719.000000,48574.000000
22949.000000,19464.000000,9725.000000,48598.000000
22800.000000,19361.000000,9599.000000,48501.000000
22815.000000,19368.000000,9597.000000,48489.000000
22775.000000,19331.000000,9580.000000,48490.000000
22800.000000,19335.000000,9553.000000,48488.000000
22773.000000,19332.000000,9526.000000,48477.000000
22747.000000,19343.000000,9557.000000,48458.000000
22745.000000,19331.000000,9533.000000,48463.000000
22699.000000,19274.000000,9459.000000,48417.000000
22685.000000,19259.000000,9490.000000,48417.000000
22688.000000,19242.000000,9438.000000,48404.000000
22684.000000,19257.000000,9460.000000,48411.000000
22669.000000,19245.000000,9445.000000,48408.000000
22651.000000,19267.000000,9480.000000,48432.000000
22709.000000,19258.000000,9463.000000,48412.000000
22719.000000,19261.000000,9469.000000,48427.000000
22867.000000,19408.000000,9641.000000,48558.000000
22877.000000,19439.000000,9709.000000,48586.000000
22968.000000,19469.000000,9766.000000,48603.000000
23004.000000,19554.000000,9817.000000,48635.000000
23064.000000,19581.000000,9893.000000,48684.000000
23233.000000,19723.000000,10056.000000,48794.000000
23308.000000,19783.000000,10091.000000,48782.000000
23400.000000,19850.000000,10239.000000,48879.000000
23441.000000,19861.000000,10239.000000,48862.000000
23469.000000,19881.000000,10247.000000,48904.000000
23500.000000,19890.000000,10281.000000,48915.000000
23437.000000,19894.000000,10281.000000,48897.000000
23432.000000,19896.000000,10253.000000,48898.000000
23415.000000,19860.000000,10210.000000,48880.000000
23446.000000,19859.000000,10210.000000,48879.000000
23423.000000,19853.000000,10191.000000,48863.000000
23410.000000,19835.000000,10204.000000,48889.000000
23397.000000,19836.000000,10185.000000,48861.000000
23414.000000,19860.000000,10202.000000,48871.000000
23357.000000,19810.000000,10167.000000,48843.000000
23344.000000,19777.000000,10168.000000,48824.000000
23348.000000,19776.000000,10105.000000,48831.000000
23348.000000,19787.000000,10116.000000,48787.000000
23317.000000,19755.000000,10111.000000,48813.000000
23305.000000,19752.000000,10069.000000,48810.000000
23322.000000,19729.000000,10099.000000,48808.000000
23297.000000,19743.000000,10057.000000,48805.000000
23275.000000,19693.000000,10036.000000,48763.000000
23253.000000,19721.000000,10019.000000,48782.000000
23237.000000,19722.000000,10031.000000,48768.000000
23246.000000,19690.000000,10051.000000,48749.000000
23222.000000,19660.000000,9975.000000,48702.000000
23195.000000,19680.000000,10017.000000,48734.000000
23177.000000,19646.000000,9952.000000,48723.000000
23144.000000,19595.000000,9911.000000,48693.000000
23111.000000,19631.000000,9930.000000,48703.000000
23133.000000,19599.000000,9910.000000,48683.000000
23104.000000,19627.000000,9946.000000,48674.000000
23120.000000,19587.000000,9909.000000,48668.000000
23117.000000,19566.000000,9899.000000,48675.000000
23144.000000,19603.000000,9932.000000,48685.000000
23102.000000,19558.000000,9852.000000,48667.000000
23064.000000,19569.000000,9874.000000,48660.000000
23109.000000,19564.000000,9870.000000,48689.000000
23071.000000,19560.000000,9882.000000,48678.000000
23071.000000,19587.000000,9872.000000,48644.000000
23077.000000,19562.000000,9914.000000,48660.000000
23107.000000,19586.000000,9856.000000,48672.000000
23046.000000,19538.000000,9828.000000,48660.000000
23048.000000,19558.000000,9864.000000,48638.000000
23043.000000,19526.000000,9798.000000,48670.000000
23033.000000,19531.000000,9838.000000,48621.000000
23024.000000,19488.000000,9808.000000,48613.000000
22945.000000,19449.000000,9741.000000,48600.000000
22924.000000,19449.000000,9689.000000,48586.000000
22873.000000,19398.000000,9670.000000,48529.000000
22851.000000,19388.000000,9627.000000,48524.000000
22826.000000,19371.000000,9592.000000,48513.000000
22831.000000,19335.000000,9614.000000,48521.000000
22819.000000,19262.000000,9610.000000,48534.000000
22793.000000,19356.000000,9566.000000,48479.000000
22791.000000,19337.000000,9562.000000,48502.000000
22772.000000,19307.000000,9595.000000,48507.000000
22774.000000,19330.000000,9547.000000,48469.000000
22786.000000,19309.000000,9550.000000,48494.000000
22783.000000,19319.000000,9568.000000,48503.000000
22775.000000,19341.000000,9567.000000,48502.000000
22776.000000,19344.000000,9603.000000,48517.000000
22883.000000,19401.000000,9652.000000,48548.000000
22856.000000,19379.000000,9681.000000,48539.000000
22932.000000,19409.000000,9730.000000,48576.000000
23072.000000,19562.000000,9863.000000,48660.000000
23476.000000,19856.000000,10280.000000,48917.000000
23527.000000,19875.000000,10289.000000,48936.000000
23561.000000,19932.000000,10357.000000,48956.000000
23566.000000,19947.000000,10370.000000,48972.000000
23560.000000,19988.000000,10388.000000,48996.000000
23633.000000,20000.000000,10388.000000,48998.000000
23590.000000,20000.000000,10407.000000,49003.000000
23615.000000,19998.000000,10393.000000,49013.000000
23598.000000,19957.000000,10365.000000,48975.000000
23517.000000,19945.000000,10385.000000,48986.000000
23565.000000,19943.000000,10365.000000,48956.000000
23493.000000,19865.000000,10267.000000,48928.000000
23434.000000,19862.000000,10236.000000,48871.000000
23432.000000,19844.000000,10206.000000,48891.000000
23423.000000,19855.000000,10193.000000,48860.000000
23399.000000,19799.000000,10173.000000,48865.000000
23390.000000,19767.000000,10150.000000,48856.000000
23412.000000,19783.000000,10163.000000,48828.000000
23400.000000,19785.000000,10122.000000,48848.000000
23378.000000,19780.000000,10144.000000,48830.000000
23339.000000,19768.000000,10115.000000,48811.000000
23317.000000,19759.000000,10042.000000,48827.000000
23285.000000,19714.000000,10036.000000,48791.000000
23271.000000,19706.000000,10056.000000,48788.000000
23253.000000,19705.000000,10036.000000,48744.000000
23254.000000,19687.000000,10041.000000,48773.000000
23225.000000,19656.000000,9988.000000,48721.000000
23239.000000,19655.000000,10004.000000,48740.000000
23214.000000,19657.000000,9996.000000,48751.000000
23211.000000,19641.000000,10000.000000,48759.000000
23242.000000,19708.000000,9996.000000,48750.000000
23222.000000,19668.000000,10012.000000,48754.000000
23231.000000,19681.000000,10001.000000,48770.000000
23230.000000,19679.000000,10016.000000,48745.000000
23221.000000,19683.000000,10007.000000,48755.000000
23184.000000,19662.000000,10003.000000,48777.000000
23203.000000,19679.000000,10008.000000,48760.000000
23191.000000,19651.000000,9962.000000,48746.000000
23165.000000,19632.000000,9965.000000,48716.000000
23160.000000,19612.000000,9914.000000,48723.000000
23148.000000,19632.000000,9942.000000,48720.000000
23126.000000,19575.000000,9911.000000,48689.000000
23049.000000,19542.000000,9822.000000,48649.000000
23054.000000,19527.000000,9850.000000,48667.000000
22987.000000,19503.000000,9795.000000,48615.000000
22994.000000,19486.000000,9770.000000,48634.000000
23001.000000,19455.000000,9792.000000,48619.000000
22943.000000,19479.000000,9752.000000,48613.000000
22927.000000,19437.000000,9736.000000,48628.000000
22941.000000,19483.000000,9717.000000,48575.000000
22873.000000,19407.000000,9716.000000,48568.000000
22887.000000,19434.000000,9687.000000,48565.000000
22896.000000,19400.000000,9679.000000,48588.000000
22913.000000,19440.000000,9707.000000,48572.000000
22902.000000,19425.000000,9720.000000,48558.000000
22930.000000,19422.000000,9746.000000,48604.000000
22953.000000,19492.000000,9754.000000,48592.000000
23153.000000,19600.000000,9951.000000,48731.000000
23329.000000,19728.000000,10103.000000,48777.000000
23349.000000,19777.000000,10186.000000,48875.000000
23428.000000,19805.000000,10244.000000,48877.000000
23470.000000,19875.000000,10299.000000,48913.000000
23565.000000,19943.000000,10358.000000,48950.000000
23610.000000,19940.000000,10385.000000,48983.000000
23736.000000,20061.000000,10543.000000,49087.000000
23704.000000,20074.000000,10547.000000,49106.000000
23700.000000,20081.000000,10550.000000,49091.000000
23705.000000,20072.000000,10539.000000,49074.000000
23699.000000,20075.000000,10535.000000,49090.000000
23695.000000,20070.000000,10520.000000,49061.000000
23690.000000,20075.000000,10480.000000,49068.000000
23664.000000,20031.000000,10476.000000,49032.000000
23649.000000,20005.000000,10469.000000,49036.000000
23660.000000,20012.000000,10448.000000,49027.000000
23653.000000,19990.000000,10420.000000,49039.000000
23634.000000,20023.000000,10430.000000,49041.000000
23595.000000,19980.000000,10412.000000,48981.000000
23571.000000,19941.000000,10370.000000,49002.000000
23522.000000,19930.000000,10326.000000,48950.000000
23504.000000,19888.000000,10329.000000,48954.000000
23527.000000,19945.000000,10328.000000,48940.000000
23502.000000,19911.000000,10314.000000,48942.000000
23446.000000,19862.000000,10287.000000,48922.000000
23437.000000,19871.000000,10231.000000,48908.000000
23441.000000,19878.000000,10239.000000,48906.000000
23438.000000,19852.000000,10250.000000,48910.000000
23405.000000,19839.000000,10253.000000,48908.000000
23423.000000,19809.000000,10215.000000,48872.000000
23376.000000,19774.000000,10195.000000,48888.000000
23362.000000,19813.000000,10181.000000,48863.000000
23365.000000,19773.000000,10178.000000,48840.000000
23357.000000,19764.000000,10143.000000,48857.000000
23328.000000,19775.000000,10141.000000,48849.000000
23322.000000,19761.000000,10161.000000,48834.000000
23316.000000,19746.000000,10156.000000,48838.000000
23342.000000,19770.000000,10160.000000,48845.000000
23341.000000,19747.000000,10142.000000,48832.000000
23332.000000,19737.000000,10162.000000,48818.000000
23316.000000,19747.000000,10143.000000,48822.000000
23297.000000,19752.000000,10135.000000,48811.000000
23305.000000,19762.000000,10119.000000,48840.000000
23306.000000,19722.000000,10115.000000,48820.000000
23289.000000,19745.000000,10143.000000,48834.000000
23297.000000,19698.000000,10111.000000,48820.000000
23197.000000,19663.000000,10044.000000,48774.000000
23167.000000,19638.000000,10047.000000,48772.000000
23154.000000,19627.000000,10017.000000,48754.000000
23111.000000,19607.000000,9995.000000,48755.000000
23124.000000,19584.000000,9925.000000,48715.000000
23114.000000,19586.000000,9917.000000,48715.000000
23098.000000,19576.000000,9932.000000,48680.000000
23044.000000,19510.000000,9886.000000,48639.000000
23026.000000,19519.000000,9864.000000,48687.000000
23034.000000,19529.000000,9841.000000,48646.000000
22971.000000,19491.000000,9857.000000,48640.000000
23008.000000,19500.000000,9842.000000,48643.000000
22979.000000,19484.000000,9782.000000,48645.000000
23012.000000,19509.000000,9860.000000,48665.000000
23004.000000,19485.000000,9864.000000,48695.000000
23116.000000,19586.000000,9934.000000,48743.000000
23137.000000,19647.000000,9986.000000,48732.000000
23184.000000,19642.000000,10061.000000,48773.000000
23356.000000,19791.000000,10226.000000,48906.000000
23637.000000,20014.000000,10497.000000,49052.000000
23722.000000,20113.000000,10612.000000,49133.000000
23761.000000,20101.000000,10614.000000,49132.000000
23782.000000,20129.000000,10637.000000,49157.000000
23724.000000,20115.000000,10654.000000,49150.000000
23771.000000,20112.000000,10635.000000,49171.000000
23747.000000,20108.000000,10625.000000,49131.000000
23747.000000,20106.000000,10619.000000,49169.000000
23740.000000,20087.000000,10612.000000,49110.000000
23732.000000,20080.000000,10611.000000,49102.000000
23680.000000,20068.000000,10571.000000,49088.000000
23689.000000,20045.000000,10559.000000,49082.000000
23699.000000,20056.000000,10580.000000,49107.000000
23653.000000,20022.000000,10530.000000,49077.000000
23574.000000,19984.000000,10440.000000,49069.000000
23565.000000,19985.000000,10441.000000,49036.000000
23542.000000,19938.000000,10429.000000,49004.000000
23557.000000,20004.000000,10400.000000,49010.000000
23511.000000,19926.000000,10402.000000,49006.000000
23518.000000,19920.000000,10370.000000,48969.000000
23512.000000,19888.000000,10343.000000,48955.000000
23449.000000,19880.000000,10319.000000,48971.000000
23467.000000,19856.000000,10296.000000,48940.000000
23412.000000,19823.000000,10296.000000,48927.000000
23400.000000,19830.000000,10272.000000,48939.000000
23413.000000,19828.000000,10245.000000,48919.000000
23363.000000,19816.000000,10245.000000,48920.000000
23345.000000,19783.000000,10208.000000,48887.000000
23318.000000,19772.000000,10206.000000,48898.000000
23314.000000,19744.000000,10167.000000,48871.000000
23280.000000,19721.000000,10141.000000,48847.000000
23264.000000,19723.000000,10136.000000,48848.000000
23239.000000,19714.000000,10145.000000,48842.000000
23248.000000,19712.000000,10092.000000,48815.000000
23261.000000,19711.000000,10088.000000,48832.000000
23199.000000,19707.000000,10052.000000,48810.000000
23226.000000,19687.000000,10093.000000,48831.000000
23249.000000,19654.000000,10062.000000,48820.000000
23217.000000,19661.000000,10063.000000,48821.000000
23215.000000,19661.000000,10040.000000,48808.000000
23205.000000,19673.000000,10046.000000,48758.000000
23124.000000,19573.000000,9969.000000,48725.000000
23116.000000,19589.000000,9944.000000,48713.000000
23099.000000,19576.000000,9909.000000,48734.000000
23070.000000,19563.000000,9909.000000,48690.000000
22982.000000,19460.000000,9829.000000,48631.000000
22943.000000,19467.000000,9801.000000,48618.000000
22923.000000,19422.000000,9785.000000,48665.000000
22936.000000,19415.000000,9771.000000,48658.000000
22904.000000,19429.000000,9782.000000,48631.000000
22922.000000,19395.000000,9749.000000,48601.000000
22847.000000,19367.000000,9674.000000,48586.000000
22821.000000,19371.000000,9660.000000,48590.000000
22822.000000,19350.000000,9662.000000,48588.000000
22764.000000,19315.000000,9634.000000,48556.000000
22761.000000,19330.000000,9621.000000,48554.000000
22769.000000,19326.000000,9595.000000,48550.000000
22788.000000,19343.000000,9615.000000,48559.000000
22791.000000,19321.000000,9654.000000,48524.000000
22922.000000,19427.000000,9748.000000,48626.000000
22938.000000,19467.000000,9764.000000,48675.000000
23112.000000,19545.000000,9922.000000,48728.000000
23150.000000,19623.000000,9990.000000,48772.000000
23201.000000,19669.000000,10031.000000,48796.000000
23255.000000,19718.000000,10099.000000,48841.000000
23399.000000,19826.000000,10238.000000,48902.000000
23504.000000,19909.000000,10333.000000,48984.000000
23512.000000,19910.000000,10347.000000,48995.000000
23544.000000,19971.000000,10376.000000,49015.000000
23563.000000,19944.000000,10352.000000,49005.000000
23517.000000,19924.000000,10335.000000,48982.000000
23524.000000,19902.000000,10325.000000,48974.000000
23507.000000,19920.000000,10296.000000,48980.000000
23489.000000,19882.000000,10290.000000,48966.000000
23468.000000,19807.000000,10288.000000,48922.000000
23477.000000,19842.000000,10272.000000,48931.000000
23432.000000,19808.000000,10214.000000,48917.000000
23403.000000,19841.000000,10241.000000,48940.000000
23392.000000,19804.000000,10197.000000,48893.000000
23388.000000,19780.000000,10153.000000,48883.000000
23340.000000,19744.000000,10177.000000,48881.000000
23374.000000,19752.000000,10152.000000,48861.000000
23324.000000,19755.000000,10168.000000,48871.000000
23316.000000,19737.000000,10112.000000,48839.000000
23274.000000,19715.000000,10096.000000,48851.000000
23244.000000,19694.000000,10043.000000,48789.000000
23233.000000,19695.000000,10034.000000,48813.000000
23211.000000,19660.000000,10031.000000,48815.000000
23229.000000,19675.000000,10001.000000,48801.000000
23205.000000,19640.000000,9979.000000,48798.000000
23178.000000,19650.000000,9967.000000,48781.000000
23204.000000,19618.000000,9978.000000,48774.000000
23131.000000,19605.000000,9900.000000,48735.000000
23123.000000,19561.000000,9885.000000,48734.000000
23136.000000,19575.000000,9906.000000,48745.000000
23095.000000,19577.000000,9893.000000,48740.000000
23089.000000,19553.000000,9851.000000,48685.000000
23070.000000,19518.000000,9857.000000,48721.000000
23073.000000,19501.000000,9826.000000,48692.000000
23005.000000,19518.000000,9825.000000,48707.000000
23056.000000,19493.000000,9805.000000,48685.000000
23034.000000,19496.000000,9765.000000,48663.000000
23041.000000,19477.000000,9782.000000,48674.000000
23014.000000,19486.000000,9770.000000,48673.000000
23001.000000,19507.000000,9798.000000,48668.000000
22989.000000,19471.000000,9768.000000,48662.000000
23003.000000,19459.000000,9778.000000,48670.000000
23003.000000,19479.000000,9772.000000,48649.000000
22992.000000,19474.000000,9760.000000,48681.000000
23017.000000,19484.000000,9730.000000,48662.000000
23018.000000,19492.000000,9752.000000,48677.000000
23039.000000,19441.000000,9772.000000,48655.000000
22973.000000,19473.000000,9737.000000,48642.000000
23021.000000,19472.000000,9767.000000,48646.000000
22990.000000,19457.000000,9761.000000,48661.000000
23009.000000,19488.000000,9764.000000,48646.000000
22987.000000,19484.000000,9730.000000,48659.000000
22962.000000,19449.000000,9752.000000,48643.000000
22992.000000,19419.000000,9734.000000,48643.000000
22948.000000,19399.000000,9732.000000,48646.000000
22957.000000,19466.000000,9707.000000,48636.000000
22913.000000,19428.000000,9696.000000,48649.000000
22936.000000,19433.000000,9670.000000,48620.000000
22952.000000,19401.000000,9680.000000,48603.000000
22945.000000,19432.000000,9667.000000,48583.000000
22899.000000,19389.000000,9635.000000,48581.000000
22891.000000,19371.000000,9637.000000,48576.000000
22872.000000,19382.000000,9651.000000,48570.000000
22862.000000,19339.000000,9590.000000,48566.000000
22838.000000,19323.000000,9587.000000,48543.000000
22836.000000,19320.000000,9568.000000,48533.000000
22803.000000,19312.000000,9569.000000,48529.000000
22787.000000,19275.000000,9548.000000,48516.000000
22783.000000,19296.000000,9564.000000,48505.000000
22790.000000,19266.000000,9522.000000,48501.000000
22759.000000,19258.000000,9507.000000,48519.000000
22757.000000,19263.000000,9487.000000,48473.000000
22719.000000,19290.000000,9496.000000,48491.000000
22739.000000,19224.000000,9475.000000,48462.000000
22728.000000,19207.000000,9477.000000,48491.000000
22723.000000,19226.000000,9474.000000,48459.000000
22723.000000,19202.000000,9467.000000,48490.000000
22732.000000,19218.000000,9472.000000,48483.000000
22701.000000,19227.000000,9461.000000,48472.000000
22668.000000,19207.000000,9437.000000,48463.000000
22688.000000,19199.000000,9435.000000,48454.000000
22697.000000,19159.000000,9446.000000,48460.000000
22670.000000,19187.000000,9430.000000,48470.000000
22675.000000,19204.000000,9438.000000,48486.000000
22704.000000,19210.000000,9457.000000,48482.000000
22702.000000,19162.000000,9461.000000,48477.000000
22706.000000,19233.000000,9455.000000,48458.000000
22699.000000,19241.000000,9464.000000,48499.000000
22695.000000,19240.000000,9472.000000,48498.000000
22761.000000,19204.000000,9499.000000,48512.000000
22777.000000,19264.000000,9516.000000,48503.000000
22819.000000,19334.000000,9553.000000,48522.000000
22843.000000,19336.000000,9585.000000,48555.000000
22873.000000,19327.000000,9649.000000,48579.000000
22935.000000,19379.000000,9673.000000,48616.000000
22976.000000,19460.000000,9722.000000,48643.000000
23024.000000,19442.000000,9774.000000,48678.000000
23066.000000,19527.000000,9827.000000,48684.000000
23134.000000,19529.000000,9912.000000,48722.000000
23222.000000,19659.000000,9977.000000,48795.000000
23246.000000,19667.000000,10009.000000,48800.000000
23311.000000,19701.000000,10082.000000,48827.000000
23360.000000,19746.000000,10090.000000,48861.000000
23409.000000,19785.000000,10144.000000,48894.000000
23455.000000,19808.000000,10163.000000,48896.000000
23442.000000,19832.000000,10220.000000,48904.000000
23477.000000,19830.000000,10238.000000,48950.000000
23489.000000,19853.000000,10225.000000,48919.000000
23488.000000,19865.000000,10233.000000,48963.000000
23483.000000,19852.000000,10213.000000,48960.000000
23495.000000,19854.000000,10236.000000,48946.000000
23498.000000,19843.000000,10232.000000,48914.000000
23483.000000,19845.000000,10249.000000,48924.000000
23464.000000,19833.000000,10214.000000,48918.000000
23460.000000,19842.000000,10223.000000,48923.000000
23454.000000,19832.000000,10225.000000,48904.000000
23452.000000,19829.000000,10198.000000,48941.000000
23457.000000,19792.000000,10165.000000,48916.000000
23468.000000,19810.000000,10204.000000,48927.000000
23415.000000,19807.000000,10164.000000,48885.000000
23432.000000,19803.000000,10171.000000,48919.000000
23406.000000,19779.000000,10180.000000,48906.000000
23418.000000,19783.000000,10173.000000,48902.000000
23394.000000,19771.000000,10178.000000,48893.000000
23398.000000,19771.000000,10139.000000,48897.000000
23389.000000,19797.000000,10112.000000,48871.000000
23393.000000,19755.000000,10100.000000,48862.000000
23361.000000,19734.000000,10130.000000,48857.000000
23384.000000,19727.000000,10142.000000,48874.000000
23364.000000,19767.000000,10099.000000,48853.000000
23347.000000,19720.000000,10096.000000,48850.000000
23349.000000,19696.000000,10080.000000,48875.000000
23345.000000,19732.000000,10081.000000,48870.000000
23315.000000,19697.000000,10064.000000,48827.000000
23341.000000,19700.000000,10053.000000,48806.000000
23305.000000,19685.000000,10069.000000,48830.000000
23331.000000,19702.000000,10061.000000,48838.000000
23306.000000,19690.000000,10038.000000,48830.000000
23331.000000,19697.000000,10034.000000,48822.000000
23258.000000,19666.000000,10010.000000,48806.000000
23299.000000,19673.000000,10016.000000,48796.000000
23265.000000,19654.000000,9982.000000,48828.000000
23282.000000,19656.000000,10004.000000,48789.000000
23231.000000,19624.000000,9983.000000,48803.000000
23255.000000,19621.000000,9983.000000,48801.000000
23230.000000,19615.000000,9960.000000,48782.000000
23215.000000,19651.000000,9971.000000,48789.000000
23230.000000,19650.000000,9911.000000,48756.000000
23215.000000,19611.000000,9933.000000,48786.000000
23195.000000,19585.000000,9924.000000,48755.000000
23180.000000,19637.000000,9916.000000,48756.000000
23178.000000,19584.000000,9938.000000,48772.000000
23188.000000,19595.000000,9903.000000,48710.000000
23182.000000,19596.000000,9883.000000,48745.000000
23140.000000,19604.000000,9862.000000,48722.000000
23151.000000,19567.000000,9902.000000,48703.000000
23159.000000,19557.000000,9893.000000,48735.000000
23165.000000,19572.000000,9873.000000,48727.000000
23133.000000,19582.000000,9863.000000,48714.000000
23130.000000,19552.000000,9842.000000,48706.000000
23137.000000,19516.000000,9843.000000,48730.000000
23137.000000,19533.000000,9858.000000,48737.000000
23096.000000,19542.000000,9832.000000,48745.000000
23110.000000,19542.000000,9844.000000,48706.000000
23098.000000,19553.000000,9814.000000,48716.000000
23108.000000,19527.000000,9802.000000,48705.000000
23086.000000,19517.000000,9831.000000,48697.000000
23088.000000,19518.000000,9822.000000,48707.000000
23072.000000,19508.000000,9798.000000,48696.000000
23083.000000,19498.000000,9799.000000,48674.000000
23081.000000,19488.000000,9810.000000,48702.000000
23066.000000,19505.000000,9824.000000,48718.000000
23070.000000,19536.000000,9790.000000,48712.000000
23079.000000,19511.000000,9801.000000,48676.000000
23070.000000,19527.000000,9828.000000,48703.000000
23076.000000,19518.000000,9798.000000,48692.000000
23059.000000,19511.000000,9806.000000,48687.000000
23052.000000,19526.000000,9807.000000,48711.000000
23080.000000,19506.000000,9828.000000,48671.000000
23067.000000,19500.000000,9800.000000,48670.000000
23089.000000,19505.000000,9810.000000,48697.000000
23046.000000,19504.000000,9802.000000,48673.000000
23061.000000,19472.000000,9793.000000,48705.000000
23045.000000,19480.000000,9799.000000,48697.000000
23027.000000,19487.000000,9752.000000,48688.000000
23028.000000,19477.000000,9755.000000,48632.000000
23060.000000,19476.000000,9770.000000,48666.000000
23009.000000,19459.000000,9744.000000,48631.000000
23018.000000,19487.000000,9746.000000,48633.000000
22982.000000,19436.000000,9696.000000,48617.000000
22983.000000,19434.000000,9691.000000,48608.000000
22956.000000,19413.000000,9678.000000,48605.000000
22952.000000,19369.000000,9675.000000,48603.000000
22945.000000,19388.000000,9669.000000,48603.000000
22899.000000,19382.000000,9676.000000,48586.000000
22881.000000,19340.000000,9609.000000,48574.000000
22871.000000,19381.000000,9597.000000,48568.000000
22852.000000,19314.000000,9579.000000,48597.000000
22858.000000,19325.000000,9584.000000,48582.000000
22860.000000,19344.000000,9590.000000,48541.000000
22835.000000,19305.000000,9568.000000,48528.000000
22842.000000,19294.000000,9530.000000,48525.000000
22834.000000,19300.000000,9562.000000,48537.000000
22790.000000,19281.000000,9546.000000,48519.000000
22797.000000,19297.000000,9532.000000,48542.000000
22807.000000,19296.000000,9537.000000,48530.000000
22782.000000,19302.000000,9520.000000,48513.000000
22790.000000,19275.000000,9528.000000,48540.000000
22787.000000,19270.000000,9508.000000,48513.000000
22762.000000,19275.000000,9528.000000,48546.000000
22762.000000,19239.000000,9496.000000,48534.000000
22787.000000,19279.000000,9497.000000,48471.000000
22759.000000,19279.000000,9538.000000,48519.000000
22751.000000,19263.000000,9472.000000,48504.000000
22767.000000,19270.000000,9515.000000,48527.000000
22790.000000,19265.000000,9506.000000,48528.000000
22805.000000,19280.000000,9526.000000,48510.000000
22817.000000,19278.000000,9570.000000,48522.000000
22837.000000,19327.000000,9580.000000,48572.000000
22841.000000,19316.000000,9593.000000,48538.000000
22894.000000,19368.000000,9630.000000,48620.000000
22910.000000,19370.000000,9687.000000,48584.000000
22953.000000,19451.000000,9731.000000,48618.000000
23025.000000,19456.000000,9773.000000,48650.000000
23061.000000,19507.000000,9828.000000,48676.000000
23132.000000,19550.000000,9849.000000,48724.000000
23168.000000,19575.000000,9931.000000,48750.000000
23233.000000,19635.000000,9982.000000,48786.000000
23301.000000,19683.000000,10050.000000,48839.000000
23353.000000,19715.000000,10126.000000,48838.000000
23410.000000,19792.000000,10162.000000,48906.000000
23465.000000,19796.000000,10208.000000,48910.000000
23504.000000,19864.000000,10242.000000,48941.000000
23538.000000,19847.000000,10276.000000,48960.000000
23568.000000,19912.000000,10289.000000,48977.000000
23590.000000,19869.000000,10322.000000,48986.000000
23629.000000,19908.000000,10339.000000,49018.000000
23589.000000,19917.000000,10349.000000,49023.000000
23619.000000,19969.000000,10365.000000,49009.000000
23576.000000,19939.000000,10346.000000,49014.000000
23618.000000,19909.000000,10329.000000,49021.000000
23617.000000,19924.000000,10326.000000,49023.000000
23554.000000,19898.000000,10312.000000,49004.000000
23587.000000,19923.000000,10299.000000,49011.000000
23563.000000,19913.000000,10354.000000,49003.000000
23571.000000,19939.000000,10312.000000,48997.000000
23565.000000,19885.000000,10273.000000,49000.000000
23542.000000,19888.000000,10287.000000,48990.000000
23530.000000,19856.000000,10282.000000,48998.000000
23519.000000,19890.000000,10246.000000,48942.000000
23484.000000,19822.000000,10270.000000,48959.000000
23534.000000,19855.000000,10246.000000,48978.000000
23462.000000,19868.000000,10256.000000,48962.000000
23480.000000,19818.000000,10246.000000,48923.000000
23473.000000,19804.000000,10222.000000,48935.000000
23479.000000,19811.000000,10211.000000,48909.000000
23456.000000,19793.000000,10204.000000,48924.000000
23448.000000,19800.000000,10214.000000,48924.000000
23456.000000,19803.000000,10180.000000,48903.000000
23436.000000,19809.000000,10170.000000,48918.000000
23441.000000,19811.000000,10163.000000,48919.000000
23436.000000,19760.000000,10151.000000,48908.000000
23414.000000,19783.000000,10188.000000,48917.000000
23400.000000,19807.000000,10173.000000,48907.000000
23415.000000,19783.000000,10132.000000,48895.000000
23399.000000,19778.000000,10112.000000,48905.000000
23383.000000,19786.000000,10147.000000,48922.000000
23365.000000,19755.000000,10139.000000,48897.000000
23400.000000,19765.000000,10141.000000,48876.000000
23391.000000,19754.000000,10116.000000,48889.000000
23396.000000,19760.000000,10119.000000,48878.000000
23360.000000,19731.000000,10078.000000,48848.000000
23325.000000,19781.000000,10091.000000,48869.000000
23338.000000,19698.000000,10078.000000,48862.000000
23334.000000,19690.000000,10060.000000,48866.000000
23326.000000,19721.000000,10067.000000,48851.000000
23311.000000,19680.000000,10086.000000,48833.000000
23301.000000,19726.000000,10067.000000,48849.000000
23319.000000,19687.000000,10066.000000,48836.000000
23309.000000,19680.000000,10053.000000,48848.000000
23298.000000,19682.000000,10004.000000,48795.000000
23259.000000,19692.000000,10022.000000,48845.000000
23275.000000,19667.000000,10030.000000,48828.000000
23263.000000,19656.000000,9997.000000,48816.000000
23224.000000,19677.000000,9990.000000,48823.000000
23252.000000,19683.000000,9997.000000,48823.000000
23237.000000,19658.000000,9996.000000,48846.000000
23221.000000,19672.000000,9975.000000,48813.000000
23246.000000,19662.000000,9996.000000,48802.000000
23201.000000,19641.000000,9975.000000,48824.000000
23219.000000,19667.000000,9959.000000,48781.000000
23214.000000,19638.000000,9962.000000,48794.000000
23232.000000,19613.000000,9953.000000,48750.000000
23187.000000,19590.000000,9941.000000,48788.000000
23219.000000,19578.000000,9943.000000,48769.000000
23170.000000,19621.000000,9947.000000,48778.000000
23213.000000,19640.000000,9911.000000,48753.000000
23192.000000,19581.000000,9962.000000,48791.000000
23160.000000,19594.000000,9946.000000,48766.000000
23202.000000,19601.000000,9953.000000,48774.000000
23212.000000,19592.000000,9926.000000,48769.000000
23197.000000,19599.000000,9961.000000,48817.000000
23209.000000,19618.000000,9950.000000,48781.000000
23181.000000,19606.000000,9937.000000,48768.000000
23208.000000,19631.000000,9940.000000,48781.000000
23209.000000,19618.000000,9964.000000,48777.000000
23196.000000,19611.000000,9963.000000,48796.000000
23183.000000,19608.000000,9928.000000,48778.000000
23191.000000,19614.000000,9935.000000,48770.000000
23181.000000,19589.000000,9923.000000,48771.000000
23185.000000,19586.000000,9954.000000,48759.000000
23157.000000,19615.000000,9897.000000,48757.000000
23174.000000,19595.000000,9922.000000,48754.000000
23137.000000,19557.000000,9873.000000,48762.000000
23152.000000,19599.000000,9885.000000,48737.000000
23161.000000,19596.000000,9882.000000,48749.000000
23104.000000,19546.000000,9867.000000,48702.000000
23104.000000,19552.000000,9832.000000,48733.000000
23059.000000,19529.000000,9805.000000,48731.000000
23085.000000,19505.000000,9809.000000,48727.000000
23070.000000,19509.000000,9799.000000,48693.000000
23027.000000,19504.000000,9792.000000,48673.000000
23013.000000,19478.000000,9787.000000,48657.000000
22975.000000,19490.000000,9739.000000,48701.000000
23008.000000,19433.000000,9725.000000,48672.000000
22989.000000,19470.000000,9748.000000,48655.000000
22944.000000,19439.000000,9729.000000,48647.000000
22950.000000,19447.000000,9739.000000,48669.000000
22975.000000,19417.000000,9726.000000,48639.000000
22972.000000,19449.000000,9744.000000,48648.000000
22957.000000,19430.000000,9693.000000,48655.000000
22950.000000,19427.000000,9688.000000,48620.000000
22936.000000,19360.000000,9693.000000,48637.000000
22929.000000,19406.000000,9717.000000,48615.000000
22940.000000,19405.000000,9689.000000,48622.000000
22918.000000,19414.000000,9687.000000,48638.000000
22919.000000,19407.000000,9669.000000,48601.000000
22924.000000,19408.000000,9683.000000,48630.000000
22909.000000,19396.000000,9690.000000,48614.000000
22936.000000,19397.000000,9672.000000,48616.000000
22952.000000,19394.000000,9729.000000,48623.000000
22933.000000,19403.000000,9726.000000,48634.000000
22952.000000,19438.000000,9696.000000,48640.000000
22938.000000,19422.000000,9728.000000,48634.000000
23037.000000,19473.000000,9757.000000,48673.000000
22993.000000,19480.000000,9811.000000,48678.000000
23037.000000,19486.000000,9857.000000,48702.000000
23079.000000,19508.000000,9898.000000,48749.000000
23118.000000,19566.000000,9902.000000,48730.000000
23168.000000,19619.000000,9943.000000,48747.000000
23225.000000,19652.000000,9984.000000,48795.000000
23279.000000,19679.000000,10035.000000,48845.000000
23304.000000,19736.000000,10098.000000,48873.000000
23396.000000,19798.000000,10148.000000,48892.000000
23451.000000,19827.000000,10237.000000,48951.000000
23496.000000,19864.000000,10289.000000,48981.000000
23531.000000,19928.000000,10304.000000,49008.000000
23601.000000,19955.000000,10359.000000,49056.000000
23619.000000,19981.000000,10436.000000,49076.000000
23678.000000,20006.000000,10444.000000,49061.000000
23700.000000,20028.000000,10489.000000,49086.000000
23727.000000,20037.000000,10484.000000,49085.000000
23715.000000,20015.000000,10480.000000,49115.000000
23748.000000,20056.000000,10549.000000,49140.000000
23730.000000,20044.000000,10510.000000,49097.000000
23719.000000,20051.000000,10530.000000,49139.000000
23737.000000,20034.000000,10503.000000,49122.000000
23744.000000,20059.000000,10525.000000,49128.000000
23715.000000,20043.000000,10507.000000,49109.000000
23684.000000,20029.000000,10499.000000,49091.000000
23691.000000,20043.000000,10493.000000,49099.000000
23703.000000,20019.000000,10446.000000,49077.000000
23681.000000,20037.000000,10466.000000,49085.000000
23681.000000,20020.000000,10445.000000,49087.000000
23650.000000,20036.000000,10455.000000,49076.000000
23665.000000,19991.000000,10442.000000,49114.000000
23670.000000,20006.000000,10421.000000,49072.000000
23663.000000,20035.000000,10451.000000,49096.000000
23633.000000,19964.000000,10418.000000,49047.000000
23676.000000,19969.000000,10448.000000,49043.000000
23647.000000,20003.000000,10411.000000,49091.000000
23620.000000,19977.000000,10450.000000,49043.000000
23626.000000,19994.000000,10425.000000,49069.000000
23628.000000,19958.000000,10391.000000,49054.000000
23630.000000,19993.000000,10408.000000,49090.000000
23621.000000,19937.000000,10404.000000,49082.000000
23609.000000,19964.000000,10375.000000,49049.000000
23603.000000,19953.000000,10360.000000,49049.000000
23589.000000,19917.000000,10370.000000,49056.000000
23577.000000,19911.000000,10350.000000,49016.000000
23546.000000,19923.000000,10326.000000,49031.000000
23536.000000,19940.000000,10356.000000,49009.000000
23558.000000,19928.000000,10358.000000,49031.000000
23525.000000,19905.000000,10347.000000,48991.000000
23527.000000,19924.000000,10320.000000,49012.000000
23538.000000,19905.000000,10329.000000,49004.000000
23540.000000,19893.000000,10295.000000,49020.000000
23542.000000,19871.000000,10305.000000,49002.000000
23564.000000,19851.000000,10273.000000,48979.000000
23510.000000,19853.000000,10278.000000,48980.000000
23509.000000,19858.000000,10288.000000,49003.000000
23498.000000,19852.000000,10290.000000,48989.000000
23495.000000,19862.000000,10266.000000,48973.000000
23483.000000,19864.000000,10264.000000,48971.000000
23450.000000,19830.000000,10276.000000,48973.000000
23452.000000,19841.000000,10260.000000,48953.000000
23472.000000,19824.000000,10276.000000,48944.000000
23456.000000,19836.000000,10207.000000,48947.000000
23423.000000,19834.000000,10221.000000,48939.000000
23431.000000,19792.000000,10223.000000,48956.000000
23413.000000,19769.000000,10222.000000,48960.000000
23418.000000,19833.000000,10216.000000,48936.000000
23415.000000,19813.000000,10196.000000,48910.000000
23399.000000,19814.000000,10190.000000,48931.000000
23397.000000,19824.000000,10194.000000,48946.000000
23389.000000,19789.000000,10209.000000,48911.000000
23382.000000,19804.000000,10195.000000,48944.000000
23351.000000,19801.000000,10191.000000,48919.000000
23373.000000,19760.000000,10168.000000,48933.000000
23381.000000,19801.000000,10192.000000,48933.000000
23384.000000,19778.000000,10162.000000,48920.000000
23374.000000,19756.000000,10183.000000,48897.000000
23368.000000,19763.000000,10182.000000,48911.000000
23376.000000,19768.000000,10187.000000,48902.000000
23402.000000,19782.000000,10169.000000,48919.000000
23427.000000,19783.000000,10203.000000,48921.000000
23394.000000,19779.000000,10188.000000,48918.000000
23358.000000,19778.000000,10162.000000,48913.000000
23362.000000,19777.000000,10159.000000,48935.000000
23375.000000,19776.000000,10174.000000,48931.000000
23348.000000,19758.000000,10177.000000,48901.000000
23362.000000,19768.000000,10163.000000,48912.000000
23359.000000,19755.000000,10173.000000,48885.000000
23357.000000,19760.000000,10149.000000,48905.000000
23370.000000,19754.000000,10160.000000,48924.000000
23333.000000,19752.000000,10179.000000,48919.000000
23324.000000,19747.000000,10134.000000,48907.000000
23352.000000,19722.000000,10146.000000,48917.000000
23322.000000,19733.000000,10157.000000,48884.000000
23295.000000,19717.000000,10140.000000,48881.000000
23288.000000,19719.000000,10111.000000,48881.000000
23300.000000,19719.000000,10098.000000,48884.000000
23275.000000,19703.000000,10058.000000,48857.000000
23262.000000,19698.000000,10070.000000,48852.000000
23241.000000,19689.000000,10061.000000,48847.000000
23251.000000,19650.000000,10008.000000,48816.000000
23204.000000,19637.000000,10026.000000,48815.000000
23179.000000,19640.000000,10005.000000,48824.000000
23174.000000,19628.000000,10033.000000,48817.000000
23176.000000,19619.000000,9993.000000,48778.000000
23158.000000,19607.000000,9992.000000,48836.000000
23161.000000,19578.000000,9973.000000,48790.000000
23176.000000,19639.000000,9982.000000,48786.000000
23116.000000,19599.000000,9969.000000,48798.000000
23140.000000,19600.000000,9951.000000,48789.000000
23119.000000,19589.000000,9948.000000,48766.000000
23108.000000,19589.000000,9947.000000,48771.000000
23120.000000,19568.000000,9937.000000,48754.000000
23092.000000,19571.000000,9908.000000,48761.000000
23083.000000,19546.000000,9919.000000,48763.000000
23077.000000,19560.000000,9898.000000,48739.000000
23076.000000,19560.000000,9892.000000,48788.000000
23092.000000,19577.000000,9912.000000,48753.000000
23053.000000,19576.000000,9901.000000,48758.000000
23069.000000,19533.000000,9889.000000,48795.000000
23102.000000,19577.000000,9937.000000,48773.000000
23067.000000,19577.000000,9928.000000,48775.000000
23117.000000,19590.000000,9956.000000,48783.000000
23127.000000,19614.000000,9993.000000,48831.000000
23159.000000,19639.000000,10000.000000,48819.000000
23203.000000,19666.000000,10031.000000,48818.000000
23232.000000,19667.000000,10049.000000,48842.000000
23308.000000,19702.000000,10117.000000,48897.000000
23329.000000,19746.000000,10195.000000,48909.000000
23415.000000,19801.000000,10247.000000,48954.000000
23445.000000,19831.000000,10330.000000,48972.000000
23537.000000,19893.000000,10367.000000,49036.000000
23580.000000,19960.000000,10414.000000,49073.000000
23638.000000,20006.000000,10456.000000,49094.000000
23683.000000,20063.000000,10516.000000,49142.000000
23725.000000,20078.000000,10609.000000,49161.000000
23772.000000,20122.000000,10633.000000,49175.000000
23812.000000,20148.000000,10655.000000,49216.000000
23868.000000,20156.000000,10703.000000,49228.000000
23874.000000,20187.000000,10732.000000,49241.000000
23883.000000,20184.000000,10713.000000,49234.000000
23846.000000,20192.000000,10723.000000,49264.000000
23874.000000,20188.000000,10735.000000,49294.000000
23896.000000,20187.000000,10763.000000,49277.000000
23881.000000,20180.000000,10714.000000,49252.000000
23847.000000,20184.000000,10710.000000,49278.000000
23870.000000,20191.000000,10695.000000,49289.000000
23867.000000,20179.000000,10688.000000,49219.000000
23831.000000,20146.000000,10686.000000,49242.000000
23873.000000,20150.000000,10669.000000,49206.000000
23849.000000,20158.000000,10676.000000,49219.000000
23810.000000,20113.000000,10655.000000,49230.000000
23828.000000,20135.000000,10659.000000,49204.000000
23786.000000,20152.000000,10664.000000,49207.000000
23802.000000,20131.000000,10635.000000,49205.000000
23763.000000,20103.000000,10628.000000,49203.000000
23789.000000,20096.000000,10615.000000,49212.000000
23780.000000,20106.000000,10604.000000,49215.000000
23750.000000,20090.000000,10584.000000,49182.000000
23743.000000,20083.000000,10602.000000,49171.000000
23744.000000,20044.000000,10579.000000,49163.000000
23716.000000,20057.000000,10553.000000,49158.000000
23702.000000,20058.000000,10536.000000,49145.000000
23675.000000,20060.000000,10512.000000,49151.000000
23681.000000,20030.000000,10517.000000,49133.000000
23666.000000,20027.000000,10506.000000,49145.000000
23676.000000,20047.000000,10497.000000,49126.000000
23684.000000,20003.000000,10513.000000,49153.000000
23644.000000,19989.000000,10479.000000,49126.000000
23636.000000,20008.000000,10451.000000,49099.000000
23649.000000,19994.000000,10462.000000,49126.000000
23617.000000,19966.000000,10425.000000,49079.000000
23602.000000,19943.000000,10408.000000,49067.000000
23588.000000,19911.000000,10413.000000,49049.000000
23607.000000,19928.000000,10413.000000,49034.000000
23571.000000,19941.000000,10421.000000,49067.000000
23564.000000,19907.000000,10408.000000,49056.000000
23553.000000,19911.000000,10377.000000,49047.000000
23548.000000,19910.000000,10365.000000,49030.000000
23516.000000,19916.000000,10357.000000,49047.000000
23530.000000,19894.000000,10370.000000,49029.000000
23549.000000,19884.000000,10355.000000,49044.000000
23474.000000,19877.000000,10318.000000,49011.000000
23485.000000,19865.000000,10336.000000,48999.000000
23464.000000,19883.000000,10301.000000,49004.000000
23489.000000,19842.000000,10315.000000,48967.000000
23447.000000,19800.000000,10283.000000,48990.000000
23451.000000,19842.000000,10245.000000,48964.000000
23404.000000,19829.000000,10267.000000,48981.000000
23431.000000,19803.000000,10220.000000,48959.000000
23407.000000,19810.000000,10229.000000,48961.000000
23416.000000,19797.000000,10207.000000,48974.000000
23399.000000,19783.000000,10207.000000,48944.000000
23391.000000,19783.000000,10186.000000,48951.000000
23387.000000,19771.000000,10211.000000,48954.000000
23346.000000,19781.000000,10166.000000,48936.000000
23354.000000,19769.000000,10154.000000,48970.000000
23325.000000,19751.000000,10133.000000,48918.000000
23311.000000,19761.000000,10170.000000,48899.000000
23295.000000,19731.000000,10139.000000,48899.000000
23294.000000,19738.000000,10126.000000,48914.000000
23288.000000,19715.000000,10140.000000,48881.000000
23315.000000,19724.000000,10092.000000,48890.000000
23265.000000,19731.000000,10149.000000,48901.000000
23301.000000,19717.000000,10112.000000,48872.000000
23300.000000,19730.000000,10083.000000,48883.000000
23286.000000,19717.000000,10132.000000,48893.000000
23260.000000,19696.000000,10091.000000,48880.000000
23282.000000,19729.000000,10074.000000,48845.000000
23288.000000,19690.000000,10054.000000,48883.000000
23273.000000,19733.000000,10075.000000,48880.000000
23310.000000,19716.000000,10057.000000,48887.000000
23281.000000,19705.000000,10087.000000,48875.000000
23261.000000,19669.000000,10042.000000,48852.000000
23264.000000,19684.000000,10051.000000,48878.000000
23257.000000,19689.000000,10063.000000,48838.000000
23254.000000,19685.000000,10076.000000,48891.000000
23244.000000,19653.000000,10028.000000,48864.000000
23268.000000,19639.000000,10023.000000,49103.000000
23237.000000,19656.000000,10009.000000,48868.000000
23208.000000,19639.000000,9966.000000,48839.000000
23201.000000,19616.000000,9969.000000,48814.000000
23182.000000,19630.000000,9967.000000,48774.000000
23156.000000,19553.000000,9965.000000,48771.000000
23132.000000,19551.000000,9936.000000,48783.000000
23144.000000,19566.000000,9902.000000,48746.000000
23111.000000,19548.000000,9901.000000,48739.000000
23118.000000,19512.000000,9865.000000,48735.000000
23068.000000,19512.000000,9823.000000,48744.000000
23043.000000,19515.000000,9830.000000,48727.000000
23008.000000,19488.000000,9810.000000,48742.000000
23026.000000,19485.000000,9818.000000,48697.000000
23022.000000,19476.000000,9784.000000,48720.000000
22996.000000,19468.000000,9749.000000,48702.000000
22992.000000,19447.000000,9736.000000,48675.000000
22985.000000,19420.000000,9744.000000,48692.000000
22974.000000,19437.000000,9740.000000,48678.000000
22945.000000,19432.000000,9706.000000,48687.000000
22972.000000,19397.000000,9715.000000,48662.000000
22951.000000,19426.000000,9721.000000,48685.000000
22934.000000,19389.000000,9688.000000,48673.000000
22955.000000,19435.000000,9723.000000,48666.000000
22920.000000,19386.000000,9732.000000,48669.000000
22935.000000,19418.000000,9652.000000,48654.000000
22943.000000,19387.000000,9701.000000,48694.000000
22956.000000,19403.000000,9699.000000,48656.000000
22927.000000,19452.000000,9700.000000,48673.000000
22930.000000,19400.000000,9727.000000,48662.000000
22937.000000,19403.000000,9725.000000,48678.000000
22962.000000,19460.000000,9714.000000,48677.000000
22963.000000,19433.000000,9750.000000,48697.000000
22994.000000,19454.000000,9773.000000,48716.000000
23045.000000,19465.000000,9786.000000,48725.000000
23072.000000,19539.000000,9847.000000,48740.000000
23109.000000,19522.000000,9875.000000,48782.000000
23189.000000,19546.000000,9903.000000,48778.000000
23211.000000,19607.000000,9963.000000,48814.000000
23235.000000,19652.000000,10023.000000,48842.000000
23307.000000,19707.000000,10046.000000,48901.000000
23361.000000,19743.000000,10111.000000,48890.000000
23408.000000,19781.000000,10163.000000,48960.000000
23489.000000,19822.000000,10245.000000,48959.000000
23530.000000,19862.000000,10266.000000,49034.000000
23560.000000,19881.000000,10303.000000,49046.000000
23607.000000,19929.000000,10352.000000,49077.000000
23616.000000,19948.000000,10359.000000,49062.000000
23644.000000,19970.000000,10423.000000,49091.000000
23650.000000,19978.000000,10392.000000,49067.000000
23701.000000,19969.000000,10406.000000,49081.000000
23655.000000,19949.000000,10397.000000,49109.000000
23660.000000,19989.000000,10415.000000,49103.000000
23657.000000,19964.000000,10406.000000,49097.000000
23701.000000,19989.000000,10409.000000,49083.000000
23656.000000,19985.000000,10381.000000,49081.000000
23681.000000,19961.000000,10378.000000,49097.000000
23655.000000,19912.000000,10359.000000,49070.000000
23637.000000,19938.000000,10341.000000,49088.000000
23618.000000,19895.000000,10374.000000,49084.000000
23616.000000,19925.000000,10328.000000,49075.000000
23603.000000,19924.000000,10324.000000,49048.000000
23579.000000,19921.000000,10307.000000,49038.000000
23592.000000,19911.000000,10299.000000,49040.000000
23589.000000,19916.000000,10330.000000,49053.000000
23587.000000,19897.000000,10273.000000,49019.000000
23574.000000,19893.000000,10294.000000,49010.000000
23526.000000,19874.000000,10282.000000,49021.000000
23565.000000,19878.000000,10299.000000,49009.000000
23553.000000,19887.000000,10270.000000,49015.000000
23522.000000,19849.000000,10247.000000,48995.000000
23522.000000,19846.000000,10220.000000,49003.000000
23530.000000,19840.000000,10264.000000,49008.000000
23506.000000,19860.000000,10243.000000,49017.000000
23478.000000,19852.000000,10215.000000,48989.000000
23492.000000,19832.000000,10241.000000,49017.000000
23489.000000,19809.000000,10193.000000,48979.000000
23477.000000,19829.000000,10215.000000,48986.000000
23479.000000,19790.000000,10188.000000,48956.000000
23450.000000,19816.000000,10194.000000,48970.000000
23448.000000,19767.000000,10148.000000,48943.000000
23461.000000,19790.000000,10153.000000,48947.000000
23452.000000,19778.000000,10145.000000,48909.000000
23441.000000,19783.000000,10173.000000,48935.000000
23427.000000,19775.000000,10123.000000,48925.000000
23412.000000,19760.000000,10141.000000,48965.000000
23395.000000,19794.000000,10094.000000,48926.000000
23383.000000,19749.000000,10125.000000,48917.000000
23385.000000,19736.000000,10104.000000,48921.000000
23371.000000,19734.000000,10079.000000,48912.000000
23383.000000,19723.000000,10109.000000,48913.000000
23355.000000,19730.000000,10091.000000,48916.000000
23373.000000,19711.000000,10046.000000,48898.000000
23352.000000,19708.000000,10039.000000,48887.000000
23354.000000,19686.000000,10053.000000,48894.000000
23337.000000,19702.000000,10053.000000,48899.000000
23297.000000,19700.000000,10021.000000,48873.000000
23312.000000,19710.000000,10047.000000,48875.000000
23316.000000,19698.000000,10043.000000,48876.000000
23337.000000,19703.000000,10024.000000,48881.000000
23313.000000,19670.000000,10028.000000,48858.000000
23304.000000,19686.000000,10039.000000,48863.000000
23279.000000,19673.000000,10035.000000,48883.000000
23277.000000,19670.000000,10003.000000,48861.000000
23276.000000,19665.000000,9991.000000,48859.000000
23277.000000,19652.000000,9982.000000,48843.000000
23296.000000,19650.000000,10015.000000,48870.000000
23278.000000,19668.000000,9996.000000,48834.000000
23263.000000,19612.000000,9972.000000,48835.000000
23263.000000,19640.000000,9973.000000,48868.000000
23240.000000,19620.000000,10005.000000,48837.000000
23244.000000,19665.000000,9981.000000,48855.000000
23267.000000,19640.000000,9994.000000,48837.000000
23238.000000,19650.000000,9965.000000,48842.000000
23262.000000,19670.000000,9981.000000,48845.000000
23286.000000,19632.000000,9988.000000,48851.000000
23272.000000,19658.000000,9993.000000,48833.000000
23235.000000,19666.000000,9980.000000,48868.000000
23254.000000,19619.000000,9945.000000,48839.000000
23256.000000,19635.000000,9967.000000,48845.000000
23254.000000,19619.000000,9957.000000,48827.000000
23210.000000,19609.000000,9945.000000,48814.000000
23237.000000,19601.000000,9957.000000,48835.000000
23234.000000,19637.000000,9919.000000,48834.000000
23240.000000,19600.000000,9929.000000,48810.000000
23225.000000,19585.000000,9947.000000,48837.000000
23242.000000,19603.000000,9916.000000,48823.000000
23189.000000,19610.000000,9943.000000,48788.000000
23192.000000,19568.000000,9899.000000,48796.000000
23184.000000,19608.000000,9896.000000,48822.000000
23155.000000,19540.000000,9863.000000,48769.000000
23163.000000,19546.000000,9866.000000,48779.000000
23149.000000,19533.000000,9853.000000,48730.000000
23113.000000,19534.000000,9821.000000,48739.000000
23084.000000,19541.000000,9806.000000,48760.000000
23076.000000,19479.000000,9815.000000,48717.000000
23063.000000,19488.000000,9788.000000,48736.000000
23084.000000,19482.000000,9784.000000,48738.000000
23066.000000,19484.000000,9745.000000,48741.000000
23036.000000,19457.000000,9709.000000,48718.000000
23006.000000,19441.000000,9725.000000,48704.000000
23003.000000,19442.000000,9733.000000,48685.000000
23015.000000,19446.000000,9706.000000,48708.000000
22990.000000,19432.000000,9695.000000,48696.000000
22999.000000,19444.000000,9712.000000,48681.000000
23001.000000,19443.000000,9687.000000,48687.000000
22975.000000,19425.000000,9656.000000,48678.000000
22991.000000,19438.000000,9694.000000,48675.000000
22974.000000,19390.000000,9675.000000,48685.000000
22980.000000,19425.000000,9679.000000,48695.000000
22967.000000,19392.000000,9667.000000,48697.000000
22988.000000,19395.000000,9692.000000,48650.000000
22971.000000,19417.000000,9671.000000,48688.000000
22974.000000,19363.000000,9672.000000,48681.000000
23025.000000,19419.000000,9690.000000,48701.000000
22989.000000,19422.000000,9679.000000,48688.000000
23024.000000,19415.000000,9710.000000,48713.000000
22999.000000,19452.000000,9725.000000,48696.000000
23025.000000,19446.000000,9731.000000,48723.000000
23023.000000,19434.000000,9748.000000,48717.000000
23078.000000,19474.000000,9786.000000,48741.000000
23135.000000,19549.000000,9801.000000,48755.000000
23132.000000,19557.000000,9840.000000,48771.000000
23137.000000,19597.000000,9910.000000,48817.000000
23259.000000,19648.000000,9978.000000,48880.000000
23286.000000,19666.000000,10005.000000,48863.000000
23376.000000,19715.000000,10071.000000,48925.000000
23418.000000,19725.000000,10124.000000,48955.000000
23492.000000,19821.000000,10187.000000,48982.000000
23526.000000,19856.000000,10247.000000,49022.000000
23562.000000,19886.000000,10283.000000,49045.000000
23624.000000,19897.000000,10350.000000,49076.000000
23676.000000,19962.000000,10345.000000,49096.000000
23670.000000,19986.000000,10398.000000,49145.000000
23717.000000,19993.000000,10408.000000,49129.000000
23727.000000,20022.000000,10435.000000,49098.000000
23744.000000,19989.000000,10445.000000,49138.000000
23749.000000,20032.000000,10460.000000,49149.000000
23732.000000,20014.000000,10400.000000,49127.000000
23742.000000,20003.000000,10400.000000,49147.000000
23770.000000,20025.000000,10382.000000,49117.000000
23772.000000,20034.000000,10374.000000,49145.000000
23735.000000,19981.000000,10378.000000,49120.000000
23714.000000,19969.000000,10355.000000,49124.000000
23714.000000,19949.000000,10347.000000,49122.000000
23731.000000,19976.000000,10358.000000,49117.000000
23722.000000,19980.000000,10331.000000,49118.000000
23711.000000,19940.000000,10338.000000,49082.000000
23676.000000,19955.000000,10308.000000,49080.000000
23668.000000,19930.000000,10311.000000,49067.000000
23683.000000,19922.000000,10291.000000,49109.000000
23666.000000,19909.000000,10290.000000,49095.000000
23671.000000,19916.000000,10311.000000,49072.000000
23639.000000,19889.000000,10275.000000,49097.000000
23617.000000,19904.000000,10294.000000,49081.000000
23649.000000,19906.000000,10264.000000,49080.000000
23648.000000,19885.000000,10251.000000,49104.000000
23631.000000,19893.000000,10261.000000,49083.000000
23607.000000,19886.000000,10220.000000,49057.000000
23588.000000,19860.000000,10235.000000,49056.000000
23595.000000,19857.000000,10214.000000,49056.000000
23615.000000,19883.000000,10216.000000,49036.000000
23571.000000,19855.000000,10206.000000,49043.000000
23576.000000,19857.000000,10199.000000,49079.000000
23572.000000,19857.000000,10182.000000,49026.000000
23557.000000,19855.000000,10136.000000,49015.000000
23569.000000,19801.000000,10176.000000,49025.000000
23553.000000,19811.000000,10157.000000,48997.000000
23559.000000,19825.000000,10175.000000,49007.000000
23497.000000,19776.000000,10140.000000,49003.000000
23547.000000,19809.000000,10158.000000,49011.000000
23516.000000,19809.000000,10123.000000,49000.000000
23516.000000,19802.000000,10161.000000,49015.000000
23483.000000,19770.000000,10113.000000,49003.000000
23479.000000,19757.000000,10081.000000,48999.000000
23441.000000,19765.000000,10106.000000,48967.000000
23453.000000,19741.000000,10077.000000,48958.000000
23462.000000,19726.000000,10067.000000,48958.000000
23420.000000,19756.000000,10046.000000,48986.000000
23426.000000,19743.000000,10076.000000,48958.000000
23416.000000,19728.000000,10037.000000,48959.000000
23425.000000,19747.000000,10039.000000,48925.000000
23399.000000,19716.000000,10027.000000,48930.000000
23393.000000,19706.000000,10036.000000,48933.000000
23392.000000,19713.000000,10022.000000,48923.000000
23383.000000,19714.000000,10010.000000,48935.000000
23405.000000,19703.000000,9980.000000,48923.000000
23388.000000,19694.000000,9985.000000,48922.000000
23356.000000,19697.000000,9984.000000,48929.000000
23341.000000,19691.000000,10010.000000,48930.000000
23346.000000,19681.000000,9990.000000,48913.000000
23369.000000,19696.000000,10009.000000,48907.000000
23342.000000,19680.000000,9981.000000,48891.000000
23344.000000,19760.000000,9983.000000,48928.000000
23377.000000,19670.000000,9977.000000,48916.000000
23358.000000,19706.000000,9975.000000,48924.000000
23358.000000,19669.000000,9982.000000,48928.000000
23355.000000,19694.000000,9974.000000,48914.000000
23397.000000,19689.000000,10011.000000,48925.000000
23378.000000,19677.000000,9993.000000,48917.000000
23364.000000,19674.000000,10006.000000,48902.000000
23365.000000,19672.000000,10010.000000,48893.000000
23376.000000,19693.000000,10001.000000,48908.000000
23367.000000,19673.000000,9995.000000,48891.000000
23374.000000,19670.000000,10003.000000,48925.000000
23376.000000,19704.000000,9997.000000,48900.000000
23331.000000,19684.000000,9992.000000,48927.000000
23362.000000,19679.000000,9976.000000,48912.000000
23351.000000,19668.000000,10012.000000,48887.000000
23333.000000,19687.000000,9972.000000,48929.000000
23328.000000,19658.000000,9956.000000,48899.000000
23316.000000,19638.000000,9955.000000,48903.000000
23295.000000,19661.000000,9952.000000,48898.000000
23308.000000,19586.000000,9921.000000,48861.000000
23303.000000,19619.000000,9894.000000,48856.000000
23280.000000,19605.000000,9881.000000,48830.000000
23257.000000,19608.000000,9890.000000,48857.000000
23241.000000,19582.000000,9856.000000,48835.000000
23219.000000,19591.000000,9842.000000,48877.000000
23226.000000,19576.000000,9809.000000,48798.000000
23203.000000,19571.000000,9817.000000,48811.000000
23211.000000,19554.000000,9814.000000,48817.000000
23179.000000,19529.000000,9802.000000,48799.000000
23156.000000,19513.000000,9800.000000,48785.000000
23164.000000,19529.000000,9800.000000,48787.000000
23145.000000,19502.000000,9786.000000,48785.000000
23132.000000,19497.000000,9762.000000,48789.000000
23138.000000,19513.000000,9768.000000,48788.000000
23144.000000,19496.000000,9730.000000,48786.000000
23107.000000,19497.000000,9777.000000,48781.000000
23113.000000,19490.000000,9734.000000,48760.000000
23090.000000,19484.000000,9775.000000,48759.000000
23082.000000,19472.000000,9733.000000,48758.000000
23068.000000,19456.000000,9712.000000,48748.000000
23082.000000,19513.000000,9719.000000,48786.000000
23052.000000,19478.000000,9705.000000,48739.000000
23080.000000,19484.000000,9743.000000,48769.000000
23115.000000,19493.000000,9744.000000,48778.000000
23100.000000,19467.000000,9733.000000,48764.000000
23109.000000,19481.000000,9783.000000,48772.000000
23133.000000,19533.000000,9766.000000,48789.000000
23163.000000,19536.000000,9818.000000,48800.000000
23182.000000,19546.000000,9836.000000,48830.000000
23264.000000,19559.000000,9869.000000,48838.000000
23246.000000,19580.000000,9876.000000,48907.000000
23292.000000,19606.000000,9930.000000,48876.000000
23315.000000,19655.000000,10014.000000,48896.000000
23338.000000,19686.000000,10044.000000,48909.000000
23424.000000,19765.000000,10101.000000,48976.000000
23478.000000,19778.000000,10175.000000,49005.000000
23532.000000,19815.000000,10193.000000,49041.000000
23616.000000,19861.000000,10270.000000,49099.000000
23658.000000,19910.000000,10329.000000,49131.000000
23709.000000,19979.000000,10359.000000,49140.000000
23751.000000,19983.000000,10424.000000,49169.000000
23795.000000,20048.000000,10478.000000,49197.000000
23802.000000,20058.000000,10511.000000,49245.000000
23851.000000,20080.000000,10553.000000,49249.000000
23853.000000,20118.000000,10556.000000,49278.000000
23861.000000,20111.000000,10534.000000,49261.000000
23885.000000,20113.000000,10548.000000,49270.000000
23875.000000,20116.000000,10531.000000,49277.000000
23867.000000,20110.000000,10531.000000,49258.000000
23875.000000,20130.000000,10540.000000,49236.000000
23876.000000,20111.000000,10526.000000,49251.000000
23879.000000,20111.000000,10527.000000,49235.000000
23843.000000,20083.000000,10539.000000,49239.000000
23852.000000,20097.000000,10511.000000,49243.000000
23844.000000,20088.000000,10529.000000,49257.000000
23814.000000,20033.000000,10506.000000,49237.000000
23832.000000,20082.000000,10527.000000,49233.000000
23825.000000,20077.000000,10528.000000,49232.000000
23852.000000,20101.000000,10486.000000,49230.000000
23831.000000,20062.000000,10516.000000,49238.000000
23831.000000,20026.000000,10505.000000,49217.000000
23809.000000,20090.000000,10502.000000,49235.000000
23813.000000,20060.000000,10496.000000,49227.000000
23815.000000,20053.000000,10499.000000,49220.000000
23771.000000,20056.000000,10480.000000,49215.000000
23769.000000,20038.000000,10493.000000,49189.000000
23796.000000,20039.000000,10469.000000,49179.000000
23789.000000,20036.000000,10434.000000,49193.000000
23778.000000,20045.000000,10471.000000,49187.000000
23755.000000,20060.000000,10440.000000,49181.000000
23761.000000,20009.000000,10434.000000,49188.000000
23769.000000,20017.000000,10432.000000,49186.000000
23721.000000,20038.000000,10452.000000,49184.000000
23759.000000,19999.000000,10420.000000,49169.000000
23727.000000,20001.000000,10421.000000,49186.000000
23710.000000,19999.000000,10415.000000,49175.000000
23704.000000,19998.000000,10377.000000,49183.000000
23693.000000,19951.000000,10375.000000,49149.000000
23725.000000,20009.000000,10410.000000,49149.000000
23697.000000,19964.000000,10371.000000,49169.000000
23680.000000,19976.000000,10379.000000,49148.000000
23674.000000,19989.000000,10350.000000,49139.000000
23643.000000,19960.000000,10357.000000,49124.000000
23670.000000,19948.000000,10343.000000,49149.000000
23694.000000,19979.000000,10353.000000,49153.000000
23650.000000,19943.000000,10344.000000,49102.000000
23644.000000,19953.000000,10325.000000,49123.000000
23677.000000,19935.000000,10343.000000,49106.000000
23638.000000,19943.000000,10323.000000,49104.000000
23633.000000,19905.000000,10332.000000,49116.000000
23621.000000,19949.000000,10335.000000,49141.000000
23645.000000,19927.000000,10346.000000,49118.000000
23623.000000,19914.000000,10311.000000,49121.000000
23646.000000,19932.000000,10324.000000,49092.000000
23601.000000,19921.000000,10316.000000,49101.000000
23619.000000,19914.000000,10325.000000,49094.000000
23608.000000,19902.000000,10304.000000,49109.000000
23614.000000,19918.000000,10303.000000,49096.000000
23601.000000,19895.000000,10322.000000,49102.000000
23631.000000,19915.000000,10332.000000,49112.000000
23601.000000,19887.000000,10283.000000,49115.000000
23637.000000,19917.000000,10301.000000,49122.000000
23608.000000,19892.000000,10319.000000,49131.000000
23617.000000,19935.000000,10300.000000,49124.000000
23636.000000,19915.000000,10343.000000,49098.000000
23642.000000,19904.000000,10322.000000,49142.000000
23617.000000,19926.000000,10357.000000,49108.000000
23639.000000,19911.000000,10361.000000,49125.000000
23660.000000,19949.000000,10340.000000,49120.000000
23628.000000,19917.000000,10343.000000,49112.000000
23625.000000,19925.000000,10353.000000,49125.000000
23595.000000,19935.000000,10321.000000,49136.000000
23639.000000,19911.000000,10337.000000,49123.000000
23645.000000,19939.000000,10317.000000,49115.000000
23622.000000,19896.000000,10318.000000,49092.000000
23612.000000,19915.000000,10295.000000,49115.000000
23608.000000,19895.000000,10271.000000,49093.000000
23611.000000,19874.000000,10282.000000,49082.000000
23574.000000,19885.000000,10254.000000,49099.000000
23560.000000,19890.000000,10250.000000,49083.000000
23550.000000,19854.000000,10248.000000,49066.000000
23582.000000,19849.000000,10202.000000,49064.000000
23544.000000,19801.000000,10209.000000,49058.000000
23551.000000,19820.000000,10174.000000,49044.000000
23525.000000,19835.000000,10185.000000,49028.000000
23527.000000,19821.000000,10176.000000,49038.000000
23528.000000,19793.000000,10178.000000,49031.000000
23499.000000,19790.000000,10149.000000,48998.000000
23514.000000,19787.000000,10172.000000,49034.000000
23485.000000,19789.000000,10152.000000,49009.000000
23483.000000,19780.000000,10154.000000,49023.000000
23440.000000,19754.000000,10110.000000,49014.000000
23440.000000,19767.000000,10131.000000,48989.000000
23417.000000,19772.000000,10123.000000,48990.000000
23400.000000,19745.000000,10107.000000,48988.000000
23411.000000,19720.000000,10115.000000,48973.000000
23393.000000,19751.000000,10078.000000,48998.000000
23374.000000,19736.000000,10101.000000,48995.000000
23383.000000,19712.000000,10079.000000,48979.000000
23373.000000,19716.000000,10068.000000,48988.000000
23400.000000,19727.000000,10078.000000,48956.000000
23362.000000,19722.000000,10059.000000,48952.000000
23345.000000,19713.000000,10087.000000,48973.000000
23375.000000,19722.000000,10073.000000,49003.000000
23365.000000,19725.000000,10104.000000,48997.000000
23402.000000,19754.000000,10088.000000,48995.000000
23394.000000,19756.000000,10104.000000,48996.000000
23439.000000,19751.000000,10152.000000,49008.000000
23473.000000,19801.000000,10145.000000,49028.000000
23470.000000,19829.000000,10184.000000,49057.000000
23532.000000,19834.000000,10227.000000,49098.000000
23560.000000,19864.000000,10268.000000,49112.000000
23609.000000,19875.000000,10337.000000,49129.000000
23667.000000,19951.000000,10362.000000,49149.000000
23705.000000,20009.000000,10437.000000,49198.000000
23738.000000,20053.000000,10491.000000,49229.000000
23824.000000,20090.000000,10554.000000,49259.000000
23872.000000,20116.000000,10586.000000,49320.000000
23971.000000,20177.000000,10650.000000,49349.000000
24014.000000,20228.000000,10729.000000,49370.000000
24030.000000,20269.000000,10778.000000,49419.000000
24101.000000,20291.000000,10815.000000,49449.000000
24162.000000,20319.000000,10871.000000,49439.000000
24169.000000,20371.000000,10895.000000,49456.000000
24221.000000,20391.000000,10929.000000,49503.000000
24199.000000,20358.000000,10951.000000,49508.000000
24197.000000,20371.000000,10931.000000,49478.000000
24199.000000,20385.000000,10947.000000,49504.000000
24209.000000,20365.000000,10910.000000,49491.000000
24194.000000,20387.000000,10929.000000,49477.000000
24204.000000,20372.000000,10914.000000,49492.000000
24223.000000,20373.000000,10939.000000,49473.000000
24172.000000,20356.000000,10904.000000,49518.000000
24183.000000,20346.000000,10904.000000,49497.000000
24157.000000,20353.000000,10864.000000,49496.000000
24149.000000,20362.000000,10869.000000,49480.000000
24152.000000,20366.000000,10889.000000,49491.000000
24142.000000,20342.000000,10861.000000,49452.000000
24111.000000,20335.000000,10870.000000,49476.000000
24153.000000,20341.000000,10873.000000,49463.000000
24141.000000,20321.000000,10830.000000,49447.000000
24128.000000,20320.000000,10847.000000,49446.000000
24122.000000,20336.000000,10827.000000,49438.000000
24119.000000,20322.000000,10863.000000,49449.000000
24121.000000,20268.000000,10858.000000,49445.000000
24110.000000,20310.000000,10825.000000,49451.000000
24106.000000,20306.000000,10804.000000,49428.000000
24102.000000,20301.000000,10813.000000,49421.000000
24066.000000,20289.000000,10776.000000,49416.000000
24095.000000,20263.000000,10801.000000,49409.000000
24050.000000,20288.000000,10778.000000,49407.000000
24054.000000,20274.000000,10787.000000,49416.000000
24033.000000,20275.000000,10756.000000,49385.000000
24071.000000,20253.000000,10747.000000,49388.000000
24024.000000,20269.000000,10742.000000,49403.000000
24042.000000,20239.000000,10751.000000,49388.000000
23998.000000,20249.000000,10739.000000,49377.000000
24041.000000,20230.000000,10698.000000,49353.000000
24010.000000,20223.000000,10729.000000,49382.000000
23993.000000,20239.000000,10720.000000,49336.000000
23978.000000,20232.000000,10699.000000,49359.000000
23982.000000,20202.000000,10700.000000,49376.000000
23981.000000,20225.000000,10710.000000,49386.000000
23960.000000,20167.000000,10681.000000,49334.000000
23975.000000,20194.000000,10666.000000,49350.000000
23996.000000,20191.000000,10685.000000,49356.000000
23951.000000,20185.000000,10671.000000,49335.000000
23947.000000,20212.000000,10676.000000,49325.000000
23908.000000,20155.000000,10658.000000,49335.000000
23917.000000,20163.000000,10657.000000,49347.000000
23918.000000,20159.000000,10643.000000,49314.000000
23915.000000,20131.000000,10658.000000,49323.000000
23925.000000,20148.000000,10646.000000,49330.000000
23904.000000,20147.000000,10638.000000,49354.000000
23919.000000,20131.000000,10647.000000,49300.000000
23891.000000,20128.000000,10616.000000,49298.000000
23915.000000,20128.000000,10594.000000,49296.000000
23861.000000,20121.000000,10593.000000,49302.000000
23881.000000,20134.000000,10622.000000,49304.000000
23866.000000,20130.000000,10610.000000,49291.000000
23881.000000,20097.000000,10570.000000,49300.000000
23866.000000,20120.000000,10577.000000,49299.000000
23866.000000,20123.000000,10605.000000,49310.000000
23880.000000,20130.000000,10606.000000,49314.000000
23876.000000,20132.000000,10603.000000,49300.000000
23890.000000,20133.000000,10603.000000,49286.000000
23892.000000,20143.000000,10578.000000,49278.000000
23871.000000,20136.000000,10599.000000,49305.000000
23871.000000,20121.000000,10618.000000,49305.000000
23900.000000,20136.000000,10603.000000,49287.000000
23867.000000,20102.000000,10597.000000,49271.000000
23881.000000,20121.000000,10605.000000,49286.000000
23880.000000,20155.000000,10619.000000,49297.000000
23880.000000,20136.000000,10607.000000,49307.000000
23888.000000,20105.000000,10588.000000,49299.000000
23859.000000,20117.000000,10611.000000,49297.000000
23873.000000,20127.000000,10605.000000,49306.000000
23850.000000,20121.000000,10578.000000,49288.000000
23875.000000,20130.000000,10563.000000,49276.000000
23846.000000,20084.000000,10581.000000,49273.000000
23831.000000,20078.000000,10527.000000,49273.000000
23833.000000,20105.000000,10547.000000,49264.000000
23798.000000,20061.000000,10550.000000,49253.000000
23779.000000,20050.000000,10527.000000,49244.000000
23750.000000,20002.000000,10524.000000,49252.000000
23718.000000,20022.000000,10479.000000,49227.000000
23718.000000,20046.000000,10458.000000,49215.000000
23713.000000,20007.000000,10424.000000,49201.000000
23685.000000,19961.000000,10423.000000,49191.000000
23668.000000,19940.000000,10392.000000,49197.000000
23645.000000,19960.000000,10416.000000,49180.000000
23633.000000,19953.000000,10401.000000,49157.000000
23645.000000,19949.000000,10350.000000,49174.000000
23627.000000,19936.000000,10356.000000,49172.000000
23639.000000,19975.000000,10383.000000,49160.000000
23599.000000,19926.000000,10347.000000,49130.000000
23604.000000,19919.000000,10326.000000,49139.000000
23589.000000,19910.000000,10329.000000,49151.000000
23598.000000,19901.000000,10301.000000,49113.000000
23574.000000,19856.000000,10297.000000,49146.000000
23547.000000,19839.000000,10293.000000,49128.000000
23559.000000,19836.000000,10291.000000,49121.000000
23530.000000,19872.000000,10292.000000,49088.000000
23571.000000,19867.000000,10281.000000,49093.000000
23565.000000,19866.000000,10305.000000,49125.000000
23542.000000,19888.000000,10292.000000,49097.000000
23577.000000,19906.000000,10284.000000,49120.000000
23586.000000,19885.000000,10349.000000,49106.000000
23562.000000,19930.000000,10336.000000,49139.000000
23623.000000,19898.000000,10368.000000,49170.000000
23643.000000,19938.000000,10426.000000,49180.000000
23702.000000,20004.000000,10441.000000,49232.000000
23731.000000,20006.000000,10471.000000,49222.000000
23762.000000,20054.000000,10507.000000,49245.000000
23791.000000,20083.000000,10602.000000,49273.000000
23845.000000,20131.000000,10621.000000,49332.000000
23929.000000,20155.000000,10677.000000,49319.000000
23967.000000,20221.000000,10745.000000,49366.000000
24000.000000,20273.000000,10804.000000,49441.000000
24088.000000,20332.000000,10856.000000,49469.000000
24137.000000,20336.000000,10897.000000,49474.000000
24204.000000,20372.000000,10950.000000,49511.000000
24241.000000,20426.000000,10981.000000,49530.000000
24242.000000,20438.000000,11007.000000,49543.000000
24318.000000,20461.000000,11059.000000,49558.000000
24330.000000,20479.000000,11065.000000,49619.000000
24284.000000,20457.000000,11059.000000,49608.000000
24355.000000,20460.000000,11044.000000,49591.000000
24308.000000,20434.000000,11102.000000,49570.000000
24294.000000,20470.000000,11036.000000,49550.000000
24294.000000,20462.000000,11055.000000,49591.000000
24252.000000,20446.000000,11048.000000,49587.000000
24253.000000,20463.000000,11020.000000,49570.000000
24241.000000,20439.000000,11042.000000,49600.000000
24268.000000,20445.000000,11001.000000,49551.000000
24243.000000,20433.000000,11015.000000,49548.000000
24244.000000,20398.000000,10967.000000,49539.000000
24241.000000,20422.000000,10942.000000,49515.000000
24197.000000,20362.000000,10965.000000,49513.000000
24188.000000,20406.000000,10928.000000,49505.000000
24168.000000,20362.000000,10933.000000,49526.000000
24208.000000,20351.000000,10917.000000,49503.000000
24152.000000,20358.000000,10887.000000,49512.000000
24175.000000,20337.000000,10871.000000,49502.000000
24139.000000,20318.000000,10884.000000,49486.000000
24124.000000,20328.000000,10860.000000,49471.000000
24109.000000,20331.000000,10849.000000,49459.000000
24124.000000,20332.000000,10858.000000,49454.000000
24111.000000,20292.000000,10829.000000,49463.000000
24096.000000,20276.000000,10806.000000,49458.000000
24082.000000,20305.000000,10805.000000,49467.000000
24088.000000,20268.000000,10794.000000,49418.000000
24075.000000,20244.000000,10795.000000,49416.000000
24067.000000,20270.000000,10774.000000,49418.000000
24074.000000,20268.000000,10765.000000,49427.000000
24012.000000,20272.000000,10737.000000,49430.000000
24013.000000,20230.000000,10680.000000,49387.000000
24025.000000,20217.000000,10720.000000,49375.000000
23991.000000,20176.000000,10720.000000,49352.000000
23961.000000,20188.000000,10690.000000,49372.000000
23977.000000,20186.000000,10667.000000,49366.000000
23976.000000,20166.000000,10674.000000,49377.000000
23974.000000,20167.000000,10648.000000,49337.000000
23972.000000,20169.000000,10651.000000,49344.000000
23924.000000,20151.000000,10647.000000,49345.000000
23930.000000,20135.000000,10610.000000,49344.000000
23919.000000,20142.000000,10643.000000,49338.000000
23868.000000,20121.000000,10598.000000,49317.000000
23870.000000,20098.000000,10590.000000,49298.000000
23856.000000,20085.000000,10566.000000,49294.000000
23845.000000,20093.000000,10559.000000,49318.000000
23834.000000,20095.000000,10546.000000,49244.000000
23841.000000,20064.000000,10548.000000,49278.000000
23812.000000,20073.000000,10527.000000,49273.000000
23797.000000,20052.000000,10521.000000,49274.000000
23807.000000,20038.000000,10480.000000,49263.000000
23807.000000,20069.000000,10501.000000,49246.000000
23764.000000,20047.000000,10493.000000,49234.000000
23787.000000,20031.000000,10491.000000,49240.000000
23794.000000,20031.000000,10458.000000,49245.000000
23769.000000,20020.000000,10464.000000,49244.000000
23783.000000,20045.000000,10478.000000,49229.000000
23761.000000,19994.000000,10465.000000,49232.000000
23784.000000,20023.000000,10462.000000,49216.000000
23732.000000,19989.000000,10451.000000,49210.000000
23758.000000,20021.000000,10474.000000,49223.000000
23727.000000,19973.000000,10429.000000,49232.000000
23747.000000,19982.000000,10436.000000,49226.000000
23708.000000,19990.000000,10416.000000,49203.000000
23744.000000,19993.000000,10430.000000,49241.000000
23744.000000,19939.000000,10421.000000,49190.000000
23751.000000,19993.000000,10415.000000,49203.000000
23737.000000,19980.000000,10425.000000,49202.000000
23744.000000,19997.000000,10414.000000,49208.000000
23738.000000,19947.000000,10408.000000,49196.000000
23735.000000,19956.000000,10395.000000,49208.000000
23733.000000,19972.000000,10374.000000,49191.000000
23685.000000,19964.000000,10400.000000,49195.000000
23701.000000,19940.000000,10379.000000,49188.000000
23676.000000,19936.000000,10347.000000,49169.000000
23673.000000,19928.000000,10347.000000,49156.000000
23664.000000,19958.000000,10321.000000,49150.000000
23617.000000,19922.000000,10319.000000,49159.000000
