660nm,730nm,850nm,940nm
41966.000000,14840.000000,12625.000000,38660.000000
42343.000000,15187.000000,12483.000000,39139.000000
42718.000000,15536.000000,12341.000000,39627.000000
43083.000000,15873.000000,12203.000000,40106.000000
43434.000000,16192.000000,12070.000000,40569.000000
43762.000000,16491.000000,11946.000000,41014.000000
44064.000000,16764.000000,11833.000000,41431.000000
44336.000000,17008.000000,11733.000000,41809.000000
44573.000000,17222.000000,11645.000000,42141.000000
44771.000000,17401.000000,11571.000000,42433.000000
44934.000000,17544.000000,11509.000000,42687.000000
45064.000000,17655.000000,11460.000000,42902.000000
45162.000000,17738.000000,11429.000000,43070.000000
45230.000000,17795.000000,11417.000000,43190.000000
45273.000000,17833.000000,11419.000000,43267.000000
45296.000000,17855.000000,11429.000000,43308.000000
45300.000000,17861.000000,11447.000000,43315.000000
45286.000000,17851.000000,11477.000000,43298.000000
45260.000000,17829.000000,11512.000000,43268.000000
45226.000000,17800.000000,11548.000000,43233.000000
45183.000000,17763.000000,11587.000000,43190.000000
45134.000000,17719.000000,11624.000000,43139.000000
45082.000000,17671.000000,11652.000000,43086.000000
45030.000000,17624.000000,11668.000000,43034.000000
44980.000000,17576.000000,11676.000000,42980.000000
44931.000000,17526.000000,11676.000000,42927.000000
44884.000000,17480.000000,11663.000000,42877.000000
44839.000000,17438.000000,11641.000000,42823.000000
44797.000000,17400.000000,11610.000000,42767.000000
44758.000000,17366.000000,11566.000000,42711.000000
44722.000000,17335.000000,11509.000000,42658.000000
44689.000000,17306.000000,11441.000000,42606.000000
44653.000000,17279.000000,11367.000000,42554.000000
44609.000000,17248.000000,11286.000000,42502.000000
44560.000000,17212.000000,11196.000000,42449.000000
44509.000000,17173.000000,11100.000000,42398.000000
44455.000000,17129.000000,10998.000000,42342.000000
44393.000000,17078.000000,10887.000000,42274.000000
44326.000000,17021.000000,10765.000000,42191.000000
44259.000000,16959.000000,10631.000000,42101.000000
44192.000000,16894.000000,10493.000000,42007.000000
44124.000000,16832.000000,10356.000000,41913.000000
44059.000000,16773.000000,10221.000000,41818.000000
44000.000000,16720.000000,10082.000000,41733.000000
43951.000000,16675.000000,9942.000000,41670.000000
43911.000000,16635.000000,9806.000000,41620.000000
43875.000000,16601.000000,9672.000000,41580.000000
43844.000000,16575.000000,9537.000000,41553.000000
43823.000000,16556.000000,9403.000000,41535.000000
43815.000000,16547.000000,9267.000000,41528.000000
43823.000000,16552.000000,9131.000000,41533.000000
43841.000000,16566.000000,8998.000000,41548.000000
43862.000000,16580.000000,8865.000000,41562.000000
43882.000000,16595.000000,8728.000000,41574.000000
43906.000000,16615.000000,8593.000000,41590.000000
43935.000000,16643.000000,8463.000000,41612.000000
43970.000000,16674.000000,8336.000000,41629.000000
44004.000000,16702.000000,8209.000000,41645.000000
44033.000000,16726.000000,8083.000000,41670.000000
44056.000000,16745.000000,7962.000000,41696.000000
44071.000000,16758.000000,7847.000000,41717.000000
44079.000000,16764.000000,7734.000000,41732.000000
44080.000000,16766.000000,7620.000000,41736.000000
44074.000000,16764.000000,7508.000000,41732.000000
44061.000000,16756.000000,7393.000000,41726.000000
44036.000000,16740.000000,7277.000000,41710.000000
43997.000000,16712.000000,7167.000000,41677.000000
43949.000000,16678.000000,7065.000000,41633.000000
43895.000000,16638.000000,6969.000000,41582.000000
43836.000000,16593.000000,6875.000000,41523.000000
43777.000000,16542.000000,6784.000000,41453.000000
43715.000000,16485.000000,6697.000000,41375.000000
43645.000000,16422.000000,6611.000000,41285.000000
43570.000000,16355.000000,6525.000000,41183.000000
43494.000000,16287.000000,6440.000000,41074.000000
43422.000000,16220.000000,6358.000000,40961.000000
43349.000000,16151.000000,6281.000000,40852.000000
43271.000000,16078.000000,6205.000000,40749.000000
43190.000000,16003.000000,6133.000000,40643.000000
43109.000000,15925.000000,6064.000000,40527.000000
43028.000000,15843.000000,5994.000000,40408.000000
42947.000000,15759.000000,5919.000000,40297.000000
42869.000000,15676.000000,5839.000000,40191.000000
42789.000000,15594.000000,5755.000000,40085.000000
42704.000000,15512.000000,5669.000000,39981.000000
42617.000000,15433.000000,5582.000000,39881.000000
42527.000000,15356.000000,5497.000000,39776.000000
42439.000000,15280.000000,5416.000000,39660.000000
42357.000000,15207.000000,5334.000000,39545.000000
42276.000000,15135.000000,5250.000000,39443.000000
42196.000000,15063.000000,5168.000000,39347.000000
42115.000000,14991.000000,5090.000000,39247.000000
42035.000000,14920.000000,5008.000000,39142.000000
41957.000000,14852.000000,4921.000000,39040.000000
41881.000000,14785.000000,4835.000000,38946.000000
41803.000000,14718.000000,4750.000000,38862.000000
41729.000000,14650.000000,4662.000000,38781.000000
41663.000000,14586.000000,4578.000000,38699.000000
41605.000000,14526.000000,4500.000000,38621.000000
41548.000000,14470.000000,4424.000000,38542.000000
41490.000000,14416.000000,4343.000000,38459.000000
41433.000000,14363.000000,4258.000000,38379.000000
41375.000000,14316.000000,4171.000000,38310.000000
41317.000000,14273.000000,4083.000000,38250.000000
41263.000000,14231.000000,3993.000000,38190.000000
41216.000000,14191.000000,3902.000000,38126.000000
41175.000000,14151.000000,3811.000000,38063.000000
41134.000000,14109.000000,3717.000000,38003.000000
41090.000000,14066.000000,3617.000000,37941.000000
41046.000000,14025.000000,3516.000000,37876.000000
41003.000000,13983.000000,3419.000000,37806.000000
40962.000000,13941.000000,3325.000000,37733.000000
40921.000000,13901.000000,3230.000000,37665.000000
40878.000000,13863.000000,3131.000000,37603.000000
40836.000000,13824.000000,3026.000000,37543.000000
40794.000000,13786.000000,2916.000000,37485.000000
40752.000000,13753.000000,2802.000000,37434.000000
40713.000000,13721.000000,2689.000000,37388.000000
40674.000000,13689.000000,2581.000000,37337.000000
40632.000000,13653.000000,2475.000000,37282.000000
40588.000000,13614.000000,2371.000000,37225.000000
40545.000000,13578.000000,2268.000000,37164.000000
40505.000000,13547.000000,2169.000000,37105.000000
40467.000000,13514.000000,2073.000000,37056.000000
40433.000000,13476.000000,1989.000000,37014.000000
40403.000000,13440.000000,1930.000000,36977.000000
40375.000000,13407.000000,1915.000000,36936.000000
40342.000000,13373.000000,1956.000000,36884.000000
40302.000000,13337.000000,2063.000000,36831.000000
40259.000000,13303.000000,2251.000000,36783.000000
40218.000000,13269.000000,2525.000000,36739.000000
40178.000000,13233.000000,2884.000000,36689.000000
40138.000000,13193.000000,3329.000000,36631.000000
40094.000000,13152.000000,3856.000000,36571.000000
40045.000000,13109.000000,4449.000000,36512.000000
39988.000000,13062.000000,5091.000000,36447.000000
39925.000000,13013.000000,5766.000000,36375.000000
39859.000000,12962.000000,6458.000000,36299.000000
39793.000000,12908.000000,7151.000000,36225.000000
39727.000000,12852.000000,7828.000000,36158.000000
39662.000000,12796.000000,8477.000000,36090.000000
39598.000000,12740.000000,9092.000000,36019.000000
39535.000000,12686.000000,9660.000000,35955.000000
39475.000000,12635.000000,10171.000000,35901.000000
39419.000000,12587.000000,10622.000000,35847.000000
39368.000000,12543.000000,11012.000000,35784.000000
39326.000000,12503.000000,11343.000000,35721.000000
39299.000000,12475.000000,11618.000000,35679.000000
39294.000000,12471.000000,11839.000000,35669.000000
39316.000000,12494.000000,12009.000000,35694.000000
39375.000000,12550.000000,12136.000000,35762.000000
39480.000000,12647.000000,12221.000000,35885.000000
39638.000000,12792.000000,12270.000000,36074.000000
39850.000000,12984.000000,12287.000000,36321.000000
40113.000000,13223.000000,12280.000000,36629.000000
40427.000000,13506.000000,12250.000000,37005.000000
40781.000000,13830.000000,12202.000000,37440.000000
41167.000000,14181.000000,12139.000000,37919.000000
41572.000000,14551.000000,12065.000000,38429.000000
41987.000000,14931.000000,11984.000000,38963.000000
42402.000000,15317.000000,11899.000000,39511.000000
42812.000000,15699.000000,11811.000000,40058.000000
43205.000000,16067.000000,11724.000000,40587.000000
43572.000000,16412.000000,11637.000000,41090.000000
43910.000000,16725.000000,11545.000000,41561.000000
44214.000000,17001.000000,11451.000000,41996.000000
44481.000000,17241.000000,11361.000000,42385.000000
44714.000000,17448.000000,11270.000000,42721.000000
44913.000000,17626.000000,11178.000000,43002.000000
45080.000000,17771.000000,11089.000000,43229.000000
45215.000000,17883.000000,10998.000000,43409.000000
45319.000000,17966.000000,10898.000000,43554.000000
45396.000000,18024.000000,10788.000000,43669.000000
45447.000000,18062.000000,10672.000000,43753.000000
45471.000000,18084.000000,10547.000000,43804.000000
45480.000000,18097.000000,10418.000000,43831.000000
45478.000000,18098.000000,10290.000000,43844.000000
45464.000000,18084.000000,10165.000000,43846.000000
45442.000000,18060.000000,10046.000000,43834.000000
45416.000000,18031.000000,9932.000000,43809.000000
45388.000000,18000.000000,9829.000000,43777.000000
45357.000000,17966.000000,9743.000000,43745.000000
45324.000000,17931.000000,9675.000000,43712.000000
45295.000000,17900.000000,9625.000000,43674.000000
45273.000000,17877.000000,9596.000000,43634.000000
45252.000000,17856.000000,9584.000000,43591.000000
45229.000000,17833.000000,9582.000000,43545.000000
45204.000000,17810.000000,9592.000000,43496.000000
45178.000000,17789.000000,9615.000000,43454.000000
45151.000000,17767.000000,9647.000000,43426.000000
45121.000000,17741.000000,9684.000000,43399.000000
45083.000000,17708.000000,9726.000000,43369.000000
45038.000000,17667.000000,9771.000000,43332.000000
44985.000000,17619.000000,9810.000000,43277.000000
44924.000000,17563.000000,9840.000000,43207.000000
44855.000000,17499.000000,9864.000000,43130.000000
44786.000000,17433.000000,9881.000000,43050.000000
44716.000000,17365.000000,9893.000000,42963.000000
44646.000000,17298.000000,9899.000000,42873.000000
44578.000000,17234.000000,9902.000000,42786.000000
44510.000000,17172.000000,9899.000000,42701.000000
44442.000000,17112.000000,9889.000000,42614.000000
44377.000000,17057.000000,9867.000000,42531.000000
44319.000000,17012.000000,9832.000000,42453.000000
44266.000000,16972.000000,9786.000000,42376.000000
44219.000000,16937.000000,9727.000000,42307.000000
44186.000000,16909.000000,9654.000000,42258.000000
44169.000000,16889.000000,9572.000000,42228.000000
44162.000000,16878.000000,9485.000000,42210.000000
44161.000000,16875.000000,9386.000000,42201.000000
44171.000000,16882.000000,9272.000000,42204.000000
44189.000000,16901.000000,9148.000000,42222.000000
44209.000000,16925.000000,9021.000000,42245.000000
44232.000000,16950.000000,8889.000000,42268.000000
44262.000000,16979.000000,8751.000000,42295.000000
44293.000000,17008.000000,8614.000000,42327.000000
44318.000000,17033.000000,8475.000000,42362.000000
44340.000000,17054.000000,8329.000000,42403.000000
44361.000000,17073.000000,8178.000000,42446.000000
44381.000000,17089.000000,8030.000000,42477.000000
44393.000000,17099.000000,7889.000000,42491.000000
44400.000000,17104.000000,7752.000000,42498.000000
44402.000000,17104.000000,7617.000000,42502.000000
44394.000000,17095.000000,7486.000000,42486.000000
44375.000000,17076.000000,7354.000000,42440.000000
44346.000000,17045.000000,7217.000000,42375.000000
44308.000000,17007.000000,7082.000000,42303.000000
44261.000000,16964.000000,6952.000000,42226.000000
44205.000000,16916.000000,6825.000000,42144.000000
44143.000000,16862.000000,6700.000000,42063.000000
44077.000000,16804.000000,6578.000000,41983.000000
44011.000000,16744.000000,6461.000000,41901.000000
43944.000000,16683.000000,6351.000000,41811.000000
43875.000000,16621.000000,6244.000000,41719.000000
43804.000000,16557.000000,6140.000000,41632.000000
43734.000000,16491.000000,6040.000000,41547.000000
43667.000000,16423.000000,5943.000000,41460.000000
43598.000000,16355.000000,5849.000000,41371.000000
43523.000000,16284.000000,5759.000000,41276.000000
43443.000000,16207.000000,5675.000000,41173.000000
43358.000000,16129.000000,5589.000000,41060.000000
43272.000000,16053.000000,5497.000000,40939.000000
43187.000000,15978.000000,5404.000000,40816.000000
43100.000000,15901.000000,5318.000000,40699.000000
43011.000000,15817.000000,5234.000000,40586.000000
42922.000000,15731.000000,5151.000000,40467.000000
42837.000000,15647.000000,5076.000000,40346.000000
42754.000000,15565.000000,5006.000000,40229.000000
42669.000000,15484.000000,4940.000000,40112.000000
42587.000000,15409.000000,4876.000000,39998.000000
42513.000000,15342.000000,4812.000000,39896.000000
42445.000000,15279.000000,4749.000000,39803.000000
42377.000000,15218.000000,4688.000000,39711.000000
42309.000000,15159.000000,4628.000000,39620.000000
42244.000000,15105.000000,4572.000000,39537.000000
42179.000000,15053.000000,4521.000000,39463.000000
42114.000000,14997.000000,4469.000000,39388.000000
42049.000000,14939.000000,4409.000000,39305.000000
41988.000000,14882.000000,4348.000000,39225.000000
41926.000000,14822.000000,4288.000000,39150.000000
41865.000000,14763.000000,4220.000000,39079.000000
41807.000000,14710.000000,4148.000000,39013.000000
41755.000000,14661.000000,4081.000000,38954.000000
41704.000000,14615.000000,4022.000000,38897.000000
41655.000000,14570.000000,3964.000000,38837.000000
41615.000000,14528.000000,3901.000000,38776.000000
41582.000000,14490.000000,3836.000000,38716.000000
41547.000000,14453.000000,3772.000000,38655.000000
41510.000000,14415.000000,3706.000000,38598.000000
41474.000000,14380.000000,3641.000000,38548.000000
41439.000000,14349.000000,3579.000000,38495.000000
41404.000000,14321.000000,3514.000000,38440.000000
41371.000000,14298.000000,3437.000000,38385.000000
41343.000000,14278.000000,3351.000000,38328.000000
41316.000000,14260.000000,3262.000000,38273.000000
41286.000000,14237.000000,3172.000000,38225.000000
41255.000000,14210.000000,3078.000000,38183.000000
41224.000000,14182.000000,2983.000000,38138.000000
41193.000000,14152.000000,2889.000000,38084.000000
41162.000000,14119.000000,2796.000000,38022.000000
41129.000000,14090.000000,2703.000000,37958.000000
41098.000000,14064.000000,2607.000000,37895.000000
41065.000000,14035.000000,2508.000000,37830.000000
41028.000000,14000.000000,2407.000000,37769.000000
40989.000000,13963.000000,2308.000000,37715.000000
40951.000000,13924.000000,2208.000000,37663.000000
40912.000000,13883.000000,2108.000000,37613.000000
40874.000000,13838.000000,2009.000000,37571.000000
40834.000000,13795.000000,1919.000000,37529.000000
40794.000000,13755.000000,1848.000000,37480.000000
40754.000000,13717.000000,1803.000000,37424.000000
40711.000000,13680.000000,1797.000000,37371.000000
40665.000000,13643.000000,1847.000000,37320.000000
40618.000000,13607.000000,1965.000000,37266.000000
40576.000000,13573.000000,2159.000000,37210.000000
40536.000000,13537.000000,2430.000000,37155.000000
40493.000000,13495.000000,2776.000000,37085.000000
40444.000000,13448.000000,3194.000000,37002.000000
40390.000000,13396.000000,3678.000000,36921.000000
40333.000000,13341.000000,4215.000000,36847.000000
40279.000000,13288.000000,4795.000000,36774.000000
40227.000000,13238.000000,5412.000000,36701.000000
40176.000000,13190.000000,6052.000000,36629.000000
40126.000000,13144.000000,6697.000000,36560.000000
40075.000000,13101.000000,7328.000000,36493.000000
40021.000000,13057.000000,7931.000000,36428.000000
39963.000000,13011.000000,8495.000000,36370.000000
39902.000000,12960.000000,9009.000000,36315.000000
39838.000000,12904.000000,9470.000000,36259.000000
39771.000000,12843.000000,9878.000000,36200.000000
39706.000000,12780.000000,10230.000000,36128.000000
39644.000000,12718.000000,10521.000000,36047.000000
39587.000000,12662.000000,10753.000000,35968.000000
39534.000000,12611.000000,10932.000000,35897.000000
39488.000000,12568.000000,11060.000000,35836.000000
39456.000000,12543.000000,11142.000000,35794.000000
39454.000000,12546.000000,11187.000000,35789.000000
39494.000000,12585.000000,11202.000000,35834.000000
39583.000000,12670.000000,11189.000000,35936.000000
39728.000000,12806.000000,11151.000000,36105.000000
39932.000000,12996.000000,11094.000000,36347.000000
40188.000000,13235.000000,11020.000000,36664.000000
40487.000000,13517.000000,10934.000000,37051.000000
40830.000000,13838.000000,10838.000000,37501.000000
41218.000000,14197.000000,10733.000000,37989.000000
41643.000000,14586.000000,10624.000000,38500.000000
42088.000000,14989.000000,10517.000000,39036.000000
42541.000000,15398.000000,10409.000000,39600.000000
42994.000000,15810.000000,10300.000000,40174.000000
43433.000000,16213.000000,10190.000000,40733.000000
43850.000000,16598.000000,10083.000000,41269.000000
44240.000000,16958.000000,9979.000000,41774.000000
44598.000000,17289.000000,9878.000000,42245.000000
44919.000000,17583.000000,9780.000000,42673.000000
45195.000000,17838.000000,9678.000000,43055.000000
45429.000000,18054.000000,9572.000000,43393.000000
45627.000000,18238.000000,9461.000000,43693.000000
45789.000000,18389.000000,9344.000000,43953.000000
45920.000000,18512.000000,9218.000000,44172.000000
46022.000000,18610.000000,9087.000000,44349.000000
46101.000000,18682.000000,8953.000000,44490.000000
46160.000000,18730.000000,8819.000000,44605.000000
46202.000000,18759.000000,8685.000000,44695.000000
46228.000000,18771.000000,8560.000000,44755.000000
46240.000000,18768.000000,8451.000000,44784.000000
46241.000000,18753.000000,8362.000000,44785.000000
46232.000000,18731.000000,8290.000000,44764.000000
46213.000000,18706.000000,8235.000000,44730.000000
46186.000000,18677.000000,8199.000000,44695.000000
46154.000000,18646.000000,8188.000000,44662.000000
46124.000000,18615.000000,8198.000000,44633.000000
46096.000000,18584.000000,8224.000000,44602.000000
46069.000000,18554.000000,8261.000000,44565.000000
46043.000000,18527.000000,8305.000000,44526.000000
46015.000000,18502.000000,8355.000000,44495.000000
45989.000000,18480.000000,8408.000000,44470.000000
45963.000000,18457.000000,8461.000000,44444.000000
45935.000000,18429.000000,8513.000000,44418.000000
45908.000000,18400.000000,8560.000000,44388.000000
45879.000000,18371.000000,8602.000000,44351.000000
45847.000000,18337.000000,8641.000000,44303.000000
45808.000000,18297.000000,8673.000000,44236.000000
45760.000000,18251.000000,8694.000000,44157.000000
45706.000000,18199.000000,8702.000000,44068.000000
45647.000000,18143.000000,8697.000000,43974.000000
45581.000000,18080.000000,8681.000000,43875.000000
45507.000000,18014.000000,8651.000000,43772.000000
45432.000000,17946.000000,8609.000000,43672.000000
45358.000000,17877.000000,8554.000000,43582.000000
45288.000000,17806.000000,8485.000000,43494.000000
45223.000000,17740.000000,8404.000000,43403.000000
45162.000000,17679.000000,8316.000000,43318.000000
45108.000000,17625.000000,8218.000000,43249.000000
45063.000000,17580.000000,8105.000000,43198.000000
45031.000000,17545.000000,7980.000000,43158.000000
45011.000000,17526.000000,7850.000000,43131.000000
45000.000000,17521.000000,7718.000000,43119.000000
44999.000000,17526.000000,7583.000000,43120.000000
45009.000000,17539.000000,7447.000000,43131.000000
45025.000000,17558.000000,7310.000000,43147.000000
45043.000000,17578.000000,7173.000000,43166.000000
45063.000000,17600.000000,7035.000000,43190.000000
45089.000000,17628.000000,6896.000000,43222.000000
45121.000000,17663.000000,6756.000000,43263.000000
45152.000000,17700.000000,6616.000000,43302.000000
45178.000000,17732.000000,6475.000000,43333.000000
45200.000000,17760.000000,6333.000000,43361.000000
45219.000000,17782.000000,6199.000000,43389.000000
45233.000000,17796.000000,6073.000000,43412.000000
45243.000000,17805.000000,5947.000000,43430.000000
45252.000000,17814.000000,5819.000000,43439.000000
45255.000000,17821.000000,5694.000000,43439.000000
45247.000000,17819.000000,5569.000000,43426.000000
45228.000000,17806.000000,5440.000000,43397.000000
45201.000000,17783.000000,5314.000000,43352.000000
45166.000000,17752.000000,5197.000000,43298.000000
45126.000000,17711.000000,5084.000000,43240.000000
45080.000000,17662.000000,4970.000000,43175.000000
45030.000000,17607.000000,4860.000000,43107.000000
44973.000000,17549.000000,4761.000000,43032.000000
44906.000000,17485.000000,4671.000000,42942.000000
44832.000000,17415.000000,4582.000000,42838.000000
44752.000000,17337.000000,4491.000000,42728.000000
44665.000000,17256.000000,4401.000000,42617.000000
44574.000000,17174.000000,4309.000000,42508.000000
44485.000000,17094.000000,4217.000000,42399.000000
44397.000000,17015.000000,4132.000000,42289.000000
44309.000000,16934.000000,4055.000000,42184.000000
44221.000000,16851.000000,3982.000000,42080.000000
44132.000000,16770.000000,3914.000000,41972.000000
44043.000000,16693.000000,3851.000000,41855.000000
43953.000000,16617.000000,3791.000000,41734.000000
43868.000000,16542.000000,3730.000000,41616.000000
43789.000000,16470.000000,3667.000000,41500.000000
43714.000000,16401.000000,3604.000000,41384.000000
43642.000000,16333.000000,3541.000000,41266.000000
43570.000000,16267.000000,3479.000000,41154.000000
43499.000000,16205.000000,3419.000000,41048.000000
43431.000000,16145.000000,3362.000000,40945.000000
43364.000000,16085.000000,3308.000000,40845.000000
43300.000000,16025.000000,3259.000000,40752.000000
43243.000000,15967.000000,3214.000000,40672.000000
43188.000000,15909.000000,3174.000000,40595.000000
43132.000000,15850.000000,3133.000000,40511.000000
43073.000000,15791.000000,3084.000000,40423.000000
43012.000000,15732.000000,3025.000000,40339.000000
42947.000000,15674.000000,2967.000000,40264.000000
42879.000000,15619.000000,2909.000000,40185.000000
42809.000000,15563.000000,2843.000000,40104.000000
42741.000000,15508.000000,2768.000000,40029.000000
42675.000000,15452.000000,2688.000000,39956.000000
42614.000000,15397.000000,2609.000000,39881.000000
42558.000000,15346.000000,2528.000000,39809.000000
42508.000000,15300.000000,2444.000000,39747.000000
42460.000000,15258.000000,2363.000000,39688.000000
42414.000000,15215.000000,2279.000000,39623.000000
42370.000000,15174.000000,2190.000000,39558.000000
42330.000000,15138.000000,2102.000000,39502.000000
42294.000000,15104.000000,2022.000000,39451.000000
42258.000000,15067.000000,1956.000000,39397.000000
42221.000000,15030.000000,1914.000000,39338.000000
42187.000000,14997.000000,1910.000000,39279.000000
42155.000000,14965.000000,1958.000000,39229.000000
42122.000000,14933.000000,2065.000000,39178.000000
42089.000000,14902.000000,2232.000000,39117.000000
42053.000000,14873.000000,2465.000000,39054.000000
42016.000000,14843.000000,2767.000000,38996.000000
41979.000000,14810.000000,3142.000000,38943.000000
41945.000000,14779.000000,3585.000000,38895.000000
41910.000000,14747.000000,4087.000000,38846.000000
41867.000000,14711.000000,4635.000000,38790.000000
41821.000000,14673.000000,5214.000000,38732.000000
41773.000000,14634.000000,5806.000000,38671.000000
41726.000000,14592.000000,6403.000000,38604.000000
41679.000000,14546.000000,6990.000000,38536.000000
41633.000000,14499.000000,7552.000000,38474.000000
41592.000000,14456.000000,8076.000000,38419.000000
41553.000000,14418.000000,8555.000000,38360.000000
41507.000000,14377.000000,8982.000000,38288.000000
41453.000000,14328.000000,9350.000000,38208.000000
41394.000000,14275.000000,9659.000000,38132.000000
41337.000000,14225.000000,9915.000000,38065.000000
41286.000000,14178.000000,10125.000000,38002.000000
41237.000000,14131.000000,10289.000000,37937.000000
41187.000000,14083.000000,10406.000000,37873.000000
41140.000000,14039.000000,10477.000000,37812.000000
41095.000000,13997.000000,10510.000000,37754.000000
41051.000000,13957.000000,10511.000000,37697.000000
41009.000000,13917.000000,10485.000000,37638.000000
40967.000000,13876.000000,10436.000000,37576.000000
40922.000000,13834.000000,10369.000000,37516.000000
40877.000000,13790.000000,10289.000000,37469.000000
40832.000000,13748.000000,10197.000000,37436.000000
40789.000000,13705.000000,10096.000000,37395.000000
40741.000000,13657.000000,9991.000000,37336.000000
40686.000000,13605.000000,9886.000000,37265.000000
40627.000000,13551.000000,9785.000000,37189.000000
40569.000000,13500.000000,9691.000000,37117.000000
40513.000000,13451.000000,9604.000000,37048.000000
40455.000000,13400.000000,9515.000000,36974.000000
40394.000000,13345.000000,9425.000000,36891.000000
40333.000000,13288.000000,9341.000000,36798.000000
40268.000000,13230.000000,9258.000000,36697.000000
40201.000000,13171.000000,9166.000000,36597.000000
40133.000000,13113.000000,9064.000000,36502.000000
40064.000000,13055.000000,8958.000000,36418.000000
39994.000000,12996.000000,8846.000000,36335.000000
39920.000000,12933.000000,8725.000000,36244.000000
39851.000000,12870.000000,8592.000000,36156.000000
39790.000000,12810.000000,8455.000000,36080.000000
39738.000000,12756.000000,8318.000000,36019.000000
39702.000000,12717.000000,8185.000000,35977.000000
39692.000000,12705.000000,8056.000000,35956.000000
39715.000000,12731.000000,7938.000000,35972.000000
39782.000000,12799.000000,7829.000000,36046.000000
39903.000000,12913.000000,7730.000000,36193.000000
40082.000000,13080.000000,7648.000000,36411.000000
40319.000000,13300.000000,7588.000000,36700.000000
40609.000000,13567.000000,7548.000000,37056.000000
40949.000000,13881.000000,7520.000000,37467.000000
41335.000000,14238.000000,7507.000000,37931.000000
41758.000000,14626.000000,7511.000000,38454.000000
42207.000000,15035.000000,7525.000000,39032.000000
42670.000000,15457.000000,7540.000000,39646.000000
43134.000000,15883.000000,7563.000000,40269.000000
43588.000000,16297.000000,7596.000000,40870.000000
44021.000000,16689.000000,7636.000000,41434.000000
44428.000000,17055.000000,7682.000000,41967.000000
44800.000000,17391.000000,7732.000000,42461.000000
45135.000000,17691.000000,7779.000000,42906.000000
45431.000000,17953.000000,7812.000000,43304.000000
45686.000000,18179.000000,7831.000000,43652.000000
45901.000000,18372.000000,7841.000000,43956.000000
46078.000000,18535.000000,7845.000000,44227.000000
46221.000000,18669.000000,7840.000000,44455.000000
46335.000000,18774.000000,7825.000000,44639.000000
46423.000000,18852.000000,7798.000000,44784.000000
46489.000000,18903.000000,7756.000000,44889.000000
46531.000000,18932.000000,7697.000000,44960.000000
46553.000000,18944.000000,7628.000000,45004.000000
46559.000000,18942.000000,7552.000000,45025.000000
46553.000000,18929.000000,7466.000000,45035.000000
46533.000000,18905.000000,7370.000000,45038.000000
46504.000000,18876.000000,7264.000000,45022.000000
46467.000000,18842.000000,7154.000000,44981.000000
46421.000000,18805.000000,7038.000000,44931.000000
46368.000000,18764.000000,6913.000000,44878.000000
46313.000000,18721.000000,6782.000000,44819.000000
46260.000000,18680.000000,6652.000000,44760.000000
46213.000000,18644.000000,6519.000000,44704.000000
46168.000000,18609.000000,6383.000000,44649.000000
46126.000000,18573.000000,6250.000000,44597.000000
46087.000000,18537.000000,6119.000000,44550.000000
46048.000000,18502.000000,5986.000000,44507.000000
46010.000000,18467.000000,5854.000000,44461.000000
45971.000000,18430.000000,5724.000000,44415.000000
45926.000000,18384.000000,5595.000000,44360.000000
45873.000000,18327.000000,5464.000000,44286.000000
45815.000000,18264.000000,5331.000000,44200.000000
45753.000000,18197.000000,5202.000000,44109.000000
45686.000000,18128.000000,5078.000000,44013.000000
45610.000000,18057.000000,4956.000000,43911.000000
45527.000000,17984.000000,4835.000000,43801.000000
45442.000000,17908.000000,4719.000000,43680.000000
45356.000000,17832.000000,4608.000000,43558.000000
45270.000000,17756.000000,4499.000000,43447.000000
45195.000000,17684.000000,4387.000000,43351.000000
45132.000000,17620.000000,4281.000000,43268.000000
45077.000000,17562.000000,4178.000000,43188.000000
45029.000000,17512.000000,4074.000000,43120.000000
44987.000000,17472.000000,3975.000000,43069.000000
44955.000000,17445.000000,3884.000000,43037.000000
44936.000000,17430.000000,3798.000000,43020.000000
44931.000000,17425.000000,3713.000000,43011.000000
44936.000000,17433.000000,3629.000000,43011.000000
44954.000000,17452.000000,3547.000000,43025.000000
44982.000000,17480.000000,3474.000000,43057.000000
45017.000000,17514.000000,3403.000000,43099.000000
45058.000000,17551.000000,3332.000000,43145.000000
45105.000000,17590.000000,3267.000000,43199.000000
45151.000000,17628.000000,3204.000000,43257.000000
45186.000000,17657.000000,3139.000000,43297.000000
45206.000000,17681.000000,3076.000000,43317.000000
45219.000000,17701.000000,3021.000000,43329.000000
45228.000000,17716.000000,2967.000000,43342.000000
45233.000000,17722.000000,2909.000000,43348.000000
45231.000000,17722.000000,2848.000000,43340.000000
45227.000000,17717.000000,2790.000000,43329.000000
45216.000000,17704.000000,2737.000000,43312.000000
45194.000000,17679.000000,2682.000000,43282.000000
45162.000000,17645.000000,2627.000000,43246.000000
45121.000000,17604.000000,2577.000000,43208.000000
45072.000000,17560.000000,2525.000000,43156.000000
45017.000000,17511.000000,2468.000000,43082.000000
44958.000000,17458.000000,2412.000000,42999.000000
44893.000000,17401.000000,2358.000000,42915.000000
44822.000000,17339.000000,2301.000000,42824.000000
44747.000000,17274.000000,2238.000000,42729.000000
44673.000000,17207.000000,2168.000000,42638.000000
44598.000000,17136.000000,2093.000000,42550.000000
44520.000000,17061.000000,2015.000000,42457.000000
44441.000000,16986.000000,1935.000000,42357.000000
44361.000000,16908.000000,1851.000000,42247.000000
44276.000000,16822.000000,1766.000000,42126.000000
44186.000000,16735.000000,1677.000000,42001.000000
44096.000000,16653.000000,1583.000000,41886.000000
44009.000000,16573.000000,1489.000000,41775.000000
43921.000000,16493.000000,1403.000000,41652.000000
43832.000000,16411.000000,1323.000000,41517.000000
43740.000000,16327.000000,1259.000000,41392.000000
43649.000000,16244.000000,1229.000000,41281.000000
43557.000000,16159.000000,1249.000000,41173.000000
43467.000000,16075.000000,1325.000000,41061.000000
43376.000000,15995.000000,1464.000000,40947.000000
43286.000000,15921.000000,1673.000000,40837.000000
43195.000000,15845.000000,1953.000000,40723.000000
43108.000000,15768.000000,2305.000000,40610.000000
43028.000000,15695.000000,2725.000000,40509.000000
42952.000000,15624.000000,3208.000000,40412.000000
42877.000000,15555.000000,3746.000000,40309.000000
42804.000000,15489.000000,4320.000000,40212.000000
42733.000000,15428.000000,4917.000000,40124.000000
42668.000000,15372.000000,5528.000000,40030.000000
42612.000000,15321.000000,6137.000000,39930.000000
42558.000000,15270.000000,6724.000000,39828.000000
42501.000000,15217.000000,7274.000000,39719.000000
42443.000000,15163.000000,7787.000000,39606.000000
42385.000000,15106.000000,8253.000000,39497.000000
42327.000000,15048.000000,8666.000000,39402.000000
42271.000000,14992.000000,9026.000000,39334.000000
42220.000000,14945.000000,9339.000000,39288.000000
42173.000000,14900.000000,9603.000000,39251.000000
42125.000000,14853.000000,9813.000000,39214.000000
42083.000000,14809.000000,9974.000000,39168.000000
42048.000000,14771.000000,10099.000000,39118.000000
42015.000000,14738.000000,10190.000000,39077.000000
41983.000000,14705.000000,10246.000000,39039.000000
41949.000000,14669.000000,10273.000000,38994.000000
41911.000000,14632.000000,10275.000000,38942.000000
41866.000000,14591.000000,10258.000000,38885.000000
41819.000000,14550.000000,10222.000000,38821.000000
41775.000000,14513.000000,10172.000000,38759.000000
41735.000000,14478.000000,10116.000000,38705.000000
41695.000000,14442.000000,10054.000000,38653.000000
41656.000000,14405.000000,9984.000000,38597.000000
41615.000000,14372.000000,9910.000000,38538.000000
41570.000000,14336.000000,9836.000000,38481.000000
41525.000000,14295.000000,9763.000000,38426.000000
41484.000000,14252.000000,9693.000000,38372.000000
41445.000000,14213.000000,9631.000000,38321.000000
41406.000000,14176.000000,9574.000000,38268.000000
41365.000000,14137.000000,9513.000000,38210.000000
41323.000000,14098.000000,9446.000000,38155.000000
41282.000000,14059.000000,9375.000000,38105.000000
41241.000000,14019.000000,9299.000000,38052.000000
41196.000000,13979.000000,9216.000000,37990.000000
41151.000000,13940.000000,9120.000000,37920.000000
41107.000000,13902.000000,9014.000000,37851.000000
41064.000000,13861.000000,8897.000000,37785.000000
41018.000000,13819.000000,8766.000000,37719.000000
40973.000000,13780.000000,8632.000000,37652.000000
40930.000000,13743.000000,8504.000000,37582.000000
40887.000000,13704.000000,8383.000000,37515.000000
40843.000000,13659.000000,8269.000000,37456.000000
40797.000000,13610.000000,8165.000000,37407.000000
40748.000000,13560.000000,8077.000000,37355.000000
40694.000000,13507.000000,8002.000000,37284.000000
40638.000000,13453.000000,7936.000000,37206.000000
40578.000000,13397.000000,7884.000000,37130.000000
40516.000000,13342.000000,7849.000000,37050.000000
40452.000000,13288.000000,7830.000000,36965.000000
40384.000000,13233.000000,7826.000000,36883.000000
40317.000000,13178.000000,7836.000000,36809.000000
40253.000000,13123.000000,7860.000000,36744.000000
40195.000000,13068.000000,7891.000000,36681.000000
40138.000000,13010.000000,7918.000000,36608.000000
40081.000000,12945.000000,7939.000000,36521.000000
40020.000000,12878.000000,7959.000000,36436.000000
39956.000000,12810.000000,7981.000000,36357.000000
39886.000000,12740.000000,8002.000000,36278.000000
39814.000000,12672.000000,8024.000000,36198.000000
39748.000000,12611.000000,8045.000000,36119.000000
39688.000000,12558.000000,8055.000000,36051.000000
39637.000000,12514.000000,8051.000000,35997.000000
39596.000000,12482.000000,8041.000000,35949.000000
39568.000000,12463.000000,8027.000000,35905.000000
39561.000000,12460.000000,8003.000000,35881.000000
39581.000000,12481.000000,7965.000000,35888.000000
39634.000000,12532.000000,7915.000000,35932.000000
39729.000000,12620.000000,7857.000000,36030.000000
39876.000000,12753.000000,7791.000000,36197.000000
40078.000000,12937.000000,7715.000000,36443.000000
40338.000000,13171.000000,7630.000000,36755.000000
40648.000000,13450.000000,7536.000000,37121.000000
41005.000000,13771.000000,7432.000000,37549.000000
41402.000000,14133.000000,7317.000000,38040.000000
41829.000000,14525.000000,7195.000000,38568.000000
42275.000000,14933.000000,7069.000000,39114.000000
42727.000000,15347.000000,6936.000000,39678.000000
43175.000000,15757.000000,6799.000000,40248.000000
43605.000000,16151.000000,6663.000000,40802.000000
44010.000000,16521.000000,6531.000000,41320.000000
44385.000000,16862.000000,6398.000000,41798.000000
44725.000000,17169.000000,6258.000000,42241.000000
45025.000000,17438.000000,6118.000000,42645.000000
45280.000000,17669.000000,5986.000000,42998.000000
45495.000000,17863.000000,5856.000000,43301.000000
45673.000000,18024.000000,5725.000000,43555.000000
45817.000000,18156.000000,5598.000000,43766.000000
45925.000000,18258.000000,5476.000000,43941.000000
46001.000000,18331.000000,5352.000000,44079.000000
46052.000000,18379.000000,5228.000000,44183.000000
46090.000000,18412.000000,5110.000000,44253.000000
46114.000000,18428.000000,4995.000000,44294.000000
46120.000000,18425.000000,4878.000000,44317.000000
46111.000000,18407.000000,4760.000000,44325.000000
46090.000000,18377.000000,4645.000000,44319.000000
46061.000000,18342.000000,4537.000000,44295.000000
46020.000000,18302.000000,4436.000000,44257.000000
45968.000000,18259.000000,4340.000000,44208.000000
45912.000000,18213.000000,4249.000000,44146.000000
45855.000000,18165.000000,4159.000000,44071.000000
45802.000000,18116.000000,4069.000000,43987.000000
45753.000000,18072.000000,3980.000000,43908.000000
45705.000000,18030.000000,3894.000000,43840.000000
45655.000000,17986.000000,3808.000000,43771.000000
45607.000000,17945.000000,3723.000000,43702.000000
45562.000000,17907.000000,3642.000000,43636.000000
45518.000000,17867.000000,3568.000000,43569.000000
45470.000000,17823.000000,3498.000000,43502.000000
45421.000000,17775.000000,3425.000000,43438.000000
45370.000000,17724.000000,3349.000000,43370.000000
45313.000000,17665.000000,3274.000000,43289.000000
45247.000000,17596.000000,3198.000000,43193.000000
45175.000000,17522.000000,3118.000000,43095.000000
45100.000000,17449.000000,3038.000000,43002.000000
45026.000000,17378.000000,2963.000000,42911.000000
44953.000000,17310.000000,2893.000000,42820.000000
44886.000000,17252.000000,2825.000000,42740.000000
44829.000000,17206.000000,2757.000000,42669.000000
44783.000000,17169.000000,2691.000000,42602.000000
44752.000000,17140.000000,2627.000000,42544.000000
44737.000000,17121.000000,2568.000000,42500.000000
44736.000000,17112.000000,2514.000000,42464.000000
44739.000000,17110.000000,2458.000000,42430.000000
44746.000000,17118.000000,2399.000000,42411.000000
44761.000000,17136.000000,2342.000000,42416.000000
44785.000000,17164.000000,2287.000000,42439.000000
44818.000000,17201.000000,2228.000000,42477.000000
44860.000000,17245.000000,2163.000000,42531.000000
44907.000000,17296.000000,2093.000000,42599.000000
44958.000000,17346.000000,2019.000000,42670.000000
45011.000000,17395.000000,1941.000000,42734.000000
45062.000000,17441.000000,1858.000000,42794.000000
45113.000000,17486.000000,1773.000000,42863.000000
45163.000000,17529.000000,1690.000000,42935.000000
45209.000000,17569.000000,1606.000000,42994.000000
45248.000000,17603.000000,1521.000000,43029.000000
45279.000000,17630.000000,1434.000000,43050.000000
45301.000000,17649.000000,1348.000000,43064.000000
45315.000000,17658.000000,1263.000000,43071.000000
45321.000000,17658.000000,1174.000000,43075.000000
45320.000000,17653.000000,1083.000000,43076.000000
45310.000000,17641.000000,995.000000,43071.000000
45289.000000,17623.000000,904.000000,43055.000000
45256.000000,17594.000000,805.000000,43016.000000
45212.000000,17555.000000,704.000000,42951.000000
45160.000000,17507.000000,610.000000,42869.000000
45100.000000,17452.000000,524.000000,42780.000000
45034.000000,17394.000000,451.000000,42690.000000
44964.000000,17331.000000,406.000000,42595.000000
44886.000000,17261.000000,401.000000,42487.000000
44800.000000,17186.000000,448.000000,42374.000000
44707.000000,17101.000000,554.000000,42261.000000
44607.000000,17006.000000,731.000000,42138.000000
44504.000000,16904.000000,990.000000,42003.000000
44396.000000,16799.000000,1329.000000,41865.000000
44285.000000,16692.000000,1739.000000,41728.000000
44174.000000,16586.000000,2210.000000,41594.000000
44062.000000,16480.000000,2734.000000,41462.000000
43947.000000,16370.000000,3297.000000,41328.000000
43832.000000,16259.000000,3891.000000,41187.000000
43718.000000,16150.000000,4505.000000,41041.000000
43606.000000,16043.000000,5117.000000,40900.000000
43498.000000,15937.000000,5707.000000,40761.000000
43396.000000,15833.000000,6272.000000,40622.000000
43300.000000,15735.000000,6806.000000,40496.000000
43209.000000,15644.000000,7298.000000,40388.000000
43121.000000,15561.000000,7735.000000,40289.000000
43033.000000,15483.000000,8114.000000,40191.000000
42945.000000,15409.000000,8441.000000,40093.000000
42864.000000,15339.000000,8721.000000,39999.000000
42789.000000,15272.000000,8956.000000,39908.000000
42719.000000,15209.000000,9145.000000,39817.000000
42655.000000,15149.000000,9294.000000,39723.000000
42595.000000,15090.000000,9406.000000,39629.000000
42536.000000,15031.000000,9481.000000,39536.000000
42479.000000,14976.000000,9529.000000,39447.000000
42426.000000,14926.000000,9556.000000,39367.000000
42373.000000,14882.000000,9566.000000,39301.000000
42320.000000,14844.000000,9555.000000,39246.000000
42267.000000,14809.000000,9529.000000,39199.000000
42216.000000,14774.000000,9498.000000,39156.000000
42166.000000,14737.000000,9464.000000,39111.000000
42121.000000,14700.000000,9423.000000,39065.000000
42084.000000,14667.000000,9377.000000,39022.000000
42049.000000,14636.000000,9331.000000,38979.000000
42014.000000,14605.000000,9284.000000,38930.000000
41980.000000,14575.000000,9235.000000,38873.000000
41951.000000,14549.000000,9188.000000,38814.000000
41925.000000,14527.000000,9143.000000,38762.000000
41899.000000,14506.000000,9096.000000,38715.000000
41877.000000,14488.000000,9044.000000,38676.000000
41861.000000,14475.000000,8984.000000,38647.000000
41845.000000,14465.000000,8915.000000,38618.000000
41829.000000,14455.000000,8835.000000,38583.000000
41809.000000,14443.000000,8746.000000,38549.000000
41786.000000,14428.000000,8647.000000,38518.000000
41760.000000,14409.000000,8539.000000,38492.000000
41733.000000,14390.000000,8424.000000,38460.000000
41705.000000,14371.000000,8307.000000,38419.000000
41677.000000,14350.000000,8191.000000,38377.000000
41646.000000,14323.000000,8074.000000,38334.000000
41609.000000,14289.000000,7956.000000,38286.000000
41571.000000,14253.000000,7840.000000,38240.000000
41532.000000,14216.000000,7734.000000,38192.000000
41491.000000,14176.000000,7640.000000,38137.000000
41445.000000,14134.000000,7558.000000,38077.000000
41398.000000,14092.000000,7484.000000,38017.000000
41349.000000,14050.000000,7423.000000,37961.000000
41295.000000,14004.000000,7378.000000,37902.000000
41238.000000,13952.000000,7346.000000,37828.000000
41181.000000,13898.000000,7328.000000,37750.000000
41125.000000,13845.000000,7327.000000,37671.000000
41066.000000,13791.000000,7337.000000,37594.000000
41004.000000,13736.000000,7352.000000,37524.000000
40939.000000,13679.000000,7371.000000,37455.000000
40872.000000,13618.000000,7395.000000,37380.000000
40800.000000,13553.000000,7422.000000,37293.000000
40728.000000,13485.000000,7449.000000,37202.000000
40660.000000,13421.000000,7475.000000,37118.000000
40595.000000,13361.000000,7499.000000,37045.000000
40532.000000,13303.000000,7513.000000,36977.000000
40474.000000,13249.000000,7514.000000,36914.000000
40428.000000,13207.000000,7506.000000,36861.000000
40407.000000,13189.000000,7493.000000,36827.000000
40422.000000,13201.000000,7471.000000,36815.000000
40479.000000,13248.000000,7435.000000,36846.000000
40584.000000,13341.000000,7386.000000,36948.000000
40740.000000,13482.000000,7329.000000,37126.000000
40946.000000,13669.000000,7264.000000,37375.000000
41200.000000,13899.000000,7189.000000,37695.000000
41501.000000,14170.000000,7106.000000,38080.000000
41841.000000,14480.000000,7020.000000,38515.000000
42212.000000,14821.000000,6927.000000,38996.000000
42605.000000,15181.000000,6826.000000,39518.000000
43011.000000,15552.000000,6718.000000,40063.000000
43416.000000,15925.000000,6605.000000,40605.000000
43813.000000,16288.000000,6486.000000,41130.000000
44198.000000,16637.000000,6362.000000,41636.000000
44565.000000,16969.000000,6235.000000,42118.000000
44901.000000,17275.000000,6107.000000,42562.000000
45201.000000,17549.000000,5976.000000,42963.000000
45466.000000,17789.000000,5849.000000,43325.000000
45697.000000,17998.000000,5724.000000,43647.000000
45895.000000,18174.000000,5601.000000,43920.000000
46057.000000,18317.000000,5480.000000,44146.000000
46185.000000,18430.000000,5357.000000,44322.000000
46281.000000,18515.000000,5234.000000,44448.000000
46349.000000,18575.000000,5111.000000,44536.000000
46389.000000,18612.000000,4987.000000,44593.000000
46406.000000,18629.000000,4863.000000,44628.000000
46403.000000,18631.000000,4745.000000,44649.000000
46383.000000,18617.000000,4636.000000,44651.000000
46348.000000,18587.000000,4530.000000,44629.000000
46304.000000,18544.000000,4425.000000,44595.000000
46253.000000,18493.000000,4318.000000,44543.000000
46194.000000,18434.000000,4211.000000,44472.000000
46133.000000,18368.000000,4105.000000,44395.000000
46070.000000,18304.000000,4008.000000,44314.000000
46009.000000,18245.000000,3920.000000,44236.000000
45950.000000,18192.000000,3836.000000,44172.000000
45894.000000,18141.000000,3746.000000,44122.000000
45837.000000,18093.000000,3651.000000,44073.000000
45779.000000,18044.000000,3562.000000,44013.000000
45717.000000,17994.000000,3478.000000,43941.000000
45655.000000,17945.000000,3391.000000,43862.000000
45598.000000,17899.000000,3304.000000,43786.000000
45544.000000,17855.000000,3223.000000,43712.000000
45485.000000,17807.000000,3147.000000,43636.000000
45421.000000,17750.000000,3074.000000,43557.000000
45350.000000,17685.000000,3002.000000,43473.000000
45272.000000,17616.000000,2934.000000,43375.000000
45189.000000,17543.000000,2870.000000,43258.000000
45104.000000,17467.000000,2808.000000,43140.000000
45020.000000,17392.000000,2748.000000,43028.000000
44937.000000,17319.000000,2693.000000,42917.000000
44859.000000,17250.000000,2641.000000,42814.000000
44789.000000,17186.000000,2586.000000,42724.000000
44728.000000,17131.000000,2526.000000,42643.000000
44677.000000,17086.000000,2459.000000,42564.000000
44639.000000,17046.000000,2386.000000,42483.000000
44612.000000,17014.000000,2314.000000,42405.000000
44598.000000,16997.000000,2246.000000,42338.000000
44593.000000,16992.000000,2183.000000,42288.000000
44596.000000,16995.000000,2121.000000,42270.000000
44610.000000,17009.000000,2054.000000,42286.000000
44635.000000,17035.000000,1984.000000,42328.000000
44669.000000,17069.000000,1912.000000,42386.000000
44709.000000,17106.000000,1840.000000,42445.000000
44755.000000,17144.000000,1771.000000,42506.000000
44806.000000,17188.000000,1706.000000,42568.000000
44856.000000,17236.000000,1643.000000,42624.000000
44900.000000,17281.000000,1576.000000,42679.000000
44939.000000,17322.000000,1511.000000,42732.000000
44975.000000,17357.000000,1449.000000,42785.000000
45005.000000,17386.000000,1382.000000,42826.000000
45025.000000,17408.000000,1306.000000,42848.000000
45037.000000,17422.000000,1225.000000,42859.000000
45044.000000,17431.000000,1148.000000,42859.000000
45045.000000,17433.000000,1075.000000,42857.000000
45041.000000,17424.000000,998.000000,42842.000000
45029.000000,17407.000000,915.000000,42805.000000
45008.000000,17382.000000,831.000000,42760.000000
44974.000000,17348.000000,743.000000,42709.000000
44925.000000,17301.000000,648.000000,42643.000000
44870.000000,17245.000000,553.000000,42568.000000
44813.000000,17185.000000,465.000000,42497.000000
44749.000000,17120.000000,1062.000000,42425.000000
44673.000000,17046.000000,1014.000000,42334.000000
44586.000000,16967.000000,993.000000,42220.000000
44493.000000,16884.000000,1014.000000,42091.000000
44398.000000,16798.000000,1090.000000,41967.000000
44306.000000,16711.000000,1229.000000,41848.000000
44215.000000,16626.000000,1441.000000,41728.000000
44123.000000,16542.000000,1727.000000,41609.000000
44028.000000,16457.000000,2087.000000,41494.000000
43935.000000,16371.000000,2517.000000,41386.000000
43843.000000,16288.000000,3014.000000,41278.000000
43748.000000,16206.000000,3569.000000,41166.000000
43651.000000,16122.000000,4166.000000,41049.000000
43557.000000,16040.000000,4790.000000,40931.000000
43469.000000,15961.000000,5427.000000,40808.000000
43383.000000,15885.000000,6064.000000,40683.000000
43300.000000,15806.000000,6681.000000,40566.000000
43217.000000,15728.000000,7267.000000,40451.000000
43138.000000,15657.000000,7816.000000,40337.000000
43064.000000,15594.000000,8322.000000,40238.000000
42993.000000,15536.000000,8776.000000,40153.000000
42924.000000,15478.000000,9175.000000,40075.000000
42856.000000,15418.000000,9522.000000,39994.000000
42789.000000,15360.000000,9818.000000,39910.000000
42723.000000,15303.000000,10063.000000,39824.000000
42660.000000,15247.000000,10261.000000,39739.000000
42600.000000,15190.000000,10414.000000,39659.000000
42542.000000,15131.000000,10526.000000,39584.000000
42486.000000,15073.000000,10599.000000,39510.000000
42436.000000,15021.000000,10634.000000,39441.000000
42390.000000,14978.000000,10641.000000,39374.000000
42345.000000,14938.000000,10625.000000,39304.000000
42298.000000,14899.000000,10589.000000,39230.000000
42253.000000,14862.000000,10533.000000,39150.000000
42211.000000,14829.000000,10460.000000,39075.000000
42171.000000,14799.000000,10373.000000,39010.000000
42126.000000,14767.000000,10277.000000,38943.000000
42076.000000,14733.000000,10174.000000,38878.000000
42033.000000,14700.000000,10072.000000,38830.000000
42001.000000,14669.000000,9976.000000,38791.000000
41974.000000,14638.000000,9881.000000,38751.000000
41948.000000,14608.000000,9789.000000,38711.000000
41922.000000,14580.000000,9705.000000,38671.000000
41893.000000,14552.000000,9620.000000,38629.000000
41860.000000,14523.000000,9526.000000,38582.000000
41827.000000,14494.000000,9426.000000,38536.000000
41800.000000,14468.000000,9323.000000,38501.000000
41778.000000,14448.000000,9215.000000,38479.000000
41758.000000,14432.000000,9103.000000,38465.000000
41737.000000,14416.000000,8986.000000,38455.000000
41714.000000,14397.000000,8866.000000,38443.000000
41685.000000,14372.000000,8742.000000,38420.000000
41659.000000,14344.000000,8620.000000,38387.000000
41636.000000,14317.000000,8508.000000,38352.000000
41610.000000,14290.000000,8408.000000,38317.000000
41581.000000,14260.000000,8316.000000,38279.000000
41546.000000,14228.000000,8230.000000,38230.000000
41508.000000,14194.000000,8153.000000,38167.000000
41466.000000,14159.000000,8092.000000,38102.000000
41422.000000,14121.000000,8049.000000,38045.000000
41376.000000,14079.000000,8024.000000,37990.000000
41325.000000,14036.000000,8017.000000,37926.000000
41270.000000,13990.000000,8028.000000,37855.000000
41216.000000,13943.000000,8054.000000,37787.000000
41161.000000,13894.000000,8090.000000,37716.000000
41105.000000,13843.000000,8131.000000,37632.000000
41049.000000,13793.000000,8178.000000,37538.000000
40994.000000,13744.000000,8231.000000,37446.000000
40941.000000,13702.000000,8287.000000,37372.000000
40897.000000,13670.000000,8348.000000,37318.000000
40865.000000,13649.000000,8409.000000,37276.000000
40853.000000,13644.000000,8468.000000,37250.000000
40870.000000,13665.000000,8522.000000,37256.000000
40925.000000,13716.000000,8570.000000,37308.000000
41024.000000,13806.000000,8608.000000,37417.000000
41169.000000,13939.000000,8634.000000,37584.000000
41367.000000,14120.000000,8650.000000,37813.000000
41619.000000,14351.000000,8653.000000,38104.000000
41921.000000,14629.000000,8641.000000,38454.000000
42269.000000,14949.000000,8611.000000,38866.000000
42658.000000,15307.000000,8559.000000,39331.000000
43079.000000,15692.000000,8492.000000,39834.000000
43518.000000,16092.000000,8412.000000,40365.000000
43960.000000,16495.000000,8318.000000,40911.000000
44398.000000,16896.000000,8209.000000,41464.000000
44827.000000,17290.000000,8091.000000,42020.000000
45240.000000,17668.000000,7968.000000,42564.000000
45625.000000,18021.000000,7841.000000,43086.000000
45975.000000,18342.000000,7712.000000,43573.000000
46283.000000,18625.000000,7582.000000,44012.000000
46550.000000,18866.000000,7452.000000,44397.000000
46778.000000,19068.000000,7323.000000,44731.000000
46969.000000,19234.000000,7198.000000,45013.000000
47127.000000,19371.000000,7078.000000,45251.000000
47252.000000,19478.000000,6958.000000,45442.000000
47348.000000,19558.000000,6835.000000,45583.000000
47418.000000,19615.000000,6709.000000,45690.000000
47463.000000,19656.000000,6585.000000,45773.000000
47490.000000,19682.000000,6462.000000,45834.000000
47502.000000,19694.000000,6343.000000,45871.000000
47498.000000,19692.000000,6225.000000,45886.000000
47480.000000,19675.000000,6108.000000,45881.000000
47448.000000,19646.000000,5988.000000,45848.000000
47407.000000,19610.000000,5866.000000,45793.000000
47361.000000,19568.000000,5748.000000,45734.000000
47313.000000,19521.000000,5638.000000,45668.000000
47263.000000,19468.000000,5530.000000,45596.000000
47213.000000,19416.000000,5419.000000,45526.000000
47162.000000,19366.000000,5311.000000,45458.000000
47110.000000,19315.000000,5209.000000,45386.000000
47053.000000,19262.000000,5110.000000,45308.000000
46996.000000,19208.000000,5014.000000,45227.000000
46943.000000,19153.000000,4922.000000,45150.000000
46890.000000,19098.000000,4833.000000,45076.000000
46833.000000,19041.000000,4746.000000,44997.000000
46770.000000,18984.000000,4661.000000,44910.000000
46702.000000,18927.000000,4582.000000,44815.000000
46626.000000,18867.000000,4508.000000,44719.000000
46544.000000,18800.000000,4437.000000,44629.000000
46464.000000,18731.000000,4367.000000,44545.000000
46387.000000,18661.000000,4303.000000,44458.000000
46306.000000,18588.000000,4244.000000,44363.000000
46223.000000,18515.000000,4186.000000,44260.000000
46146.000000,18446.000000,4127.000000,44155.000000
46074.000000,18384.000000,4067.000000,44051.000000
46002.000000,18324.000000,4006.000000,43950.000000
45936.000000,18265.000000,3949.000000,43859.000000
45881.000000,18213.000000,3895.000000,43784.000000
45838.000000,18171.000000,3847.000000,43724.000000
45809.000000,18142.000000,3797.000000,43673.000000
45794.000000,18125.000000,3740.000000,43634.000000
45792.000000,18122.000000,3678.000000,43615.000000
45799.000000,18129.000000,3615.000000,43606.000000
45813.000000,18143.000000,3552.000000,43610.000000
45838.000000,18164.000000,3491.000000,43637.000000
45873.000000,18193.000000,3436.000000,43684.000000
45913.000000,18228.000000,3386.000000,43739.000000
45952.000000,18263.000000,3337.000000,43792.000000
45988.000000,18302.000000,3283.000000,43844.000000
46024.000000,18342.000000,3225.000000,43899.000000
46061.000000,18377.000000,3166.000000,43951.000000
46092.000000,18406.000000,3104.000000,43996.000000
46119.000000,18431.000000,3037.000000,44038.000000
46144.000000,18455.000000,2965.000000,44075.000000
46167.000000,18475.000000,2889.000000,44098.000000
46182.000000,18485.000000,2809.000000,44110.000000
46188.000000,18489.000000,2728.000000,44115.000000
46187.000000,18487.000000,2650.000000,44107.000000
46175.000000,18476.000000,2573.000000,44084.000000
46150.000000,18455.000000,2490.000000,44051.000000
46112.000000,18422.000000,2404.000000,44005.000000
46066.000000,18382.000000,2320.000000,43939.000000
46013.000000,18339.000000,2246.000000,43859.000000
45951.000000,18288.000000,2185.000000,43766.000000
45881.000000,18225.000000,2151.000000,43655.000000
45808.000000,18155.000000,2168.000000,43539.000000
45732.000000,18082.000000,2248.000000,43431.000000
45653.000000,18007.000000,2396.000000,43329.000000
45570.000000,17930.000000,2614.000000,43228.000000
45490.000000,17853.000000,2910.000000,43125.000000
45410.000000,17777.000000,3282.000000,43014.000000
45326.000000,17698.000000,3720.000000,42896.000000
45239.000000,17614.000000,4219.000000,42789.000000
45148.000000,17529.000000,4769.000000,42687.000000
45054.000000,17443.000000,5358.000000,42584.000000
44959.000000,17358.000000,5969.000000,42476.000000
44865.000000,17271.000000,6589.000000,42368.000000
44774.000000,17186.000000,7203.000000,42259.000000
44686.000000,17103.000000,7800.000000,42137.000000
44596.000000,17020.000000,8373.000000,42005.000000
44511.000000,16940.000000,8908.000000,41879.000000
44429.000000,16865.000000,9397.000000,41760.000000
44347.000000,16794.000000,9838.000000,41643.000000
44265.000000,16724.000000,10229.000000,41530.000000
44185.000000,16656.000000,10570.000000,41431.000000
44110.000000,16589.000000,10859.000000,41343.000000
44037.000000,16520.000000,11093.000000,41255.000000
43962.000000,16449.000000,11274.000000,41156.000000
43886.000000,16379.000000,11407.000000,41046.000000
43816.000000,16316.000000,11497.000000,40938.000000
43751.000000,16256.000000,11554.000000,40834.000000
43689.000000,16197.000000,11581.000000,40739.000000
43631.000000,16140.000000,11581.000000,40653.000000
43572.000000,16084.000000,11559.000000,40569.000000
43517.000000,16032.000000,11516.000000,40495.000000
43470.000000,15985.000000,11452.000000,40433.000000
43428.000000,15940.000000,11375.000000,40377.000000
43384.000000,15898.000000,11295.000000,40321.000000
43339.000000,15862.000000,11215.000000,40261.000000
43295.000000,15833.000000,11135.000000,40198.000000
43255.000000,15806.000000,11054.000000,40141.000000
43217.000000,15779.000000,10976.000000,40091.000000
43179.000000,15753.000000,10902.000000,40040.000000
43145.000000,15727.000000,10829.000000,39992.000000
43118.000000,15704.000000,10755.000000,39949.000000
43093.000000,15680.000000,10682.000000,39906.000000
43066.000000,15652.000000,10604.000000,39859.000000
43036.000000,15624.000000,10515.000000,39812.000000
43006.000000,15598.000000,10416.000000,39763.000000
42975.000000,15569.000000,10308.000000,39711.000000
42942.000000,15538.000000,10192.000000,39653.000000
42910.000000,15507.000000,10067.000000,39598.000000
42876.000000,15474.000000,9934.000000,39547.000000
42834.000000,15436.000000,9796.000000,39497.000000
42790.000000,15395.000000,9662.000000,39451.000000
42751.000000,15358.000000,9534.000000,39414.000000
42715.000000,15324.000000,9419.000000,39376.000000
42678.000000,15292.000000,9313.000000,39330.000000
42638.000000,15260.000000,9217.000000,39279.000000
42600.000000,15227.000000,9136.000000,39228.000000
42566.000000,15194.000000,9072.000000,39172.000000
42532.000000,15155.000000,9021.000000,39108.000000
42495.000000,15115.000000,8981.000000,39047.000000
42458.000000,15080.000000,8956.000000,39000.000000
42424.000000,15049.000000,8949.000000,38955.000000
42392.000000,15017.000000,8958.000000,38900.000000
42355.000000,14985.000000,8983.000000,38838.000000
42318.000000,14956.000000,9025.000000,38776.000000
42280.000000,14925.000000,9083.000000,38708.000000
42240.000000,14893.000000,9148.000000,38635.000000
42200.000000,14858.000000,9211.000000,38569.000000
42157.000000,14822.000000,9273.000000,38508.000000
42110.000000,14783.000000,9337.000000,38441.000000
42058.000000,14739.000000,9399.000000,38369.000000
42000.000000,14690.000000,9454.000000,38294.000000
41942.000000,14637.000000,9502.000000,38216.000000
41881.000000,14577.000000,9537.000000,38136.000000
41815.000000,14515.000000,9553.000000,38053.000000
41748.000000,14453.000000,9548.000000,37972.000000
41681.000000,14389.000000,9531.000000,37897.000000
41615.000000,14324.000000,9504.000000,37826.000000
41554.000000,14261.000000,9461.000000,37757.000000
41506.000000,14213.000000,9400.000000,37705.000000
41479.000000,14190.000000,9330.000000,37681.000000
41486.000000,14201.000000,9256.000000,37698.000000
41538.000000,14255.000000,9172.000000,37772.000000
41645.000000,14359.000000,9076.000000,37911.000000
41812.000000,14514.000000,8973.000000,38120.000000
42038.000000,14722.000000,8862.000000,38402.000000
42322.000000,14982.000000,8743.000000,38752.000000
42656.000000,15291.000000,8614.000000,39163.000000
43039.000000,15644.000000,8478.000000,39635.000000
43458.000000,16035.000000,8342.000000,40158.000000
43899.000000,16445.000000,8205.000000,40713.000000
44353.000000,16865.000000,8072.000000,41289.000000
44814.000000,17291.000000,7947.000000,41880.000000
45271.000000,17712.000000,7825.000000,42473.000000
45709.000000,18115.000000,7700.000000,43046.000000
46123.000000,18494.000000,7574.000000,43589.000000
46506.000000,18844.000000,7449.000000,44102.000000
46851.000000,19160.000000,7321.000000,44571.000000
47154.000000,19433.000000,7187.000000,44988.000000
47420.000000,19666.000000,7051.000000,45354.000000
47652.000000,19865.000000,6918.000000,45680.000000
47847.000000,20033.000000,6789.000000,45962.000000
48007.000000,20173.000000,6658.000000,46201.000000
48139.000000,20290.000000,6529.000000,46411.000000
48246.000000,20384.000000,6406.000000,46591.000000
48321.000000,20453.000000,6289.000000,46729.000000
48367.000000,20498.000000,6175.000000,46825.000000
48393.000000,20524.000000,6062.000000,46890.000000
48403.000000,20536.000000,5953.000000,46929.000000
48400.000000,20534.000000,5851.000000,46946.000000
48388.000000,20519.000000,5756.000000,46947.000000
48370.000000,20495.000000,5668.000000,46929.000000
48345.000000,20463.000000,5581.000000,46892.000000
48311.000000,20423.000000,5493.000000,46845.000000
48273.000000,20380.000000,5408.000000,46799.000000
48236.000000,20337.000000,5328.000000,46753.000000
48199.000000,20295.000000,5257.000000,46706.000000
48162.000000,20252.000000,5189.000000,46662.000000
48124.000000,20209.000000,5117.000000,46626.000000
48085.000000,20169.000000,5045.000000,46598.000000
48043.000000,20133.000000,4980.000000,46569.000000
47996.000000,20097.000000,4922.000000,46528.000000
47948.000000,20059.000000,4868.000000,46472.000000
47901.000000,20022.000000,4817.000000,46406.000000
47851.000000,19980.000000,4770.000000,46333.000000
47794.000000,19930.000000,4723.000000,46249.000000
47729.000000,19873.000000,4674.000000,46159.000000
47655.000000,19807.000000,4624.000000,46061.000000
47572.000000,19733.000000,4573.000000,45947.000000
47483.000000,19654.000000,4516.000000,45821.000000
47392.000000,19574.000000,4455.000000,45696.000000
47302.000000,19494.000000,4392.000000,45572.000000
47214.000000,19417.000000,4328.000000,45450.000000
47133.000000,19344.000000,4265.000000,45338.000000
47060.000000,19274.000000,4205.000000,45244.000000
46992.000000,19206.000000,4151.000000,45162.000000
46930.000000,19141.000000,4103.000000,45085.000000
46876.000000,19085.000000,4054.000000,45016.000000
46833.000000,19043.000000,4004.000000,44954.000000
46797.000000,19008.000000,3955.000000,44899.000000
46770.000000,18980.000000,3904.000000,44853.000000
46754.000000,18965.000000,3849.000000,44819.000000
46752.000000,18967.000000,3791.000000,44810.000000
46758.000000,18981.000000,3733.000000,44823.000000
46772.000000,19004.000000,3675.000000,44849.000000
46793.000000,19028.000000,3612.000000,44888.000000
46821.000000,19053.000000,3544.000000,44937.000000
46854.000000,19084.000000,3472.000000,44985.000000
46887.000000,19117.000000,3399.000000,45026.000000
46917.000000,19147.000000,3326.000000,45061.000000
46947.000000,19173.000000,3254.000000,45092.000000
46978.000000,19198.000000,3179.000000,45122.000000
47005.000000,19219.000000,3099.000000,45147.000000
47022.000000,19232.000000,3016.000000,45159.000000
47030.000000,19238.000000,2933.000000,45156.000000
47028.000000,19237.000000,2852.000000,45141.000000
47018.000000,19227.000000,2773.000000,45110.000000
46997.000000,19207.000000,2702.000000,45059.000000
46967.000000,19179.000000,2656.000000,44997.000000
46931.000000,19145.000000,2650.000000,44937.000000
46886.000000,19105.000000,2690.000000,44880.000000
46835.000000,19061.000000,2786.000000,44826.000000
46781.000000,19011.000000,2952.000000,44770.000000
46721.000000,18952.000000,3199.000000,44702.000000
46649.000000,18879.000000,3533.000000,44615.000000
46571.000000,18800.000000,3953.000000,44508.000000
46495.000000,18723.000000,4456.000000,44388.000000
46423.000000,18645.000000,5027.000000,44262.000000
46348.000000,18562.000000,5649.000000,44130.000000
46268.000000,18477.000000,6305.000000,43993.000000
46186.000000,18392.000000,6988.000000,43863.000000
46104.000000,18310.000000,7684.000000,43738.000000
46023.000000,18229.000000,8371.000000,43613.000000
45942.000000,18149.000000,9032.000000,43494.000000
45860.000000,18071.000000,9663.000000,43377.000000
45777.000000,17997.000000,10254.000000,43264.000000
45694.000000,17923.000000,10798.000000,43158.000000
45612.000000,17848.000000,11291.000000,43049.000000
45530.000000,17772.000000,11730.000000,42942.000000
45446.000000,17696.000000,12118.000000,42850.000000
45363.000000,17623.000000,12456.000000,42766.000000
45280.000000,17555.000000,12743.000000,42677.000000
45200.000000,17487.000000,12984.000000,42578.000000
45121.000000,17416.000000,13180.000000,42471.000000
45044.000000,17346.000000,13332.000000,42358.000000
44971.000000,17279.000000,13441.000000,42248.000000
44900.000000,17211.000000,13512.000000,42136.000000
44830.000000,17141.000000,13554.000000,42017.000000
44762.000000,17073.000000,13574.000000,41907.000000
44693.000000,17007.000000,13575.000000,41809.000000
44622.000000,16943.000000,13562.000000,41722.000000
44552.000000,16880.000000,13538.000000,41650.000000
44489.000000,16817.000000,13505.000000,41591.000000
44431.000000,16754.000000,13462.000000,41537.000000
44376.000000,16696.000000,13414.000000,41476.000000
44323.000000,16641.000000,13369.000000,41405.000000
44276.000000,16590.000000,13325.000000,41335.000000
44237.000000,16546.000000,13278.000000,41266.000000
44197.000000,16509.000000,13228.000000,41188.000000
44154.000000,16475.000000,13178.000000,41106.000000
44107.000000,16444.000000,13129.000000,41033.000000
44061.000000,16415.000000,13078.000000,40978.000000
44017.000000,16385.000000,13021.000000,40925.000000
43972.000000,16352.000000,12956.000000,40867.000000
43927.000000,16319.000000,12881.000000,40811.000000
43883.000000,16284.000000,12794.000000,40760.000000
43841.000000,16248.000000,12694.000000,40707.000000
43797.000000,16207.000000,12585.000000,40646.000000
43751.000000,16163.000000,12467.000000,40578.000000
43707.000000,16121.000000,12340.000000,40517.000000
43669.000000,16083.000000,12210.000000,40468.000000
43634.000000,16047.000000,12081.000000,40422.000000
43597.000000,16009.000000,11954.000000,40367.000000
43562.000000,15971.000000,11830.000000,40313.000000
43524.000000,15931.000000,11713.000000,40263.000000
43480.000000,15885.000000,11610.000000,40200.000000
43432.000000,15839.000000,11523.000000,40125.000000
43387.000000,15795.000000,11453.000000,40056.000000
43345.000000,15751.000000,11398.000000,39992.000000
43307.000000,15707.000000,11356.000000,39933.000000
43271.000000,15669.000000,11325.000000,39877.000000
43232.000000,15632.000000,11308.000000,39820.000000
43190.000000,15596.000000,11308.000000,39763.000000
43146.000000,15561.000000,11323.000000,39706.000000
43101.000000,15526.000000,11344.000000,39645.000000
43056.000000,15491.000000,11366.000000,39584.000000
43009.000000,15455.000000,11387.000000,39526.000000
42961.000000,15417.000000,11410.000000,39466.000000
42911.000000,15377.000000,11433.000000,39399.000000
42860.000000,15333.000000,11452.000000,39323.000000
42807.000000,15282.000000,11469.000000,39246.000000
42753.000000,15230.000000,11479.000000,39176.000000
42695.000000,15174.000000,11479.000000,39109.000000
42634.000000,15115.000000,11470.000000,39039.000000
42570.000000,15053.000000,11454.000000,38962.000000
42504.000000,14989.000000,11425.000000,38878.000000
42435.000000,14927.000000,11384.000000,38797.000000
42367.000000,14867.000000,11333.000000,38716.000000
42297.000000,14808.000000,11269.000000,38633.000000
42230.000000,14752.000000,11191.000000,38556.000000
42165.000000,14697.000000,11096.000000,38481.000000
42097.000000,14639.000000,10990.000000,38402.000000
42025.000000,14577.000000,10874.000000,38316.000000
41950.000000,14514.000000,10749.000000,38230.000000
41876.000000,14452.000000,10615.000000,38150.000000
41804.000000,14387.000000,10477.000000,38067.000000
41732.000000,14317.000000,10336.000000,37968.000000
41664.000000,14245.000000,10192.000000,37865.000000
41603.000000,14179.000000,10050.000000,37778.000000
41546.000000,14122.000000,9911.000000,37709.000000
41498.000000,14075.000000,9779.000000,37654.000000
41471.000000,14052.000000,9653.000000,37621.000000
41478.000000,14063.000000,9532.000000,37623.000000
41528.000000,14113.000000,9409.000000,37676.000000
41627.000000,14209.000000,9281.000000,37791.000000
41785.000000,14358.000000,9150.000000,37978.000000
42005.000000,14564.000000,9021.000000,38244.000000
42285.000000,14821.000000,8892.000000,38586.000000
42625.000000,15124.000000,8761.000000,39002.000000
43019.000000,15473.000000,8628.000000,39485.000000
43454.000000,15863.000000,8494.000000,40020.000000
43919.000000,16285.000000,8358.000000,40590.000000
44402.000000,16728.000000,8219.000000,41183.000000
44891.000000,17181.000000,8082.000000,41798.000000
45375.000000,17630.000000,7956.000000,42424.000000
45839.000000,18061.000000,7837.000000,43038.000000
46278.000000,18463.000000,7717.000000,43627.000000
46688.000000,18838.000000,7599.000000,44187.000000
47060.000000,19177.000000,7493.000000,44701.000000
47389.000000,19476.000000,7397.000000,45166.000000
47679.000000,19741.000000,7302.000000,45583.000000
47932.000000,19976.000000,7210.000000,45949.000000
48149.000000,20177.000000,7126.000000,46273.000000
48332.000000,20346.000000,7042.000000,46558.000000
48483.000000,20484.000000,6952.000000,46802.000000
48605.000000,20593.000000,6861.000000,47000.000000
48698.000000,20674.000000,6772.000000,47151.000000
48763.000000,20727.000000,6683.000000,47265.000000
48804.000000,20760.000000,6597.000000,47354.000000
48826.000000,20778.000000,6517.000000,47418.000000
48830.000000,20782.000000,6442.000000,47448.000000
48819.000000,20777.000000,6367.000000,47449.000000
48800.000000,20763.000000,6290.000000,47432.000000
48773.000000,20738.000000,6213.000000,47400.000000
48740.000000,20702.000000,6138.000000,47355.000000
48699.000000,20657.000000,6067.000000,47305.000000
48653.000000,20607.000000,5997.000000,47249.000000
48605.000000,20556.000000,5929.000000,47179.000000
48560.000000,20507.000000,5862.000000,47097.000000
48519.000000,20460.000000,5792.000000,47022.000000
48482.000000,20418.000000,5718.000000,46970.000000
48449.000000,20381.000000,5648.000000,46939.000000
48420.000000,20353.000000,5584.000000,46919.000000
48389.000000,20325.000000,5518.000000,46888.000000
48349.000000,20292.000000,5447.000000,46833.000000
48302.000000,20252.000000,5375.000000,46772.000000
48249.000000,20208.000000,5306.000000,46713.000000
48187.000000,20159.000000,5235.000000,46649.000000
48117.000000,20103.000000,5159.000000,46575.000000
48043.000000,20040.000000,5084.000000,46485.000000
47962.000000,19966.000000,5011.000000,46375.000000
47871.000000,19883.000000,4938.000000,46254.000000
47779.000000,19797.000000,4864.000000,46131.000000
47693.000000,19715.000000,4796.000000,46009.000000
47613.000000,19636.000000,4732.000000,45889.000000
47539.000000,19565.000000,4664.000000,45777.000000
47474.000000,19503.000000,4593.000000,45682.000000
47417.000000,19453.000000,4520.000000,45600.000000
47365.000000,19411.000000,4439.000000,45528.000000
47320.000000,19378.000000,4349.000000,45472.000000
47285.000000,19352.000000,4259.000000,45428.000000
47258.000000,19334.000000,4170.000000,45387.000000
47237.000000,19324.000000,4080.000000,45363.000000
47225.000000,19326.000000,3986.000000,45365.000000
47227.000000,19336.000000,3892.000000,45386.000000
47243.000000,19354.000000,3800.000000,45416.000000
47268.000000,19376.000000,3705.000000,45453.000000
47295.000000,19393.000000,3604.000000,45490.000000
47321.000000,19408.000000,3500.000000,45527.000000
47347.000000,19424.000000,3395.000000,45561.000000
47373.000000,19440.000000,3290.000000,45586.000000
47394.000000,19455.000000,3186.000000,45606.000000
47412.000000,19469.000000,3088.000000,45620.000000
47426.000000,19481.000000,2992.000000,45628.000000
47432.000000,19491.000000,2894.000000,45628.000000
47431.000000,19498.000000,2792.000000,45620.000000
47424.000000,19501.000000,2690.000000,45609.000000
47412.000000,19497.000000,2594.000000,45600.000000
47390.000000,19483.000000,2510.000000,45585.000000
47358.000000,19457.000000,2448.000000,45558.000000
47322.000000,19421.000000,2421.000000,45520.000000
47285.000000,19377.000000,2446.000000,45470.000000
47240.000000,19324.000000,2537.000000,45408.000000
47181.000000,19259.000000,2702.000000,45332.000000
47110.000000,19187.000000,2952.000000,45245.000000
47031.000000,19111.000000,3293.000000,45153.000000
46943.000000,19031.000000,3724.000000,45054.000000
46848.000000,18948.000000,4233.000000,44947.000000
46749.000000,18862.000000,4814.000000,44830.000000
46651.000000,18774.000000,5452.000000,44714.000000
46554.000000,18685.000000,6131.000000,44602.000000
46457.000000,18594.000000,6834.000000,44489.000000
46359.000000,18496.000000,7551.000000,44365.000000
46259.000000,18392.000000,8269.000000,44230.000000
46160.000000,18290.000000,8971.000000,44093.000000
46060.000000,18196.000000,9642.000000,43954.000000
45960.000000,18105.000000,10273.000000,43812.000000
45856.000000,18015.000000,10856.000000,43676.000000
45752.000000,17926.000000,11388.000000,43543.000000
45647.000000,17837.000000,11866.000000,43404.000000
45540.000000,17746.000000,12287.000000,43253.000000
45427.000000,17649.000000,12650.000000,43087.000000
45310.000000,17548.000000,12953.000000,42912.000000
45195.000000,17449.000000,13200.000000,42731.000000
45084.000000,17351.000000,13393.000000,42558.000000
44979.000000,17256.000000,13537.000000,42406.000000
44883.000000,17163.000000,13636.000000,42289.000000
44797.000000,17078.000000,13697.000000,42207.000000
44716.000000,16999.000000,13725.000000,42142.000000
44635.000000,16923.000000,13734.000000,42081.000000
44554.000000,16851.000000,13729.000000,42018.000000
44478.000000,16782.000000,13705.000000,41937.000000
44405.000000,16716.000000,13665.000000,41840.000000
44334.000000,16653.000000,13618.000000,41741.000000
44267.000000,16590.000000,13569.000000,41652.000000
44208.000000,16532.000000,13516.000000,41576.000000
44153.000000,16477.000000,13459.000000,41504.000000
44096.000000,16419.000000,13405.000000,41426.000000
44038.000000,16358.000000,13357.000000,41349.000000
43977.000000,16299.000000,13315.000000,41275.000000
43915.000000,16243.000000,13273.000000,41203.000000
43855.000000,16192.000000,13231.000000,41137.000000
43800.000000,16147.000000,13186.000000,41074.000000
43744.000000,16102.000000,13135.000000,41011.000000
43688.000000,16053.000000,13073.000000,40946.000000
43635.000000,16005.000000,12996.000000,40886.000000
43589.000000,15963.000000,12906.000000,40835.000000
43547.000000,15922.000000,12804.000000,40782.000000
43500.000000,15879.000000,12694.000000,40717.000000
43450.000000,15834.000000,12578.000000,40644.000000
43398.000000,15786.000000,12457.000000,40562.000000
43347.000000,15740.000000,12334.000000,40469.000000
43297.000000,15695.000000,12212.000000,40377.000000
43249.000000,15648.000000,12091.000000,40295.000000
43201.000000,15600.000000,11972.000000,40223.000000
43156.000000,15555.000000,11860.000000,40149.000000
43112.000000,15512.000000,11760.000000,40066.000000
43064.000000,15469.000000,11671.000000,39994.000000
43014.000000,15425.000000,11592.000000,39933.000000
42962.000000,15381.000000,11525.000000,39873.000000
42909.000000,15336.000000,11475.000000,39806.000000
42853.000000,15286.000000,11445.000000,39729.000000
42799.000000,15236.000000,11430.000000,39651.000000
42745.000000,15186.000000,11429.000000,39572.000000
42687.000000,15132.000000,11442.000000,39481.000000
42626.000000,15072.000000,11465.000000,39379.000000
42564.000000,15009.000000,11495.000000,39269.000000
42503.000000,14947.000000,11531.000000,39160.000000
42442.000000,14888.000000,11568.000000,39067.000000
42382.000000,14833.000000,11603.000000,38998.000000
42323.000000,14783.000000,11637.000000,38945.000000
42264.000000,14736.000000,11667.000000,38894.000000
42204.000000,14686.000000,11689.000000,38835.000000
42145.000000,14635.000000,11702.000000,38771.000000
42088.000000,14589.000000,11707.000000,38705.000000
42033.000000,14544.000000,11704.000000,38642.000000
41975.000000,14495.000000,11690.000000,38584.000000
41910.000000,14440.000000,11663.000000,38524.000000
41840.000000,14382.000000,11623.000000,38459.000000
41770.000000,14324.000000,11571.000000,38392.000000
41703.000000,14264.000000,11508.000000,38327.000000
41639.000000,14200.000000,11430.000000,38266.000000
41574.000000,14136.000000,11339.000000,38200.000000
41507.000000,14071.000000,11235.000000,38123.000000
41437.000000,13997.000000,11120.000000,38034.000000
41363.000000,13916.000000,10996.000000,37924.000000
41283.000000,13834.000000,10862.000000,37799.000000
41199.000000,13753.000000,10719.000000,37675.000000
41114.000000,13674.000000,10571.000000,37568.000000
41030.000000,13598.000000,10419.000000,37476.000000
40946.000000,13524.000000,10266.000000,37385.000000
40865.000000,13455.000000,10116.000000,37294.000000
40787.000000,13390.000000,9970.000000,37211.000000
40717.000000,13333.000000,9827.000000,37139.000000
40659.000000,13287.000000,9690.000000,37075.000000
40619.000000,13254.000000,9557.000000,37024.000000
40606.000000,13242.000000,9425.000000,37001.000000
40627.000000,13260.000000,9294.000000,37016.000000
40697.000000,13321.000000,9167.000000,37075.000000
40822.000000,13435.000000,9039.000000,37199.000000
41003.000000,13603.000000,8907.000000,37404.000000
41243.000000,13826.000000,8775.000000,37685.000000
41545.000000,14104.000000,8647.000000,38039.000000
41903.000000,14431.000000,8517.000000,38461.000000
42305.000000,14798.000000,8385.000000,38937.000000
42744.000000,15200.000000,8253.000000,39470.000000
43214.000000,15628.000000,8125.000000,40053.000000
43695.000000,16066.000000,8005.000000,40660.000000
44178.000000,16505.000000,7890.000000,41271.000000
44655.000000,16941.000000,7780.000000,41871.000000
45116.000000,17363.000000,7677.000000,42452.000000
45550.000000,17756.000000,7574.000000,43010.000000
45947.000000,18112.000000,7466.000000,43530.000000
46303.000000,18429.000000,7359.000000,44007.000000
46621.000000,18713.000000,7259.000000,44449.000000
46900.000000,18964.000000,7163.000000,44853.000000
47136.000000,19178.000000,7068.000000,45207.000000
47332.000000,19359.000000,6977.000000,45504.000000
47492.000000,19510.000000,6891.000000,45747.000000
47620.000000,19632.000000,6807.000000,45946.000000
47721.000000,19727.000000,6726.000000,46110.000000
47796.000000,19798.000000,6649.000000,46246.000000
47843.000000,19845.000000,6576.000000,46348.000000
47858.000000,19861.000000,6502.000000,46404.000000
47844.000000,19853.000000,6428.000000,46422.000000
47815.000000,19829.000000,6354.000000,46420.000000
47777.000000,19794.000000,6281.000000,46404.000000
47730.000000,19750.000000,6207.000000,46371.000000
47678.000000,19703.000000,6133.000000,46329.000000
47624.000000,19654.000000,6059.000000,46274.000000
47568.000000,19601.000000,5982.000000,46201.000000
47511.000000,19547.000000,5901.000000,46123.000000
47456.000000,19496.000000,5818.000000,46050.000000
47405.000000,19447.000000,5738.000000,45977.000000
47356.000000,19398.000000,5663.000000,45909.000000
47310.000000,19351.000000,5588.000000,45849.000000
47267.000000,19307.000000,5511.000000,45784.000000
47225.000000,19263.000000,5440.000000,45712.000000
47183.000000,19217.000000,5377.000000,45641.000000
47138.000000,19169.000000,5311.000000,45571.000000
47090.000000,19116.000000,5235.000000,45503.000000
47040.000000,19061.000000,5157.000000,45435.000000
46984.000000,19003.000000,5080.000000,45355.000000
46921.000000,18940.000000,5000.000000,45257.000000
46851.000000,18875.000000,4919.000000,45156.000000
46780.000000,18809.000000,4837.000000,45058.000000
46706.000000,18739.000000,4749.000000,44956.000000
46630.000000,18668.000000,4655.000000,44842.000000
46557.000000,18599.000000,4557.000000,44720.000000
46490.000000,18537.000000,4457.000000,44606.000000
46431.000000,18482.000000,4356.000000,44512.000000
46380.000000,18432.000000,4253.000000,44443.000000
46339.000000,18391.000000,4148.000000,44392.000000
46309.000000,18361.000000,4046.000000,44347.000000
46288.000000,18342.000000,3944.000000,44314.000000
46277.000000,18330.000000,3841.000000,44300.000000
46278.000000,18329.000000,3736.000000,44299.000000
46289.000000,18341.000000,3631.000000,44302.000000
46309.000000,18364.000000,3526.000000,44317.000000
46340.000000,18396.000000,3417.000000,44355.000000
46382.000000,18436.000000,3308.000000,44412.000000
46430.000000,18482.000000,3202.000000,44473.000000
46477.000000,18527.000000,3097.000000,44532.000000
46523.000000,18569.000000,2992.000000,44593.000000
46565.000000,18613.000000,2893.000000,44658.000000
46607.000000,18658.000000,2804.000000,44716.000000
46645.000000,18696.000000,2718.000000,44750.000000
46670.000000,18723.000000,2632.000000,44749.000000
46683.000000,18741.000000,2546.000000,44736.000000
46691.000000,18752.000000,2463.000000,44735.000000
46693.000000,18756.000000,2382.000000,44736.000000
46688.000000,18754.000000,2296.000000,44728.000000
46677.000000,18749.000000,2205.000000,44722.000000
46661.000000,18737.000000,2109.000000,44716.000000
46636.000000,18716.000000,2005.000000,44694.000000
46603.000000,18688.000000,1895.000000,44650.000000
46567.000000,18653.000000,1786.000000,44590.000000
46525.000000,18610.000000,1682.000000,44533.000000
46475.000000,18560.000000,1580.000000,44474.000000
46415.000000,18505.000000,1479.000000,44399.000000
46348.000000,18446.000000,1384.000000,44311.000000
46276.000000,18380.000000,1304.000000,44221.000000
46202.000000,18307.000000,1245.000000,44126.000000
46125.000000,18229.000000,1220.000000,44019.000000
46044.000000,18148.000000,1247.000000,43905.000000
45960.000000,18066.000000,1340.000000,43792.000000
45873.000000,17983.000000,1508.000000,43675.000000
45784.000000,17900.000000,1758.000000,43553.000000
45697.000000,17818.000000,2097.000000,43432.000000
45612.000000,17736.000000,2523.000000,43311.000000
45523.000000,17652.000000,3026.000000,43178.000000
45431.000000,17566.000000,3601.000000,43042.000000
45340.000000,17482.000000,4244.000000,42920.000000
45251.000000,17399.000000,4937.000000,42810.000000
45161.000000,17314.000000,5652.000000,42704.000000
45069.000000,17232.000000,6373.000000,42601.000000
44981.000000,17153.000000,7091.000000,42504.000000
44899.000000,17079.000000,7794.000000,42417.000000
44821.000000,17009.000000,8464.000000,42332.000000
44741.000000,16939.000000,9091.000000,42243.000000
44662.000000,16869.000000,9672.000000,42149.000000
44583.000000,16801.000000,10200.000000,42045.000000
44504.000000,16732.000000,10668.000000,41928.000000
44429.000000,16664.000000,11071.000000,41812.000000
44358.000000,16598.000000,11412.000000,41701.000000
44290.000000,16533.000000,11698.000000,41592.000000
44228.000000,16473.000000,11933.000000,41494.000000
44175.000000,16419.000000,12120.000000,41400.000000
44127.000000,16370.000000,12261.000000,41306.000000
44078.000000,16322.000000,12364.000000,41223.000000
44028.000000,16276.000000,12430.000000,41159.000000
43981.000000,16232.000000,12460.000000,41106.000000
43935.000000,16188.000000,12460.000000,41050.000000
43890.000000,16144.000000,12437.000000,40983.000000
43849.000000,16102.000000,12398.000000,40910.000000
43809.000000,16062.000000,12344.000000,40828.000000
43767.000000,16028.000000,12278.000000,40741.000000
43724.000000,15995.000000,12206.000000,40669.000000
43687.000000,15965.000000,12132.000000,40620.000000
43655.000000,15939.000000,12055.000000,40589.000000
43624.000000,15913.000000,11983.000000,40562.000000
43592.000000,15882.000000,11919.000000,40523.000000
43560.000000,15845.000000,11858.000000,40478.000000
43527.000000,15807.000000,11797.000000,40432.000000
43493.000000,15773.000000,11735.000000,40391.000000
43460.000000,15746.000000,11669.000000,40355.000000
43427.000000,15724.000000,11599.000000,40323.000000
43397.000000,15703.000000,11530.000000,40291.000000
43366.000000,15680.000000,11462.000000,40244.000000
43334.000000,15653.000000,11388.000000,40181.000000
43302.000000,15626.000000,11304.000000,40117.000000
43272.000000,15598.000000,11209.000000,40064.000000
43243.000000,15568.000000,11104.000000,40016.000000
43212.000000,15534.000000,10990.000000,39963.000000
43177.000000,15499.000000,10869.000000,39906.000000
43142.000000,15465.000000,10748.000000,39839.000000
43106.000000,15431.000000,10632.000000,39770.000000
43069.000000,15398.000000,10524.000000,39714.000000
43036.000000,15367.000000,10423.000000,39669.000000
43005.000000,15338.000000,10330.000000,39626.000000
42970.000000,15307.000000,10248.000000,39578.000000
42933.000000,15275.000000,10176.000000,39530.000000
42898.000000,15244.000000,10114.000000,39482.000000
42863.000000,15208.000000,10071.000000,39422.000000
42819.000000,15167.000000,10047.000000,39355.000000
42769.000000,15123.000000,10038.000000,39295.000000
42717.000000,15080.000000,10039.000000,39236.000000
42663.000000,15034.000000,10052.000000,39165.000000
42603.000000,14985.000000,10074.000000,39077.000000
42539.000000,14931.000000,10104.000000,38978.000000
42475.000000,14876.000000,10139.000000,38886.000000
42413.000000,14821.000000,10173.000000,38806.000000
42348.000000,14763.000000,10206.000000,38716.000000
42277.000000,14701.000000,10236.000000,38617.000000
42205.000000,14638.000000,10260.000000,38533.000000
42134.000000,14577.000000,10275.000000,38470.000000
42066.000000,14518.000000,10280.000000,38410.000000
42002.000000,14460.000000,10275.000000,38346.000000
41949.000000,14411.000000,10260.000000,38293.000000
41914.000000,14377.000000,10235.000000,38264.000000
41900.000000,14362.000000,10202.000000,38262.000000
41918.000000,14377.000000,10159.000000,38292.000000
41977.000000,14428.000000,10105.000000,38365.000000
42083.000000,14521.000000,10041.000000,38491.000000
42241.000000,14658.000000,9970.000000,38672.000000
42454.000000,14843.000000,9890.000000,38915.000000
42720.000000,15079.000000,9801.000000,39219.000000
43037.000000,15365.000000,9699.000000,39584.000000
43399.000000,15693.000000,9585.000000,40004.000000
43797.000000,16053.000000,9466.000000,40467.000000
44218.000000,16442.000000,9343.000000,40973.000000
44652.000000,16850.000000,9215.000000,41514.000000
45090.000000,17262.000000,9081.000000,42077.000000
45522.000000,17666.000000,8945.000000,42648.000000
45943.000000,18055.000000,8813.000000,43208.000000
46342.000000,18420.000000,8681.000000,43740.000000
46707.000000,18754.000000,8543.000000,44231.000000
47036.000000,19055.000000,8403.000000,44686.000000
47327.000000,19319.000000,8265.000000,45103.000000
47581.000000,19548.000000,8128.000000,45473.000000
47798.000000,19745.000000,7988.000000,45791.000000
47983.000000,19913.000000,7848.000000,46058.000000
48135.000000,20052.000000,7710.000000,46278.000000
48252.000000,20163.000000,7575.000000,46453.000000
48337.000000,20244.000000,7441.000000,46588.000000
48394.000000,20301.000000,7305.000000,46690.000000
48430.000000,20337.000000,7169.000000,46766.000000
48448.000000,20353.000000,7037.000000,46824.000000
48450.000000,20354.000000,6910.000000,46864.000000
48436.000000,20341.000000,6787.000000,46883.000000
48408.000000,20313.000000,6668.000000,46882.000000
48367.000000,20272.000000,6553.000000,46857.000000
48316.000000,20225.000000,6439.000000,46809.000000
48260.000000,20174.000000,6330.000000,46742.000000
48202.000000,20118.000000,6228.000000,46658.000000
48139.000000,20055.000000,6129.000000,46567.000000
48075.000000,19993.000000,6032.000000,46481.000000
48009.000000,19934.000000,5938.000000,46396.000000
47939.000000,19875.000000,5850.000000,46305.000000
47873.000000,19813.000000,5766.000000,46216.000000
47813.000000,19754.000000,5683.000000,46136.000000
47757.000000,19700.000000,5602.000000,46062.000000
47697.000000,19645.000000,5524.000000,45977.000000
47630.000000,19583.000000,5451.000000,45880.000000
47560.000000,19517.000000,5383.000000,45782.000000
47484.000000,19451.000000,5319.000000,45680.000000
47402.000000,19381.000000,5255.000000,45570.000000
47314.000000,19306.000000,5185.000000,45455.000000
47221.000000,19228.000000,5113.000000,45338.000000
47129.000000,19147.000000,5042.000000,45220.000000
47043.000000,19069.000000,4973.000000,45102.000000
46964.000000,18995.000000,4904.000000,44989.000000
46896.000000,18931.000000,4833.000000,44894.000000
46838.000000,18877.000000,4765.000000,44812.000000
46784.000000,18831.000000,4701.000000,44730.000000
46737.000000,18792.000000,4643.000000,44654.000000
46704.000000,18760.000000,4588.000000,44598.000000
46683.000000,18737.000000,4539.000000,44563.000000
46671.000000,18724.000000,4489.000000,44541.000000
46668.000000,18720.000000,4429.000000,44533.000000
46679.000000,18728.000000,4356.000000,44549.000000
46702.000000,18748.000000,4278.000000,44587.000000
46733.000000,18775.000000,4202.000000,44629.000000
46767.000000,18808.000000,4127.000000,44661.000000
46805.000000,18846.000000,4051.000000,44691.000000
46848.000000,18887.000000,3971.000000,44736.000000
46893.000000,18930.000000,3887.000000,44788.000000
46935.000000,18968.000000,3800.000000,44830.000000
46969.000000,19004.000000,3715.000000,44866.000000
46997.000000,19039.000000,3634.000000,44904.000000
47021.000000,19072.000000,3555.000000,44941.000000
47042.000000,19099.000000,3475.000000,44975.000000
47063.000000,19117.000000,3396.000000,45007.000000
47082.000000,19129.000000,3319.000000,45038.000000
47095.000000,19137.000000,3239.000000,45062.000000
47099.000000,19138.000000,3154.000000,45076.000000
47090.000000,19129.000000,3069.000000,45075.000000
47067.000000,19108.000000,2987.000000,45048.000000
47029.000000,19076.000000,2901.000000,44995.000000
46980.000000,19034.000000,2809.000000,44931.000000
46923.000000,18984.000000,2720.000000,44861.000000
46861.000000,18925.000000,2633.000000,44785.000000
46790.000000,18856.000000,2545.000000,44699.000000
46715.000000,18782.000000,2455.000000,44600.000000
46640.000000,18710.000000,2364.000000,44491.000000
46565.000000,18637.000000,2273.000000,44372.000000
46484.000000,18559.000000,2180.000000,44248.000000
46403.000000,18479.000000,2086.000000,44123.000000
46322.000000,18399.000000,1996.000000,44002.000000
46241.000000,18321.000000,1910.000000,43885.000000
46157.000000,18245.000000,1822.000000,43773.000000
46072.000000,18171.000000,1731.000000,43671.000000
45987.000000,18100.000000,1640.000000,43575.000000
45900.000000,18029.000000,1549.000000,43478.000000
45811.000000,17956.000000,1457.000000,43373.000000
45722.000000,17881.000000,1362.000000,43262.000000
45636.000000,17807.000000,1265.000000,43152.000000
45552.000000,17731.000000,1171.000000,43046.000000
45470.000000,17654.000000,1076.000000,42946.000000
45390.000000,17577.000000,980.000000,42850.000000
45313.000000,17499.000000,891.000000,42746.000000
45235.000000,17417.000000,811.000000,42632.000000
45153.000000,17336.000000,746.000000,42520.000000
45072.000000,17259.000000,708.000000,42417.000000
44992.000000,17188.000000,715.000000,42319.000000
44911.000000,17118.000000,774.000000,42217.000000
44828.000000,17046.000000,895.000000,42110.000000
44746.000000,16976.000000,1092.000000,42005.000000
44671.000000,16910.000000,1377.000000,41907.000000
44602.000000,16849.000000,1745.000000,41818.000000
44537.000000,16790.000000,2190.000000,41737.000000
44477.000000,16732.000000,2707.000000,41658.000000
44421.000000,16678.000000,3293.000000,41583.000000
44369.000000,16627.000000,3936.000000,41515.000000
44320.000000,16580.000000,4614.000000,41457.000000
44275.000000,16538.000000,5310.000000,41404.000000
44230.000000,16500.000000,6009.000000,41349.000000
44186.000000,16461.000000,6692.000000,41292.000000
44146.000000,16425.000000,7342.000000,41234.000000
44107.000000,16392.000000,7950.000000,41177.000000
44070.000000,16364.000000,8513.000000,41119.000000
44035.000000,16335.000000,9023.000000,41057.000000
43999.000000,16304.000000,9471.000000,40992.000000
43962.000000,16273.000000,9859.000000,40933.000000
43926.000000,16243.000000,10192.000000,40881.000000
43889.000000,16213.000000,10474.000000,40832.000000
43852.000000,16182.000000,10705.000000,40788.000000
43816.000000,16155.000000,10882.000000,40743.000000
43778.000000,16125.000000,11007.000000,40690.000000
43737.000000,16089.000000,11089.000000,40636.000000
43696.000000,16051.000000,11134.000000,40587.000000
43657.000000,16013.000000,11142.000000,40538.000000
43619.000000,15977.000000,11121.000000,40489.000000
43580.000000,15943.000000,11079.000000,40443.000000
43540.000000,15913.000000,11020.000000,40406.000000
43501.000000,15887.000000,10947.000000,40370.000000
43459.000000,15860.000000,10867.000000,40326.000000
43414.000000,15826.000000,10784.000000,40277.000000
43367.000000,15785.000000,10697.000000,40230.000000
43322.000000,15744.000000,10607.000000,40181.000000
43276.000000,15700.000000,10518.000000,40121.000000
43225.000000,15651.000000,10433.000000,40052.000000
43170.000000,15601.000000,10353.000000,39982.000000
43110.000000,15550.000000,10278.000000,39910.000000
43046.000000,15496.000000,10208.000000,39834.000000
42980.000000,15442.000000,10140.000000,39757.000000
42915.000000,15388.000000,10069.000000,39685.000000
42850.000000,15334.000000,9989.000000,39610.000000
42784.000000,15280.000000,9898.000000,39531.000000
42726.000000,15229.000000,9793.000000,39458.000000
42682.000000,15184.000000,9680.000000,39400.000000
42652.000000,15150.000000,9561.000000,39354.000000
42638.000000,15135.000000,9436.000000,39325.000000
42657.000000,15153.000000,9307.000000,39333.000000
42719.000000,15211.000000,9176.000000,39396.000000
42829.000000,15315.000000,9049.000000,39519.000000
42991.000000,15464.000000,8926.000000,39702.000000
43208.000000,15659.000000,8810.000000,39951.000000
43478.000000,15904.000000,8708.000000,40269.000000
43795.000000,16195.000000,8626.000000,40650.000000
44151.000000,16528.000000,8563.000000,41083.000000
44543.000000,16892.000000,8518.000000,41562.000000
44961.000000,17274.000000,8495.000000,42078.000000
45388.000000,17665.000000,8497.000000,42613.000000
45813.000000,18054.000000,8514.000000,43161.000000
46229.000000,18436.000000,8542.000000,43716.000000
46630.000000,18807.000000,8583.000000,44264.000000
47009.000000,19163.000000,8633.000000,44796.000000
47355.000000,19490.000000,8686.000000,45297.000000
47667.000000,19781.000000,8739.000000,45756.000000
47946.000000,20041.000000,8791.000000,46173.000000
48191.000000,20269.000000,8844.000000,46541.000000
48399.000000,20463.000000,8893.000000,46857.000000
48573.000000,20624.000000,8938.000000,47123.000000
48717.000000,20754.000000,8981.000000,47337.000000
48830.000000,20853.000000,9022.000000,47500.000000
48914.000000,20922.000000,9053.000000,47630.000000
48972.000000,20967.000000,9071.000000,47737.000000
49010.000000,20997.000000,9074.000000,47809.000000
49024.000000,21010.000000,9062.000000,47839.000000
49013.000000,21001.000000,9034.000000,47837.000000
48985.000000,20978.000000,8993.000000,47816.000000
48946.000000,20946.000000,8943.000000,47776.000000
48898.000000,20904.000000,8880.000000,47716.000000
48844.000000,20856.000000,8804.000000,47646.000000
48789.000000,20806.000000,8724.000000,47575.000000
48729.000000,20754.000000,8642.000000,47504.000000
48665.000000,20702.000000,8552.000000,47431.000000
48604.000000,20654.000000,8447.000000,47357.000000
48548.000000,20612.000000,8329.000000,47285.000000
48498.000000,20570.000000,8203.000000,47212.000000
48451.000000,20524.000000,8077.000000,47143.000000
48403.000000,20474.000000,7948.000000,47083.000000
48355.000000,20423.000000,7818.000000,47031.000000
48303.000000,20372.000000,7686.000000,46979.000000
48242.000000,20317.000000,7550.000000,46916.000000
48169.000000,20253.000000,7412.000000,46843.000000
48091.000000,20181.000000,7274.000000,46762.000000
48008.000000,20100.000000,7134.000000,46668.000000
47921.000000,20016.000000,6992.000000,46560.000000
47829.000000,19929.000000,6852.000000,46440.000000
47736.000000,19842.000000,6720.000000,46309.000000
47647.000000,19758.000000,6596.000000,46173.000000
47563.000000,19680.000000,6477.000000,46046.000000
47484.000000,19611.000000,6357.000000,45933.000000
47413.000000,19551.000000,6239.000000,45830.000000
47352.000000,19499.000000,6126.000000,45737.000000
47302.000000,19457.000000,6012.000000,45656.000000
47263.000000,19426.000000,5898.000000,45588.000000
47237.000000,19406.000000,5791.000000,45532.000000
47220.000000,19396.000000,5692.000000,45489.000000
47211.000000,19392.000000,5594.000000,45462.000000
47213.000000,19396.000000,5498.000000,45458.000000
47225.000000,19409.000000,5410.000000,45479.000000
47248.000000,19434.000000,5330.000000,45514.000000
47282.000000,19472.000000,5247.000000,45557.000000
47325.000000,19519.000000,5161.000000,45609.000000
47374.000000,19569.000000,5078.000000,45656.000000
47421.000000,19619.000000,5001.000000,45696.000000
47466.000000,19667.000000,4927.000000,45742.000000
47507.000000,19713.000000,4855.000000,45792.000000
47545.000000,19754.000000,4789.000000,45834.000000
47578.000000,19789.000000,4723.000000,45867.000000
47606.000000,19819.000000,4652.000000,45895.000000
47627.000000,19841.000000,4579.000000,45919.000000
47637.000000,19854.000000,4509.000000,45934.000000
47635.000000,19856.000000,4437.000000,45936.000000
47626.000000,19848.000000,4365.000000,45933.000000
47612.000000,19835.000000,4295.000000,45929.000000
47588.000000,19813.000000,4231.000000,45909.000000
47551.000000,19780.000000,4173.000000,45864.000000
47507.000000,19738.000000,4119.000000,45806.000000
47458.000000,19688.000000,4070.000000,45741.000000
47404.000000,19632.000000,4029.000000,45669.000000
47343.000000,19568.000000,3989.000000,45588.000000
47276.000000,19497.000000,3940.000000,45496.000000
47203.000000,19421.000000,3884.000000,45395.000000
47122.000000,19342.000000,3825.000000,45284.000000
47030.000000,19260.000000,3768.000000,45159.000000
46931.000000,19174.000000,3709.000000,45025.000000
46833.000000,19085.000000,3645.000000,44892.000000
46741.000000,18998.000000,3579.000000,44765.000000
46656.000000,18914.000000,3514.000000,44646.000000
46574.000000,18836.000000,3453.000000,44537.000000
46494.000000,18762.000000,3394.000000,44435.000000
46413.000000,18689.000000,3334.000000,44336.000000
46330.000000,18616.000000,3271.000000,44238.000000
46247.000000,18546.000000,3204.000000,44141.000000
46164.000000,18477.000000,3132.000000,44041.000000
46078.000000,18407.000000,3063.000000,43936.000000
45990.000000,18332.000000,2991.000000,43823.000000
45898.000000,18252.000000,2911.000000,43701.000000
45807.000000,18171.000000,2827.000000,43576.000000
45716.000000,18092.000000,2740.000000,43448.000000
45627.000000,18010.000000,2649.000000,43319.000000
45542.000000,17929.000000,2554.000000,43194.000000
45464.000000,17854.000000,2457.000000,43078.000000
45390.000000,17778.000000,2353.000000,42969.000000
45314.000000,17699.000000,2241.000000,42866.000000
45242.000000,17625.000000,2127.000000,42769.000000
45177.000000,17561.000000,2014.000000,42681.000000
45117.000000,17505.000000,1901.000000,42598.000000
45061.000000,17452.000000,1791.000000,42514.000000
45005.000000,17398.000000,1687.000000,42428.000000
44950.000000,17347.000000,1596.000000,42343.000000
44894.000000,17298.000000,1522.000000,42263.000000
44840.000000,17253.000000,1479.000000,42190.000000
44788.000000,17213.000000,1485.000000,42127.000000
44736.000000,17175.000000,1554.000000,42068.000000
44681.000000,17135.000000,1695.000000,42006.000000
44626.000000,17092.000000,1912.000000,41942.000000
44579.000000,17054.000000,2211.000000,41881.000000
44543.000000,17021.000000,2591.000000,41828.000000
44513.000000,16992.000000,3046.000000,41778.000000
44485.000000,16963.000000,3562.000000,41729.000000
44459.000000,16936.000000,4133.000000,41686.000000
44434.000000,16911.000000,4745.000000,41648.000000
44408.000000,16886.000000,5384.000000,41614.000000
44383.000000,16858.000000,6034.000000,41579.000000
44355.000000,16829.000000,6684.000000,41538.000000
44321.000000,16798.000000,7320.000000,41485.000000
44285.000000,16764.000000,7925.000000,41419.000000
44251.000000,16727.000000,8487.000000,41343.000000
44218.000000,16689.000000,8997.000000,41264.000000
44186.000000,16652.000000,9453.000000,41182.000000
44153.000000,16617.000000,9857.000000,41105.000000
44124.000000,16584.000000,10210.000000,41045.000000
44098.000000,16554.000000,10509.000000,40998.000000
44072.000000,16525.000000,10752.000000,40953.000000
44043.000000,16495.000000,10943.000000,40904.000000
44011.000000,16459.000000,11086.000000,40853.000000
43977.000000,16423.000000,11185.000000,40802.000000
43944.000000,16390.000000,11247.000000,40754.000000
43908.000000,16357.000000,11273.000000,40708.000000
43866.000000,16319.000000,11263.000000,40657.000000
43826.000000,16283.000000,11228.000000,40605.000000
43790.000000,16247.000000,11176.000000,40549.000000
43751.000000,16209.000000,11116.000000,40482.000000
43707.000000,16168.000000,11052.000000,40411.000000
43661.000000,16129.000000,10982.000000,40343.000000
43616.000000,16093.000000,10909.000000,40279.000000
43569.000000,16058.000000,10836.000000,40209.000000
43520.000000,16021.000000,10762.000000,40122.000000
43472.000000,15982.000000,10685.000000,40032.000000
43421.000000,15941.000000,10610.000000,39954.000000
43367.000000,15896.000000,10540.000000,39883.000000
43312.000000,15848.000000,10470.000000,39813.000000
43258.000000,15802.000000,10397.000000,39740.000000
43210.000000,15760.000000,10318.000000,39669.000000
43178.000000,15731.000000,10233.000000,39615.000000
43173.000000,15726.000000,10138.000000,39596.000000
43205.000000,15755.000000,10032.000000,39625.000000
43280.000000,15822.000000,9919.000000,39704.000000
43402.000000,15933.000000,9802.000000,39838.000000
43583.000000,16096.000000,9681.000000,40042.000000
43827.000000,16315.000000,9564.000000,40325.000000
44128.000000,16589.000000,9448.000000,40680.000000
44480.000000,16911.000000,9329.000000,41105.000000
44873.000000,17276.000000,9211.000000,41599.000000
45300.000000,17673.000000,9103.000000,42147.000000
45751.000000,18089.000000,9003.000000,42734.000000
46220.000000,18519.000000,8909.000000,43348.000000
46699.000000,18956.000000,8824.000000,43976.000000
47173.000000,19386.000000,8758.000000,44592.000000
47628.000000,19797.000000,8712.000000,45184.000000
48055.000000,20183.000000,8684.000000,45754.000000
48454.000000,20545.000000,8674.000000,46301.000000
48821.000000,20881.000000,8677.000000,46805.000000
49149.000000,21183.000000,8691.000000,47255.000000
49437.000000,21450.000000,8711.000000,47660.000000
49685.000000,21683.000000,8739.000000,48013.000000
49897.000000,21882.000000,8776.000000,48311.000000
50076.000000,22050.000000,8816.000000,48575.000000
50226.000000,22190.000000,8860.000000,48824.000000
50346.000000,22301.000000,8907.000000,49039.000000
50432.000000,22381.000000,8952.000000,49196.000000
50491.000000,22436.000000,8988.000000,49308.000000
50526.000000,22468.000000,9015.000000,49385.000000
50545.000000,22484.000000,9034.000000,49431.000000
50553.000000,22490.000000,9042.000000,49452.000000
50552.000000,22489.000000,9037.000000,49456.000000
50541.000000,22479.000000,9018.000000,49446.000000
50518.000000,22460.000000,8986.000000,49417.000000
50485.000000,22431.000000,8939.000000,49372.000000
50446.000000,22395.000000,8879.000000,49325.000000
50411.000000,22358.000000,8804.000000,49285.000000
50381.000000,22323.000000,8715.000000,49245.000000
50351.000000,22290.000000,8620.000000,49193.000000
50317.000000,22257.000000,8516.000000,49137.000000
50279.000000,22223.000000,8405.000000,49081.000000
50239.000000,22190.000000,8285.000000,49021.000000
50200.000000,22158.000000,8154.000000,48964.000000
50164.000000,22124.000000,8011.000000,48920.000000
50125.000000,22085.000000,7863.000000,48874.000000
50082.000000,22043.000000,7714.000000,48815.000000
50035.000000,21997.000000,7563.000000,48749.000000
49982.000000,21944.000000,7413.000000,48685.000000
49921.000000,21884.000000,7262.000000,48614.000000
49854.000000,21818.000000,7114.000000,48525.000000
49778.000000,21747.000000,6972.000000,48424.000000
49692.000000,21670.000000,6831.000000,48320.000000
49601.000000,21591.000000,6690.000000,48215.000000
49508.000000,21510.000000,6552.000000,48102.000000
49416.000000,21430.000000,6417.000000,47979.000000
49325.000000,21350.000000,6286.000000,47851.000000
49241.000000,21276.000000,6163.000000,47730.000000
49169.000000,21212.000000,6047.000000,47628.000000
49111.000000,21156.000000,5929.000000,47547.000000
49062.000000,21109.000000,5807.000000,47482.000000
49023.000000,21072.000000,5687.000000,47429.000000
48995.000000,21045.000000,5573.000000,47380.000000
48977.000000,21027.000000,5463.000000,47340.000000
48967.000000,21018.000000,5354.000000,47322.000000
48970.000000,21018.000000,5248.000000,47327.000000
48984.000000,21028.000000,5147.000000,47345.000000
49000.000000,21043.000000,5048.000000,47369.000000
49016.000000,21058.000000,4949.000000,47396.000000
49031.000000,21074.000000,4857.000000,47427.000000
49047.000000,21089.000000,4774.000000,47459.000000
49062.000000,21100.000000,4693.000000,47493.000000
49074.000000,21105.000000,4611.000000,47523.000000
49084.000000,21106.000000,4533.000000,47546.000000
49094.000000,21107.000000,4465.000000,47563.000000
49100.000000,21107.000000,4401.000000,47575.000000
49100.000000,21103.000000,4334.000000,47581.000000
49093.000000,21098.000000,4270.000000,47578.000000
49077.000000,21090.000000,4207.000000,47559.000000
49053.000000,21077.000000,4138.000000,47533.000000
49021.000000,21056.000000,4065.000000,47504.000000
48979.000000,21022.000000,3995.000000,47457.000000
48922.000000,20972.000000,3932.000000,47375.000000
48848.000000,20905.000000,3872.000000,47264.000000
48763.000000,20830.000000,3813.000000,47149.000000
48671.000000,20748.000000,3756.000000,47026.000000
48572.000000,20657.000000,3700.000000,46891.000000
48473.000000,20562.000000,3643.000000,46759.000000
48379.000000,20467.000000,3589.000000,46628.000000
48285.000000,20374.000000,3539.000000,46502.000000
48186.000000,20278.000000,3491.000000,46381.000000
48085.000000,20182.000000,3446.000000,46268.000000
47983.000000,20089.000000,3404.000000,46163.000000
47885.000000,19999.000000,3363.000000,46060.000000
47793.000000,19913.000000,3320.000000,45958.000000
47707.000000,19830.000000,3274.000000,45853.000000
47624.000000,19748.000000,3223.000000,45744.000000
47542.000000,19669.000000,3168.000000,45637.000000
47459.000000,19593.000000,3111.000000,45528.000000
47375.000000,19519.000000,3047.000000,45410.000000
47289.000000,19445.000000,2978.000000,45281.000000
47200.000000,19370.000000,2909.000000,45147.000000
47107.000000,19288.000000,2841.000000,45012.000000
47012.000000,19204.000000,2770.000000,44873.000000
46919.000000,19120.000000,2697.000000,44732.000000
46826.000000,19039.000000,2623.000000,44594.000000
46735.000000,18959.000000,2544.000000,44463.000000
46644.000000,18884.000000,2454.000000,44341.000000
46558.000000,18815.000000,2356.000000,44232.000000
46477.000000,18747.000000,2255.000000,44130.000000
46402.000000,18677.000000,2152.000000,44028.000000
46338.000000,18613.000000,2048.000000,43933.000000
46283.000000,18553.000000,1947.000000,43854.000000
46227.000000,18492.000000,1849.000000,43784.000000
46167.000000,18434.000000,1753.000000,43718.000000
46105.000000,18381.000000,1654.000000,43649.000000
46044.000000,18331.000000,1564.000000,43571.000000
45982.000000,18278.000000,1491.000000,43485.000000
45917.000000,18217.000000,1443.000000,43395.000000
45851.000000,18152.000000,1429.000000,43308.000000
45786.000000,18091.000000,1470.000000,43224.000000
45725.000000,18036.000000,1580.000000,43139.000000
45668.000000,17985.000000,1768.000000,43054.000000
45617.000000,17940.000000,2038.000000,42973.000000
45572.000000,17901.000000,2393.000000,42894.000000
45531.000000,17860.000000,2829.000000,42823.000000
45489.000000,17816.000000,3336.000000,42760.000000
45444.000000,17771.000000,3904.000000,42703.000000
45398.000000,17727.000000,4524.000000,42647.000000
45350.000000,17685.000000,5185.000000,42587.000000
45303.000000,17643.000000,5873.000000,42528.000000
45256.000000,17602.000000,6569.000000,42467.000000
45207.000000,17562.000000,7257.000000,42402.000000
45155.000000,17520.000000,7921.000000,42340.000000
45105.000000,17481.000000,8545.000000,42284.000000
45057.000000,17446.000000,9117.000000,42226.000000
45011.000000,17410.000000,9637.000000,42159.000000
44964.000000,17370.000000,10104.000000,42081.000000
44919.000000,17326.000000,10513.000000,42004.000000
44874.000000,17281.000000,10865.000000,41931.000000
44825.000000,17231.000000,11163.000000,41859.000000
44771.000000,17177.000000,11412.000000,41789.000000
44716.000000,17123.000000,11616.000000,41727.000000
44663.000000,17072.000000,11777.000000,41669.000000
44612.000000,17027.000000,11900.000000,41610.000000
44561.000000,16984.000000,11986.000000,41548.000000
44513.000000,16944.000000,12037.000000,41495.000000
44471.000000,16904.000000,12057.000000,41448.000000
44431.000000,16864.000000,12051.000000,41397.000000
44387.000000,16821.000000,12027.000000,41339.000000
44335.000000,16774.000000,11991.000000,41276.000000
44276.000000,16721.000000,11946.000000,41209.000000
44215.000000,16668.000000,11896.000000,41136.000000
44154.000000,16615.000000,11843.000000,41057.000000
44094.000000,16562.000000,11789.000000,40974.000000
44036.000000,16509.000000,11732.000000,40887.000000
43976.000000,16455.000000,11673.000000,40799.000000
43916.000000,16399.000000,11616.000000,40713.000000
43850.000000,16340.000000,11559.000000,40626.000000
43779.000000,16280.000000,11503.000000,40537.000000
43706.000000,16218.000000,11451.000000,40444.000000
43632.000000,16150.000000,11399.000000,40351.000000
43559.000000,16076.000000,11343.000000,40263.000000
43485.000000,16004.000000,11276.000000,40171.000000
43408.000000,15936.000000,11194.000000,40069.000000
43329.000000,15869.000000,11100.000000,39968.000000
43251.000000,15802.000000,10998.000000,39875.000000
43177.000000,15737.000000,10891.000000,39791.000000
43107.000000,15671.000000,10782.000000,39711.000000
43041.000000,15602.000000,10669.000000,39633.000000
42984.000000,15538.000000,10552.000000,39561.000000
42936.000000,15487.000000,10428.000000,39497.000000
42904.000000,15453.000000,10306.000000,39450.000000
42896.000000,15442.000000,10194.000000,39433.000000
42926.000000,15465.000000,10094.000000,39462.000000
43002.000000,15534.000000,10005.000000,39543.000000
43130.000000,15653.000000,9928.000000,39683.000000
43316.000000,15825.000000,9869.000000,39896.000000
43564.000000,16056.000000,9832.000000,40194.000000
43872.000000,16346.000000,9817.000000,40575.000000
44236.000000,16689.000000,9820.000000,41025.000000
44648.000000,17071.000000,9832.000000,41535.000000
45097.000000,17484.000000,9852.000000,42098.000000
45574.000000,17921.000000,9883.000000,42695.000000
46068.000000,18371.000000,9921.000000,43312.000000
46564.000000,18828.000000,9957.000000,43947.000000
47057.000000,19285.000000,9994.000000,44591.000000
47535.000000,19729.000000,10033.000000,45223.000000
47984.000000,20148.000000,10072.000000,45823.000000
48398.000000,20533.000000,10107.000000,46380.000000
48775.000000,20886.000000,10136.000000,46896.000000
49114.000000,21205.000000,10161.000000,47377.000000
49417.000000,21487.000000,10180.000000,47823.000000
49684.000000,21733.000000,10192.000000,48230.000000
49914.000000,21941.000000,10196.000000,48588.000000
50104.000000,22114.000000,10190.000000,48882.000000
50257.000000,22252.000000,10173.000000,49118.000000
50377.000000,22358.000000,10147.000000,49308.000000
50467.000000,22433.000000,10111.000000,49448.000000
50527.000000,22481.000000,10064.000000,49541.000000
50557.000000,22503.000000,10008.000000,49597.000000
50561.000000,22503.000000,9940.000000,49623.000000
50554.000000,22495.000000,9859.000000,49630.000000
50541.000000,22483.000000,9771.000000,49625.000000
50520.000000,22463.000000,9674.000000,49604.000000
50492.000000,22436.000000,9572.000000,49562.000000
50460.000000,22407.000000,9470.000000,49505.000000
50426.000000,22378.000000,9365.000000,49444.000000
50387.000000,22348.000000,9249.000000,49386.000000
50346.000000,22315.000000,9125.000000,49335.000000
50308.000000,22283.000000,9001.000000,49295.000000
50271.000000,22252.000000,8878.000000,49260.000000
50238.000000,22225.000000,8753.000000,49233.000000
50208.000000,22200.000000,8624.000000,49208.000000
50181.000000,22177.000000,8491.000000,49179.000000
50151.000000,22151.000000,8356.000000,49138.000000
50114.000000,22116.000000,8220.000000,49086.000000
50070.000000,22074.000000,8087.000000,49027.000000
50019.000000,22026.000000,7962.000000,48962.000000
49962.000000,21972.000000,7844.000000,48897.000000
49901.000000,21911.000000,7726.000000,48833.000000
49835.000000,21844.000000,7607.000000,48765.000000
49764.000000,21773.000000,7489.000000,48685.000000
49687.000000,21695.000000,7371.000000,48586.000000
49603.000000,21613.000000,7250.000000,48473.000000
49515.000000,21530.000000,7133.000000,48350.000000
49427.000000,21449.000000,7023.000000,48219.000000
49341.000000,21369.000000,6915.000000,48087.000000
49258.000000,21293.000000,6808.000000,47965.000000
49184.000000,21227.000000,6703.000000,47861.000000
49118.000000,21169.000000,6607.000000,47773.000000
49063.000000,21119.000000,6523.000000,47704.000000
49022.000000,21078.000000,6442.000000,47654.000000
48993.000000,21048.000000,6361.000000,47624.000000
48975.000000,21032.000000,6280.000000,47608.000000
48971.000000,21027.000000,6195.000000,47600.000000
48978.000000,21032.000000,6105.000000,47602.000000
48996.000000,21047.000000,6013.000000,47620.000000
49022.000000,21071.000000,5921.000000,47645.000000
49052.000000,21100.000000,5832.000000,47679.000000
49083.000000,21133.000000,5745.000000,47726.000000
49110.000000,21165.000000,5665.000000,47775.000000
49130.000000,21191.000000,5593.000000,47816.000000
49149.000000,21213.000000,5525.000000,47845.000000
49168.000000,21237.000000,5461.000000,47864.000000
49188.000000,21260.000000,5400.000000,47872.000000
49202.000000,21277.000000,5340.000000,47868.000000
49209.000000,21286.000000,5275.000000,47859.000000
49207.000000,21285.000000,5205.000000,47844.000000
49195.000000,21271.000000,5136.000000,47816.000000
49174.000000,21243.000000,5070.000000,47770.000000
49150.000000,21208.000000,5006.000000,47716.000000
49120.000000,21169.000000,4941.000000,47656.000000
49082.000000,21125.000000,4875.000000,47583.000000
49031.000000,21073.000000,4806.000000,47503.000000
48969.000000,21014.000000,4735.000000,47425.000000
48895.000000,20950.000000,4659.000000,47345.000000
48811.000000,20878.000000,4575.000000,47250.000000
48717.000000,20795.000000,4491.000000,47141.000000
48617.000000,20706.000000,4409.000000,47027.000000
48519.000000,20618.000000,4330.000000,46914.000000
48421.000000,20526.000000,4254.000000,46796.000000
48320.000000,20427.000000,4177.000000,46668.000000
48217.000000,20329.000000,4096.000000,46537.000000
48119.000000,20235.000000,4012.000000,46407.000000
48022.000000,20143.000000,3928.000000,46277.000000
47921.000000,20050.000000,3847.000000,46151.000000
47823.000000,19959.000000,3768.000000,46032.000000
47730.000000,19872.000000,3687.000000,45923.000000
47640.000000,19787.000000,3604.000000,45818.000000
47550.000000,19705.000000,3519.000000,45714.000000
47460.000000,19622.000000,3434.000000,45609.000000
47367.000000,19541.000000,3350.000000,45492.000000
47273.000000,19457.000000,3262.000000,45364.000000
47180.000000,19370.000000,3171.000000,45231.000000
47090.000000,19284.000000,3074.000000,45087.000000
47005.000000,19199.000000,2978.000000,44936.000000
46921.000000,19116.000000,2883.000000,44795.000000
46838.000000,19035.000000,2790.000000,44660.000000
46753.000000,18955.000000,2695.000000,44528.000000
46670.000000,18877.000000,2598.000000,44403.000000
46588.000000,18801.000000,2503.000000,44286.000000
46508.000000,18727.000000,2405.000000,44175.000000
46432.000000,18658.000000,2298.000000,44073.000000
46358.000000,18591.000000,2187.000000,43978.000000
46282.000000,18525.000000,2080.000000,43889.000000
46208.000000,18462.000000,1979.000000,43810.000000
46138.000000,18402.000000,1885.000000,43740.000000
46072.000000,18344.000000,1810.000000,43672.000000
46009.000000,18285.000000,1768.000000,43607.000000
45947.000000,18229.000000,1768.000000,43546.000000
45888.000000,18179.000000,1824.000000,43478.000000
45833.000000,18131.000000,1953.000000,43401.000000
45780.000000,18087.000000,2163.000000,43326.000000
45728.000000,18044.000000,2457.000000,43250.000000
45677.000000,18000.000000,2837.000000,43170.000000
45629.000000,17956.000000,3305.000000,43090.000000
45583.000000,17908.000000,3852.000000,43019.000000
45536.000000,17860.000000,4464.000000,42948.000000
45488.000000,17816.000000,5133.000000,42868.000000
45436.000000,17775.000000,5847.000000,42786.000000
45381.000000,17731.000000,6585.000000,42712.000000
45325.000000,17682.000000,7325.000000,42642.000000
45271.000000,17634.000000,8050.000000,42572.000000
45219.000000,17586.000000,8747.000000,42506.000000
45165.000000,17535.000000,9405.000000,42445.000000
45113.000000,17485.000000,10015.000000,42385.000000
45066.000000,17442.000000,10571.000000,42323.000000
45021.000000,17402.000000,11074.000000,42256.000000
44977.000000,17360.000000,11526.000000,42188.000000
44932.000000,17317.000000,11924.000000,42129.000000
44885.000000,17277.000000,12266.000000,42077.000000
44838.000000,17239.000000,12553.000000,42022.000000
44786.000000,17194.000000,12787.000000,41962.000000
44731.000000,17141.000000,12972.000000,41899.000000
44672.000000,17086.000000,13114.000000,41834.000000
44613.000000,17033.000000,13220.000000,41771.000000
44554.000000,16979.000000,13294.000000,41707.000000
44492.000000,16922.000000,13339.000000,41639.000000
44428.000000,16863.000000,13357.000000,41566.000000
44360.000000,16800.000000,13353.000000,41491.000000
44289.000000,16736.000000,13338.000000,41409.000000
44216.000000,16672.000000,13312.000000,41315.000000
44144.000000,16611.000000,13271.000000,41216.000000
44072.000000,16551.000000,13222.000000,41123.000000
44000.000000,16487.000000,13171.000000,41027.000000
43927.000000,16422.000000,13118.000000,40918.000000
43852.000000,16358.000000,13064.000000,40799.000000
43774.000000,16296.000000,13008.000000,40680.000000
43697.000000,16230.000000,12953.000000,40574.000000
43622.000000,16162.000000,12899.000000,40483.000000
43546.000000,16095.000000,12847.000000,40397.000000
43473.000000,16027.000000,12793.000000,40309.000000
43404.000000,15958.000000,12737.000000,40221.000000
43337.000000,15890.000000,12676.000000,40140.000000
43268.000000,15822.000000,12606.000000,40065.000000
43198.000000,15754.000000,12526.000000,39989.000000
43128.000000,15688.000000,12437.000000,39913.000000
43060.000000,15627.000000,12338.000000,39837.000000
42994.000000,15567.000000,12223.000000,39760.000000
42930.000000,15508.000000,12101.000000,39678.000000
42864.000000,15449.000000,11982.000000,39591.000000
42800.000000,15389.000000,11863.000000,39509.000000
42739.000000,15333.000000,11744.000000,39430.000000
42681.000000,15277.000000,11624.000000,39347.000000
42620.000000,15219.000000,11507.000000,39261.000000
42556.000000,15157.000000,11395.000000,39180.000000
42484.000000,15092.000000,11293.000000,39104.000000
42408.000000,15025.000000,11206.000000,39023.000000
42332.000000,14959.000000,11137.000000,38929.000000
42258.000000,14894.000000,11085.000000,38834.000000
42183.000000,14826.000000,11051.000000,38744.000000
42110.000000,14759.000000,11034.000000,38656.000000
42044.000000,14697.000000,11033.000000,38573.000000
41988.000000,14645.000000,11045.000000,38498.000000
41949.000000,14611.000000,11070.000000,38439.000000
41939.000000,14603.000000,11106.000000,38409.000000
41969.000000,14631.000000,11146.000000,38427.000000
42044.000000,14705.000000,11186.000000,38505.000000
42169.000000,14828.000000,11226.000000,38647.000000
42350.000000,14996.000000,11264.000000,38856.000000
42594.000000,15218.000000,11293.000000,39141.000000
42904.000000,15497.000000,11314.000000,39500.000000
43273.000000,15826.000000,11328.000000,39925.000000
43692.000000,16199.000000,11334.000000,40414.000000
44153.000000,16614.000000,11329.000000,40966.000000
44644.000000,17061.000000,11311.000000,41567.000000
45149.000000,17523.000000,11285.000000,42203.000000
45653.000000,17987.000000,11249.000000,42855.000000
46150.000000,18444.000000,11201.000000,43507.000000
46630.000000,18890.000000,11140.000000,44145.000000
47085.000000,19310.000000,11067.000000,44759.000000
47506.000000,19697.000000,10978.000000,45343.000000
47887.000000,20049.000000,10871.000000,45879.000000
48226.000000,20363.000000,10752.000000,46355.000000
48520.000000,20635.000000,10626.000000,46770.000000
48771.000000,20864.000000,10497.000000,47138.000000
48986.000000,21057.000000,10364.000000,47469.000000
49167.000000,21217.000000,10229.000000,47750.000000
49310.000000,21341.000000,10091.000000,47972.000000
49417.000000,21433.000000,9950.000000,48149.000000
49494.000000,21497.000000,9804.000000,48288.000000
49544.000000,21541.000000,9652.000000,48389.000000
