660nm,730nm,850nm,940nm
17921.000000,41854.000000,24262.000000,30073.000000
17943.000000,41872.000000,24294.000000,30100.000000
17958.000000,41884.000000,24314.000000,30119.000000
17968.000000,41890.000000,24324.000000,30132.000000
17973.000000,41890.000000,24328.000000,30136.000000
17970.000000,41888.000000,24325.000000,30130.000000
17960.000000,41879.000000,24315.000000,30115.000000
17941.000000,41863.000000,24294.000000,30092.000000
17915.000000,41840.000000,24264.000000,30064.000000
17883.000000,41812.000000,24226.000000,30028.000000
17847.000000,41781.000000,24181.000000,29988.000000
17808.000000,41746.000000,24132.000000,29944.000000
17764.000000,41704.000000,24075.000000,29896.000000
17716.000000,41659.000000,24010.000000,29844.000000
17667.000000,41612.000000,23938.000000,29787.000000
17616.000000,41563.000000,23859.000000,29726.000000
17562.000000,41511.000000,23776.000000,29661.000000
17505.000000,41456.000000,23692.000000,29591.000000
17445.000000,41397.000000,23604.000000,29522.000000
17384.000000,41337.000000,23513.000000,29450.000000
17322.000000,41274.000000,23422.000000,29372.000000
17259.000000,41211.000000,23337.000000,29294.000000
17198.000000,41150.000000,23256.000000,29217.000000
17138.000000,41090.000000,23175.000000,29142.000000
17079.000000,41030.000000,23092.000000,29069.000000
17022.000000,40971.000000,23009.000000,28998.000000
16966.000000,40915.000000,22926.000000,28928.000000
16909.000000,40865.000000,22844.000000,28861.000000
16852.000000,40820.000000,22766.000000,28798.000000
16798.000000,40779.000000,22690.000000,28739.000000
16746.000000,40737.000000,22617.000000,28683.000000
16695.000000,40692.000000,22545.000000,28629.000000
16644.000000,40648.000000,22472.000000,28573.000000
16594.000000,40605.000000,22400.000000,28517.000000
16543.000000,40560.000000,22327.000000,28461.000000
16489.000000,40511.000000,22253.000000,28404.000000
16435.000000,40460.000000,22178.000000,28349.000000
16386.000000,40416.000000,22107.000000,28296.000000
16339.000000,40377.000000,22040.000000,28244.000000
16293.000000,40340.000000,21977.000000,28192.000000
16247.000000,40303.000000,21917.000000,28145.000000
16204.000000,40269.000000,21862.000000,28100.000000
16165.000000,40235.000000,21811.000000,28053.000000
16132.000000,40202.000000,21765.000000,28003.000000
16103.000000,40169.000000,21722.000000,27951.000000
16077.000000,40138.000000,21679.000000,27901.000000
16052.000000,40110.000000,21635.000000,27858.000000
16027.000000,40084.000000,21591.000000,27821.000000
16004.000000,40060.000000,21546.000000,27785.000000
15979.000000,40037.000000,21500.000000,27748.000000
15953.000000,40015.000000,21454.000000,27711.000000
15927.000000,39993.000000,21410.000000,27676.000000
15899.000000,39971.000000,21370.000000,27646.000000
15870.000000,39947.000000,21331.000000,27619.000000
15841.000000,39922.000000,21291.000000,27593.000000
15810.000000,39898.000000,21250.000000,27569.000000
15777.000000,39874.000000,21209.000000,27542.000000
15745.000000,39849.000000,21169.000000,27509.000000
15714.000000,39822.000000,21127.000000,27474.000000
15685.000000,39792.000000,21084.000000,27442.000000
15656.000000,39760.000000,21041.000000,27409.000000
15624.000000,39726.000000,20996.000000,27372.000000
15590.000000,39692.000000,20951.000000,27328.000000
15556.000000,39656.000000,20907.000000,27284.000000
15521.000000,39621.000000,20862.000000,27246.000000
15487.000000,39587.000000,20815.000000,27212.000000
15453.000000,39557.000000,20769.000000,27181.000000
15422.000000,39530.000000,20724.000000,27155.000000
15394.000000,39506.000000,20683.000000,27130.000000
15365.000000,39483.000000,20643.000000,27105.000000
15333.000000,39458.000000,20603.000000,27078.000000
15299.000000,39430.000000,20564.000000,27048.000000
15267.000000,39402.000000,20529.000000,27018.000000
15235.000000,39375.000000,20496.000000,26990.000000
15205.000000,39353.000000,20463.000000,26962.000000
15178.000000,39335.000000,20431.000000,26933.000000
15154.000000,39317.000000,20398.000000,26906.000000
15132.000000,39298.000000,20365.000000,26882.000000
15109.000000,39281.000000,20332.000000,26862.000000
15085.000000,39264.000000,20298.000000,26845.000000
15059.000000,39246.000000,20263.000000,26826.000000
15033.000000,39224.000000,20228.000000,26802.000000
15006.000000,39201.000000,20192.000000,26775.000000
14982.000000,39179.000000,20157.000000,26747.000000
14961.000000,39159.000000,20123.000000,26721.000000
14941.000000,39141.000000,20085.000000,26697.000000
14919.000000,39122.000000,20043.000000,26674.000000
14894.000000,39099.000000,19997.000000,26649.000000
14869.000000,39072.000000,19949.000000,26620.000000
14841.000000,39041.000000,19900.000000,26590.000000
14811.000000,39006.000000,19851.000000,26558.000000
14779.000000,38973.000000,19806.000000,26523.000000
14747.000000,38941.000000,19763.000000,26485.000000
14719.000000,38913.000000,19720.000000,26447.000000
14694.000000,38887.000000,19678.000000,26410.000000
14670.000000,38861.000000,19639.000000,26375.000000
14647.000000,38835.000000,19601.000000,26342.000000
14621.000000,38811.000000,19562.000000,26309.000000
14593.000000,38789.000000,19523.000000,26277.000000
14562.000000,38767.000000,19484.000000,26244.000000
14531.000000,38747.000000,19447.000000,26211.000000
14501.000000,38725.000000,19410.000000,26179.000000
14472.000000,38701.000000,19372.000000,26145.000000
14441.000000,38675.000000,19331.000000,26109.000000
14405.000000,38647.000000,19287.000000,26070.000000
14367.000000,38615.000000,19239.000000,26029.000000
14328.000000,38582.000000,19188.000000,25987.000000
14292.000000,38547.000000,19134.000000,25946.000000
14257.000000,38509.000000,19080.000000,25905.000000
14220.000000,38469.000000,19024.000000,25861.000000
14182.000000,38428.000000,18966.000000,25815.000000
14143.000000,38389.000000,18907.000000,25770.000000
14102.000000,38349.000000,18850.000000,25730.000000
14061.000000,38307.000000,18794.000000,25692.000000
14021.000000,38266.000000,18736.000000,25652.000000
13982.000000,38228.000000,18678.000000,25609.000000
13944.000000,38189.000000,18620.000000,25567.000000
13907.000000,38151.000000,18565.000000,25525.000000
13872.000000,38115.000000,18514.000000,25483.000000
13840.000000,38084.000000,18466.000000,25443.000000
13810.000000,38058.000000,18421.000000,25404.000000
13781.000000,38034.000000,18383.000000,25365.000000
13755.000000,38012.000000,18348.000000,25328.000000
13729.000000,37989.000000,18312.000000,25297.000000
13702.000000,37965.000000,18275.000000,25269.000000
13676.000000,37936.000000,18234.000000,25241.000000
13648.000000,37905.000000,18192.000000,25213.000000
13618.000000,37875.000000,18152.000000,25187.000000
13585.000000,37847.000000,18114.000000,25157.000000
13549.000000,37819.000000,18074.000000,25124.000000
13509.000000,37786.000000,18031.000000,25089.000000
13464.000000,37751.000000,17983.000000,25052.000000
13415.000000,37713.000000,17928.000000,25008.000000
13364.000000,37671.000000,17866.000000,24958.000000
13312.000000,37625.000000,17802.000000,24903.000000
13260.000000,37575.000000,17738.000000,24846.000000
13208.000000,37522.000000,17672.000000,24787.000000
13156.000000,37470.000000,17607.000000,24729.000000
13106.000000,37421.000000,17545.000000,24673.000000
13058.000000,37371.000000,17484.000000,24617.000000
13011.000000,37322.000000,17421.000000,24559.000000
12966.000000,37276.000000,17360.000000,24504.000000
12923.000000,37235.000000,17302.000000,24453.000000
12883.000000,37198.000000,17248.000000,24407.000000
12845.000000,37167.000000,17197.000000,24367.000000
12813.000000,37140.000000,17151.000000,24331.000000
12787.000000,37119.000000,17109.000000,24304.000000
12770.000000,37105.000000,17078.000000,24290.000000
12766.000000,37107.000000,17067.000000,24294.000000
12780.000000,37127.000000,17086.000000,24319.000000
12817.000000,37169.000000,17144.000000,24373.000000
12883.000000,37237.000000,17245.000000,24458.000000
12982.000000,37336.000000,17394.000000,24578.000000
13116.000000,37470.000000,17595.000000,24736.000000
13289.000000,37641.000000,17847.000000,24934.000000
13497.000000,37844.000000,18151.000000,25175.000000
13737.000000,38076.000000,18503.000000,25455.000000
14007.000000,38333.000000,18898.000000,25768.000000
14298.000000,38614.000000,19332.000000,26112.000000
14604.000000,38913.000000,19798.000000,26481.000000
14923.000000,39224.000000,20284.000000,26866.000000
15248.000000,39541.000000,20778.000000,27257.000000
15572.000000,39854.000000,21270.000000,27648.000000
15888.000000,40159.000000,21756.000000,28033.000000
16194.000000,40453.000000,22228.000000,28412.000000
16486.000000,40730.000000,22678.000000,28779.000000
16756.000000,40985.000000,23099.000000,29130.000000
17000.000000,41214.000000,23484.000000,29457.000000
17218.000000,41415.000000,23829.000000,29754.000000
17409.000000,41591.000000,24134.000000,30019.000000
17573.000000,41744.000000,24401.000000,30251.000000
17713.000000,41873.000000,24632.000000,30449.000000
17828.000000,41980.000000,24825.000000,30613.000000
17919.000000,42064.000000,24979.000000,30744.000000
17983.000000,42122.000000,25096.000000,30842.000000
18025.000000,42154.000000,25179.000000,30910.000000
18046.000000,42166.000000,25231.000000,30953.000000
18051.000000,42165.000000,25256.000000,30976.000000
18042.000000,42153.000000,25258.000000,30981.000000
18019.000000,42131.000000,25238.000000,30972.000000
17988.000000,42101.000000,25202.000000,30949.000000
17953.000000,42070.000000,25157.000000,30916.000000
17918.000000,42037.000000,25104.000000,30876.000000
17881.000000,42004.000000,25044.000000,30832.000000
17843.000000,41971.000000,24980.000000,30785.000000
17806.000000,41937.000000,24916.000000,30735.000000
17770.000000,41900.000000,24852.000000,30687.000000
17736.000000,41863.000000,24787.000000,30639.000000
17703.000000,41829.000000,24723.000000,30593.000000
17672.000000,41800.000000,24663.000000,30553.000000
17642.000000,41775.000000,24611.000000,30516.000000
17614.000000,41752.000000,24564.000000,30480.000000
17585.000000,41731.000000,24519.000000,30444.000000
17559.000000,41714.000000,24478.000000,30410.000000
17538.000000,41703.000000,24440.000000,30382.000000
17519.000000,41695.000000,24407.000000,30359.000000
17503.000000,41688.000000,24376.000000,30337.000000
17486.000000,41676.000000,24345.000000,30315.000000
17467.000000,41660.000000,24310.000000,30290.000000
17442.000000,41637.000000,24269.000000,30259.000000
17412.000000,41606.000000,24220.000000,30225.000000
17375.000000,41567.000000,24163.000000,30186.000000
17334.000000,41520.000000,24098.000000,30143.000000
17288.000000,41467.000000,24026.000000,30093.000000
17239.000000,41411.000000,23948.000000,30034.000000
17188.000000,41352.000000,23866.000000,29969.000000
17131.000000,41290.000000,23779.000000,29898.000000
17069.000000,41227.000000,23688.000000,29825.000000
17008.000000,41167.000000,23596.000000,29754.000000
16951.000000,41111.000000,23506.000000,29685.000000
16898.000000,41058.000000,23419.000000,29618.000000
16849.000000,41009.000000,23336.000000,29558.000000
16802.000000,40964.000000,23259.000000,29503.000000
16759.000000,40925.000000,23187.000000,29455.000000
16723.000000,40890.000000,23122.000000,29412.000000
16695.000000,40862.000000,23066.000000,29376.000000
16674.000000,40841.000000,23023.000000,29350.000000
16660.000000,40828.000000,22993.000000,29335.000000
16652.000000,40822.000000,22975.000000,29327.000000
16651.000000,40822.000000,22969.000000,29328.000000
16658.000000,40827.000000,22976.000000,29340.000000
16672.000000,40835.000000,22992.000000,29361.000000
16690.000000,40848.000000,23016.000000,29387.000000
16710.000000,40867.000000,23045.000000,29415.000000
16734.000000,40891.000000,23078.000000,29445.000000
16759.000000,40916.000000,23113.000000,29476.000000
16785.000000,40941.000000,23149.000000,29509.000000
16809.000000,40962.000000,23187.000000,29539.000000
16831.000000,40979.000000,23225.000000,29567.000000
16851.000000,40994.000000,23259.000000,29592.000000
16870.000000,41008.000000,23289.000000,29612.000000
16886.000000,41020.000000,23314.000000,29625.000000
16898.000000,41029.000000,23335.000000,29632.000000
16903.000000,41032.000000,23346.000000,29631.000000
16903.000000,41028.000000,23347.000000,29623.000000
16897.000000,41022.000000,23341.000000,29611.000000
16884.000000,41014.000000,23331.000000,29595.000000
16864.000000,41002.000000,23314.000000,29575.000000
16837.000000,40981.000000,23286.000000,29548.000000
16804.000000,40954.000000,23250.000000,29516.000000
16766.000000,40924.000000,23205.000000,29478.000000
16721.000000,40891.000000,23151.000000,29434.000000
16673.000000,40853.000000,23089.000000,29383.000000
16624.000000,40812.000000,23022.000000,29327.000000
16574.000000,40769.000000,22952.000000,29265.000000
16523.000000,40723.000000,22879.000000,29200.000000
16471.000000,40678.000000,22803.000000,29134.000000
16419.000000,40632.000000,22728.000000,29069.000000
16368.000000,40584.000000,22653.000000,29006.000000
16318.000000,40537.000000,22580.000000,28944.000000
16270.000000,40489.000000,22506.000000,28884.000000
16223.000000,40443.000000,22433.000000,28823.000000
16177.000000,40397.000000,22362.000000,28763.000000
16130.000000,40352.000000,22291.000000,28703.000000
16082.000000,40307.000000,22221.000000,28645.000000
16035.000000,40263.000000,22152.000000,28590.000000
15989.000000,40219.000000,22083.000000,28538.000000
15941.000000,40173.000000,22007.000000,28486.000000
15891.000000,40126.000000,21924.000000,28432.000000
15844.000000,40079.000000,21837.000000,28377.000000
15800.000000,40031.000000,21751.000000,28320.000000
15758.000000,39983.000000,21669.000000,28261.000000
15716.000000,39938.000000,21593.000000,28202.000000
15674.000000,39893.000000,21520.000000,28138.000000
15629.000000,39843.000000,21447.000000,28072.000000
15576.000000,39791.000000,21372.000000,28004.000000
15519.000000,39739.000000,21296.000000,27937.000000
15461.000000,39688.000000,21222.000000,27875.000000
15406.000000,39640.000000,21150.000000,27818.000000
15352.000000,39595.000000,21078.000000,27762.000000
15299.000000,39553.000000,21005.000000,27705.000000
15247.000000,39511.000000,20936.000000,27649.000000
15198.000000,39469.000000,20870.000000,27597.000000
15149.000000,39426.000000,20806.000000,27549.000000
15103.000000,39385.000000,20746.000000,27503.000000
15064.000000,39349.000000,20693.000000,27463.000000
15033.000000,39319.000000,20644.000000,27426.000000
15007.000000,39295.000000,20598.000000,27391.000000
14984.000000,39275.000000,20555.000000,27362.000000
14965.000000,39259.000000,20516.000000,27335.000000
14950.000000,39245.000000,20480.000000,27309.000000
14934.000000,39229.000000,20446.000000,27282.000000
14916.000000,39211.000000,20414.000000,27255.000000
14895.000000,39191.000000,20382.000000,27229.000000
14874.000000,39169.000000,20347.000000,27204.000000
14854.000000,39147.000000,20313.000000,27181.000000
14836.000000,39126.000000,20282.000000,27161.000000
14818.000000,39106.000000,20254.000000,27142.000000
14800.000000,39088.000000,20227.000000,27119.000000
14783.000000,39070.000000,20196.000000,27090.000000
14766.000000,39051.000000,20163.000000,27059.000000
14747.000000,39032.000000,20130.000000,27028.000000
14725.000000,39013.000000,20098.000000,26998.000000
14703.000000,38997.000000,20069.000000,26968.000000
14682.000000,38984.000000,20042.000000,26943.000000
14661.000000,38969.000000,20012.000000,26922.000000
14637.000000,38953.000000,19981.000000,26905.000000
14612.000000,38936.000000,19952.000000,26888.000000
14588.000000,38920.000000,19924.000000,26871.000000
14567.000000,38905.000000,19895.000000,26850.000000
14548.000000,38891.000000,19865.000000,26826.000000
14529.000000,38875.000000,19834.000000,26799.000000
14513.000000,38858.000000,19807.000000,26774.000000
14500.000000,38843.000000,19781.000000,26750.000000
14486.000000,38829.000000,19752.000000,26728.000000
14473.000000,38813.000000,19721.000000,26705.000000
14458.000000,38795.000000,19689.000000,26680.000000
14439.000000,38776.000000,19656.000000,26651.000000
14415.000000,38753.000000,19624.000000,26619.000000
14387.000000,38728.000000,19592.000000,26588.000000
14358.000000,38702.000000,19559.000000,26561.000000
14331.000000,38675.000000,19526.000000,26536.000000
14307.000000,38648.000000,19493.000000,26510.000000
14283.000000,38626.000000,19461.000000,26481.000000
14261.000000,38608.000000,19426.000000,26449.000000
14240.000000,38590.000000,19388.000000,26415.000000
14217.000000,38569.000000,19345.000000,26379.000000
14191.000000,38545.000000,19298.000000,26343.000000
14161.000000,38516.000000,19247.000000,26307.000000
14127.000000,38482.000000,19194.000000,26272.000000
14090.000000,38445.000000,19137.000000,26236.000000
14054.000000,38409.000000,19081.000000,26197.000000
14019.000000,38373.000000,19026.000000,26157.000000
13986.000000,38339.000000,18974.000000,26116.000000
13949.000000,38307.000000,18923.000000,26072.000000
13910.000000,38277.000000,18871.000000,26025.000000
13869.000000,38245.000000,18818.000000,25980.000000
13830.000000,38210.000000,18762.000000,25936.000000
13791.000000,38176.000000,18707.000000,25892.000000
13754.000000,38142.000000,18651.000000,25847.000000
13715.000000,38108.000000,18595.000000,25804.000000
13677.000000,38073.000000,18541.000000,25765.000000
13638.000000,38036.000000,18490.000000,25727.000000
13597.000000,37997.000000,18440.000000,25689.000000
13560.000000,37960.000000,18391.000000,25647.000000
13527.000000,37926.000000,18343.000000,25600.000000
13493.000000,37895.000000,18292.000000,25555.000000
13458.000000,37867.000000,18240.000000,25513.000000
13423.000000,37840.000000,18188.000000,25476.000000
13389.000000,37813.000000,18139.000000,25441.000000
13357.000000,37786.000000,18089.000000,25409.000000
13326.000000,37758.000000,18038.000000,25377.000000
13293.000000,37731.000000,17988.000000,25343.000000
13261.000000,37703.000000,17940.000000,25307.000000
13230.000000,37674.000000,17894.000000,25273.000000
13202.000000,37645.000000,17852.000000,25240.000000
13176.000000,37616.000000,17811.000000,25211.000000
13151.000000,37586.000000,17771.000000,25185.000000
13127.000000,37555.000000,17730.000000,25154.000000
13104.000000,37525.000000,17691.000000,25121.000000
13079.000000,37495.000000,17651.000000,25087.000000
13050.000000,37466.000000,17607.000000,25052.000000
13022.000000,37438.000000,17561.000000,25015.000000
12993.000000,37411.000000,17517.000000,24977.000000
12965.000000,37383.000000,17475.000000,24936.000000
12937.000000,37353.000000,17430.000000,24893.000000
12909.000000,37323.000000,17379.000000,24849.000000
12878.000000,37294.000000,17325.000000,24803.000000
12844.000000,37264.000000,17268.000000,24754.000000
12808.000000,37229.000000,17212.000000,24701.000000
12770.000000,37192.000000,17155.000000,24649.000000
12731.000000,37152.000000,17098.000000,24599.000000
12691.000000,37114.000000,17040.000000,24550.000000
12651.000000,37076.000000,16984.000000,24502.000000
12611.000000,37039.000000,16931.000000,24458.000000
12571.000000,37003.000000,16877.000000,24418.000000
12530.000000,36968.000000,16823.000000,24379.000000
12489.000000,36934.000000,16772.000000,24336.000000
12448.000000,36904.000000,16724.000000,24293.000000
12409.000000,36875.000000,16676.000000,24254.000000
12371.000000,36847.000000,16629.000000,24217.000000
12338.000000,36817.000000,16581.000000,24179.000000
12308.000000,36791.000000,16536.000000,24146.000000
12285.000000,36770.000000,16498.000000,24122.000000
12272.000000,36758.000000,16471.000000,24110.000000
12273.000000,36759.000000,16465.000000,24115.000000
12292.000000,36777.000000,16490.000000,24142.000000
12335.000000,36819.000000,16552.000000,24197.000000
12409.000000,36888.000000,16656.000000,24286.000000
12517.000000,36989.000000,16810.000000,24410.000000
12661.000000,37127.000000,17020.000000,24574.000000
12839.000000,37304.000000,17286.000000,24779.000000
13048.000000,37512.000000,17602.000000,25021.000000
13284.000000,37744.000000,17964.000000,25298.000000
13544.000000,37998.000000,18364.000000,25611.000000
13826.000000,38270.000000,18794.000000,25953.000000
14118.000000,38553.000000,19241.000000,26311.000000
14414.000000,38840.000000,19700.000000,26678.000000
14713.000000,39128.000000,20165.000000,27053.000000
15011.000000,39415.000000,20629.000000,27428.000000
15303.000000,39695.000000,21086.000000,27795.000000
15584.000000,39963.000000,21527.000000,28150.000000
15851.000000,40214.000000,21944.000000,28485.000000
16098.000000,40445.000000,22332.000000,28796.000000
16322.000000,40649.000000,22686.000000,29079.000000
16520.000000,40827.000000,23004.000000,29335.000000
16693.000000,40980.000000,23287.000000,29566.000000
16840.000000,41110.000000,23532.000000,29768.000000
16961.000000,41216.000000,23741.000000,29940.000000
17057.000000,41302.000000,23915.000000,30079.000000
17131.000000,41370.000000,24053.000000,30188.000000
17184.000000,41422.000000,24156.000000,30269.000000
17219.000000,41456.000000,24226.000000,30323.000000
17238.000000,41474.000000,24267.000000,30357.000000
17242.000000,41481.000000,24283.000000,30373.000000
17231.000000,41477.000000,24275.000000,30374.000000
17206.000000,41459.000000,24245.000000,30362.000000
17171.000000,41430.000000,24197.000000,30337.000000
17129.000000,41395.000000,24137.000000,30301.000000
17081.000000,41354.000000,24068.000000,30254.000000
17030.000000,41308.000000,23992.000000,30197.000000
16980.000000,41262.000000,23911.000000,30134.000000
16930.000000,41216.000000,23828.000000,30067.000000
16878.000000,41169.000000,23744.000000,30001.000000
16826.000000,41120.000000,23658.000000,29937.000000
16776.000000,41068.000000,23572.000000,29871.000000
16727.000000,41017.000000,23489.000000,29806.000000
16680.000000,40968.000000,23409.000000,29744.000000
16638.000000,40922.000000,23337.000000,29686.000000
16597.000000,40878.000000,23272.000000,29635.000000
16558.000000,40839.000000,23214.000000,29586.000000
16520.000000,40803.000000,23159.000000,29538.000000
16484.000000,40770.000000,23107.000000,29491.000000
16451.000000,40736.000000,23056.000000,29446.000000
16419.000000,40703.000000,23003.000000,29405.000000
16385.000000,40670.000000,22948.000000,29364.000000
16350.000000,40634.000000,22890.000000,29321.000000
16312.000000,40596.000000,22825.000000,29274.000000
16270.000000,40555.000000,22752.000000,29220.000000
16222.000000,40506.000000,22668.000000,29157.000000
16167.000000,40452.000000,22575.000000,29084.000000
16107.000000,40392.000000,22474.000000,29001.000000
16041.000000,40330.000000,22369.000000,28911.000000
15970.000000,40266.000000,22261.000000,28818.000000
15895.000000,40198.000000,22153.000000,28723.000000
15822.000000,40130.000000,22048.000000,28630.000000
15752.000000,40065.000000,21950.000000,28540.000000
15688.000000,40005.000000,21857.000000,28457.000000
15632.000000,39955.000000,21774.000000,28385.000000
15586.000000,39915.000000,21702.000000,28325.000000
15551.000000,39885.000000,21642.000000,28278.000000
15528.000000,39862.000000,21592.000000,28245.000000
15514.000000,39845.000000,21556.000000,28223.000000
15508.000000,39834.000000,21535.000000,28213.000000
15509.000000,39831.000000,21529.000000,28215.000000
15519.000000,39837.000000,21534.000000,28227.000000
15538.000000,39849.000000,21550.000000,28246.000000
15559.000000,39867.000000,21575.000000,28268.000000
15583.000000,39887.000000,21605.000000,28289.000000
15608.000000,39908.000000,21640.000000,28310.000000
15634.000000,39928.000000,21679.000000,28332.000000
15659.000000,39948.000000,21720.000000,28354.000000
15684.000000,39967.000000,21760.000000,28378.000000
15709.000000,39986.000000,21801.000000,28404.000000
15732.000000,40007.000000,21843.000000,28434.000000
15754.000000,40030.000000,21885.000000,28466.000000
15773.000000,40052.000000,21924.000000,28498.000000
15787.000000,40073.000000,21956.000000,28524.000000
15796.000000,40090.000000,21982.000000,28543.000000
15798.000000,40101.000000,21999.000000,28556.000000
15796.000000,40104.000000,22008.000000,28563.000000
15789.000000,40100.000000,22005.000000,28562.000000
15775.000000,40091.000000,21995.000000,28555.000000
15755.000000,40077.000000,21978.000000,28540.000000
15731.000000,40060.000000,21956.000000,28516.000000
15704.000000,40040.000000,21928.000000,28481.000000
15674.000000,40018.000000,21890.000000,28437.000000
15641.000000,39992.000000,21842.000000,28385.000000
15605.000000,39959.000000,21789.000000,28327.000000
15568.000000,39919.000000,21729.000000,28265.000000
15527.000000,39876.000000,21663.000000,28200.000000
15482.000000,39830.000000,21590.000000,28132.000000
15433.000000,39779.000000,21513.000000,28061.000000
15382.000000,39726.000000,21433.000000,27992.000000
15329.000000,39675.000000,21349.000000,27925.000000
15275.000000,39624.000000,21265.000000,27858.000000
15219.000000,39572.000000,21179.000000,27790.000000
15161.000000,39520.000000,21092.000000,27725.000000
15102.000000,39470.000000,21008.000000,27660.000000
15045.000000,39422.000000,20927.000000,27596.000000
14990.000000,39377.000000,20850.000000,27531.000000
14936.000000,39332.000000,20779.000000,27467.000000
14883.000000,39289.000000,20711.000000,27403.000000
14831.000000,39244.000000,20640.000000,27339.000000
14782.000000,39196.000000,20564.000000,27273.000000
14737.000000,39147.000000,20486.000000,27207.000000
14692.000000,39100.000000,20410.000000,27143.000000
14643.000000,39056.000000,20333.000000,27083.000000
14591.000000,39010.000000,20252.000000,27024.000000
14539.000000,38965.000000,20171.000000,26964.000000
14489.000000,38921.000000,20090.000000,26902.000000
14440.000000,38876.000000,20011.000000,26841.000000
14395.000000,38830.000000,19936.000000,26784.000000
14350.000000,38782.000000,19867.000000,26731.000000
14304.000000,38732.000000,19800.000000,26678.000000
14258.000000,38681.000000,19733.000000,26625.000000
14211.000000,38632.000000,19664.000000,26567.000000
14166.000000,38587.000000,19591.000000,26509.000000
14122.000000,38544.000000,19521.000000,26451.000000
14079.000000,38505.000000,19454.000000,26395.000000
14038.000000,38470.000000,19389.000000,26343.000000
14001.000000,38439.000000,19329.000000,26295.000000
13967.000000,38413.000000,19272.000000,26248.000000
13936.000000,38388.000000,19220.000000,26203.000000
13908.000000,38365.000000,19172.000000,26163.000000
13882.000000,38342.000000,19128.000000,26128.000000
13857.000000,38320.000000,19090.000000,26095.000000
13833.000000,38299.000000,19054.000000,26064.000000
13812.000000,38283.000000,19021.000000,26038.000000
13794.000000,38270.000000,18990.000000,26017.000000
13778.000000,38256.000000,18961.000000,25998.000000
13761.000000,38238.000000,18934.000000,25978.000000
13743.000000,38217.000000,18908.000000,25956.000000
13724.000000,38194.000000,18881.000000,25936.000000
13705.000000,38170.000000,18853.000000,25917.000000
13687.000000,38148.000000,18824.000000,25898.000000
13670.000000,38127.000000,18794.000000,25879.000000
13654.000000,38106.000000,18762.000000,25860.000000
13638.000000,38087.000000,18728.000000,25840.000000
13619.000000,38065.000000,18691.000000,25819.000000
13597.000000,38041.000000,18655.000000,25795.000000
13577.000000,38016.000000,18623.000000,25770.000000
13556.000000,37993.000000,18592.000000,25744.000000
13531.000000,37970.000000,18559.000000,25717.000000
13506.000000,37948.000000,18529.000000,25687.000000
13484.000000,37930.000000,18500.000000,25658.000000
13462.000000,37911.000000,18473.000000,25631.000000
13442.000000,37895.000000,18446.000000,25606.000000
13423.000000,37881.000000,18418.000000,25584.000000
13406.000000,37869.000000,18394.000000,25566.000000
13388.000000,37857.000000,18370.000000,25549.000000
13369.000000,37847.000000,18347.000000,25533.000000
13351.000000,37835.000000,18325.000000,25516.000000
13332.000000,37819.000000,18301.000000,25493.000000
13311.000000,37799.000000,18272.000000,25465.000000
13287.000000,37777.000000,18238.000000,25434.000000
13262.000000,37756.000000,18203.000000,25403.000000
13236.000000,37734.000000,18167.000000,25373.000000
13211.000000,37710.000000,18130.000000,25347.000000
13188.000000,37686.000000,18092.000000,25324.000000
13165.000000,37664.000000,18055.000000,25301.000000
13142.000000,37644.000000,18019.000000,25279.000000
13120.000000,37625.000000,17985.000000,25256.000000
13098.000000,37604.000000,17950.000000,25229.000000
13076.000000,37579.000000,17913.000000,25199.000000
13053.000000,37553.000000,17872.000000,25167.000000
13029.000000,37524.000000,17828.000000,25134.000000
13003.000000,37491.000000,17784.000000,25101.000000
12977.000000,37461.000000,17741.000000,25072.000000
12952.000000,37434.000000,17700.000000,25045.000000
12928.000000,37407.000000,17657.000000,25013.000000
12902.000000,37377.000000,17610.000000,24978.000000
12872.000000,37346.000000,17560.000000,24940.000000
12838.000000,37313.000000,17506.000000,24893.000000
12799.000000,37274.000000,17448.000000,24841.000000
12755.000000,37231.000000,17385.000000,24785.000000
12708.000000,37186.000000,17322.000000,24727.000000
12659.000000,37144.000000,17261.000000,24664.000000
12611.000000,37105.000000,17204.000000,24596.000000
12564.000000,37069.000000,17153.000000,24528.000000
12521.000000,37037.000000,17104.000000,24464.000000
12480.000000,37007.000000,17056.000000,24407.000000
12443.000000,36980.000000,17010.000000,24359.000000
12413.000000,36958.000000,16968.000000,24318.000000
12389.000000,36938.000000,16929.000000,24280.000000
12369.000000,36921.000000,16892.000000,24246.000000
12352.000000,36910.000000,16859.000000,24220.000000
12338.000000,36904.000000,16828.000000,24201.000000
12325.000000,36898.000000,16796.000000,24187.000000
12312.000000,36886.000000,16764.000000,24173.000000
12299.000000,36871.000000,16732.000000,24158.000000
12286.000000,36852.000000,16700.000000,24145.000000
12271.000000,36829.000000,16668.000000,24132.000000
12252.000000,36803.000000,16631.000000,24114.000000
12232.000000,36775.000000,16591.000000,24091.000000
12212.000000,36747.000000,16551.000000,24063.000000
12189.000000,36720.000000,16513.000000,24034.000000
12166.000000,36694.000000,16476.000000,24005.000000
12143.000000,36671.000000,16443.000000,23975.000000
12124.000000,36653.000000,16417.000000,23952.000000
12117.000000,36645.000000,16405.000000,23944.000000
12123.000000,36652.000000,16415.000000,23957.000000
12148.000000,36675.000000,16453.000000,23993.000000
12198.000000,36718.000000,16527.000000,24057.000000
12273.000000,36788.000000,16642.000000,24151.000000
12377.000000,36888.000000,16802.000000,24281.000000
12512.000000,37020.000000,17007.000000,24452.000000
12677.000000,37182.000000,17257.000000,24661.000000
12869.000000,37369.000000,17550.000000,24902.000000
13082.000000,37577.000000,17879.000000,25169.000000
13313.000000,37804.000000,18238.000000,25459.000000
13561.000000,38045.000000,18619.000000,25769.000000
13821.000000,38296.000000,19018.000000,26095.000000
14087.000000,38552.000000,19427.000000,26430.000000
14354.000000,38809.000000,19838.000000,26766.000000
14615.000000,39060.000000,20244.000000,27100.000000
14867.000000,39298.000000,20639.000000,27427.000000
15104.000000,39519.000000,21016.000000,27740.000000
15325.000000,39721.000000,21368.000000,28034.000000
15526.000000,39903.000000,21689.000000,28304.000000
15705.000000,40064.000000,21976.000000,28545.000000
15860.000000,40206.000000,22228.000000,28756.000000
15992.000000,40327.000000,22446.000000,28936.000000
16104.000000,40427.000000,22632.000000,29086.000000
16194.000000,40507.000000,22782.000000,29210.000000
16261.000000,40567.000000,22897.000000,29305.000000
16309.000000,40608.000000,22977.000000,29375.000000
16339.000000,40634.000000,23028.000000,29421.000000
16351.000000,40646.000000,23053.000000,29445.000000
16350.000000,40642.000000,23056.000000,29450.000000
16335.000000,40623.000000,23037.000000,29440.000000
16310.000000,40593.000000,23000.000000,29417.000000
16275.000000,40554.000000,22948.000000,29385.000000
16234.000000,40509.000000,22888.000000,29346.000000
16188.000000,40460.000000,22820.000000,29303.000000
16139.000000,40410.000000,22744.000000,29253.000000
16091.000000,40362.000000,22663.000000,29200.000000
16044.000000,40316.000000,22582.000000,29144.000000
15997.000000,40270.000000,22500.000000,29087.000000
15950.000000,40223.000000,22415.000000,29032.000000
15903.000000,40177.000000,22332.000000,28977.000000
15857.000000,40131.000000,22252.000000,28920.000000
15813.000000,40087.000000,22174.000000,28861.000000
15770.000000,40049.000000,22099.000000,28805.000000
15728.000000,40011.000000,22025.000000,28749.000000
15687.000000,39972.000000,21952.000000,28692.000000
15648.000000,39932.000000,21880.000000,28634.000000
15608.000000,39890.000000,21807.000000,28577.000000
15565.000000,39846.000000,21730.000000,28517.000000
15516.000000,39797.000000,21649.000000,28454.000000
15464.000000,39744.000000,21562.000000,28388.000000
15410.000000,39689.000000,21471.000000,28320.000000
15353.000000,39628.000000,21375.000000,28247.000000
15294.000000,39564.000000,21275.000000,28167.000000
15234.000000,39496.000000,21172.000000,28082.000000
15171.000000,39426.000000,21065.000000,27993.000000
15104.000000,39354.000000,20956.000000,27905.000000
15035.000000,39286.000000,20850.000000,27820.000000
14969.000000,39224.000000,20750.000000,27739.000000
14910.000000,39168.000000,20657.000000,27665.000000
14860.000000,39118.000000,20574.000000,27598.000000
14817.000000,39075.000000,20506.000000,27539.000000
14782.000000,39040.000000,20452.000000,27489.000000
14755.000000,39013.000000,20409.000000,27450.000000
14736.000000,38996.000000,20376.000000,27418.000000
14724.000000,38990.000000,20355.000000,27399.000000
14718.000000,38993.000000,20344.000000,27393.000000
14718.000000,39003.000000,20343.000000,27398.000000
14722.000000,39018.000000,20351.000000,27413.000000
14734.000000,39038.000000,20371.000000,27437.000000
14758.000000,39062.000000,20408.000000,27468.000000
14790.000000,39093.000000,20457.000000,27505.000000
14827.000000,39130.000000,20510.000000,27545.000000
14870.000000,39169.000000,20568.000000,27591.000000
14917.000000,39210.000000,20629.000000,27643.000000
14965.000000,39253.000000,20692.000000,27700.000000
15012.000000,39297.000000,20757.000000,27755.000000
15057.000000,39343.000000,20821.000000,27805.000000
15101.000000,39388.000000,20882.000000,27853.000000
15143.000000,39429.000000,20936.000000,27897.000000
15176.000000,39462.000000,20982.000000,27934.000000
15200.000000,39487.000000,21018.000000,27964.000000
15218.000000,39504.000000,21046.000000,27988.000000
15229.000000,39513.000000,21065.000000,28003.000000
15232.000000,39511.000000,21074.000000,28007.000000
15226.000000,39501.000000,21068.000000,27999.000000
15208.000000,39485.000000,21048.000000,27982.000000
15181.000000,39459.000000,21016.000000,27954.000000
15148.000000,39424.000000,20972.000000,27918.000000
15112.000000,39387.000000,20921.000000,27876.000000
15075.000000,39350.000000,20869.000000,27834.000000
15039.000000,39312.000000,20814.000000,27792.000000
15001.000000,39270.000000,20754.000000,27751.000000
14957.000000,39226.000000,20689.000000,27708.000000
14911.000000,39181.000000,20620.000000,27661.000000
14865.000000,39137.000000,20546.000000,27604.000000
14817.000000,39093.000000,20468.000000,27540.000000
14770.000000,39047.000000,20388.000000,27472.000000
14723.000000,39001.000000,20310.000000,27407.000000
14677.000000,38956.000000,20235.000000,27345.000000
14630.000000,38911.000000,20163.000000,27285.000000
14583.000000,38865.000000,20091.000000,27229.000000
14535.000000,38818.000000,20019.000000,27177.000000
14486.000000,38773.000000,19949.000000,27127.000000
14437.000000,38731.000000,19882.000000,27076.000000
14392.000000,38690.000000,19816.000000,27022.000000
14352.000000,38652.000000,19751.000000,26971.000000
14316.000000,38614.000000,19686.000000,26927.000000
14281.000000,38575.000000,19621.000000,26885.000000
14245.000000,38536.000000,19554.000000,26842.000000
14209.000000,38495.000000,19486.000000,26797.000000
14170.000000,38451.000000,19416.000000,26749.000000
14125.000000,38405.000000,19346.000000,26698.000000
14080.000000,38356.000000,19274.000000,26645.000000
14036.000000,38304.000000,19199.000000,26586.000000
13990.000000,38252.000000,19120.000000,26523.000000
13942.000000,38203.000000,19040.000000,26458.000000
13892.000000,38156.000000,18964.000000,26396.000000
13841.000000,38110.000000,18891.000000,26338.000000
13789.000000,38066.000000,18818.000000,26282.000000
13739.000000,38026.000000,18749.000000,26228.000000
13692.000000,37987.000000,18682.000000,26173.000000
13646.000000,37949.000000,18617.000000,26117.000000
13601.000000,37912.000000,18552.000000,26059.000000
13559.000000,37877.000000,18491.000000,26004.000000
13518.000000,37842.000000,18435.000000,25956.000000
13478.000000,37806.000000,18380.000000,25916.000000
13440.000000,37772.000000,18326.000000,25881.000000
13405.000000,37740.000000,18274.000000,25848.000000
13371.000000,37708.000000,18223.000000,25818.000000
13338.000000,37676.000000,18173.000000,25788.000000
13306.000000,37645.000000,18124.000000,25756.000000
13276.000000,37618.000000,18078.000000,25724.000000
13250.000000,37595.000000,18038.000000,25692.000000
13231.000000,37577.000000,18005.000000,25659.000000
13218.000000,37562.000000,17978.000000,25630.000000
13210.000000,37548.000000,17957.000000,25603.000000
13203.000000,37535.000000,17936.000000,25578.000000
13195.000000,37522.000000,17914.000000,25554.000000
13184.000000,37509.000000,17893.000000,25532.000000
13172.000000,37495.000000,17871.000000,25511.000000
13158.000000,37479.000000,17847.000000,25492.000000
13141.000000,37464.000000,17823.000000,25476.000000
13123.000000,37449.000000,17798.000000,25464.000000
13103.000000,37433.000000,17772.000000,25455.000000
13082.000000,37416.000000,17743.000000,25443.000000
13061.000000,37398.000000,17711.000000,25425.000000
13041.000000,37380.000000,17677.000000,25402.000000
13019.000000,37359.000000,17640.000000,25377.000000
12996.000000,37338.000000,17602.000000,25350.000000
12975.000000,37317.000000,17564.000000,25325.000000
12955.000000,37295.000000,17529.000000,25299.000000
12937.000000,37273.000000,17496.000000,25276.000000
12918.000000,37253.000000,17464.000000,25257.000000
12899.000000,37232.000000,17430.000000,25240.000000
12880.000000,37213.000000,17395.000000,25222.000000
12860.000000,37196.000000,17360.000000,25205.000000
12837.000000,37179.000000,17326.000000,25187.000000
12812.000000,37163.000000,17293.000000,25165.000000
12785.000000,37145.000000,17260.000000,25136.000000
12761.000000,37125.000000,17225.000000,25105.000000
12740.000000,37101.000000,17189.000000,25073.000000
12720.000000,37075.000000,17152.000000,25046.000000
12700.000000,37049.000000,17116.000000,25022.000000
12679.000000,37026.000000,17080.000000,24996.000000
12657.000000,37004.000000,17044.000000,24968.000000
12633.000000,36982.000000,17009.000000,24940.000000
12608.000000,36957.000000,16973.000000,24914.000000
12578.000000,36933.000000,16937.000000,24892.000000
12547.000000,36909.000000,16900.000000,24870.000000
12515.000000,36881.000000,16863.000000,24843.000000
12483.000000,36852.000000,16822.000000,24811.000000
12453.000000,36824.000000,16778.000000,24777.000000
12425.000000,36798.000000,16732.000000,24742.000000
12396.000000,36771.000000,16685.000000,24706.000000
12367.000000,36743.000000,16636.000000,24667.000000
12339.000000,36712.000000,16587.000000,24625.000000
12310.000000,36680.000000,16536.000000,24579.000000
12275.000000,36649.000000,16484.000000,24529.000000
12236.000000,36619.000000,16432.000000,24478.000000
12194.000000,36587.000000,16380.000000,24428.000000
12154.000000,36550.000000,16328.000000,24379.000000
12116.000000,36510.000000,16276.000000,24327.000000
12081.000000,36469.000000,16225.000000,24276.000000
12050.000000,36431.000000,16176.000000,24229.000000
12018.000000,36393.000000,16126.000000,24186.000000
11984.000000,36359.000000,16073.000000,24148.000000
11950.000000,36329.000000,16017.000000,24113.000000
11917.000000,36302.000000,15962.000000,24082.000000
11885.000000,36278.000000,15910.000000,24051.000000
11854.000000,36254.000000,15862.000000,24018.000000
11827.000000,36231.000000,15820.000000,23986.000000
11805.000000,36212.000000,15785.000000,23958.000000
11791.000000,36200.000000,15762.000000,23937.000000
11787.000000,36200.000000,15756.000000,23928.000000
11799.000000,36215.000000,15775.000000,23935.000000
11832.000000,36245.000000,15822.000000,23963.000000
11888.000000,36295.000000,15904.000000,24022.000000
11968.000000,36368.000000,16027.000000,24117.000000
12077.000000,36468.000000,16198.000000,24249.000000
12215.000000,36599.000000,16413.000000,24420.000000
12380.000000,36760.000000,16670.000000,24629.000000
12570.000000,36947.000000,16966.000000,24872.000000
12783.000000,37157.000000,17294.000000,25142.000000
13016.000000,37385.000000,17649.000000,25436.000000
13263.000000,37625.000000,18024.000000,25745.000000
13516.000000,37871.000000,18413.000000,26059.000000
13769.000000,38118.000000,18808.000000,26376.000000
14020.000000,38361.000000,19202.000000,26693.000000
14266.000000,38598.000000,19590.000000,27006.000000
14509.000000,38827.000000,19971.000000,27313.000000
14746.000000,39048.000000,20340.000000,27612.000000
14970.000000,39257.000000,20689.000000,27894.000000
15177.000000,39447.000000,21014.000000,28152.000000
15365.000000,39618.000000,21309.000000,28382.000000
15532.000000,39770.000000,21575.000000,28589.000000
15678.000000,39905.000000,21809.000000,28774.000000
15804.000000,40021.000000,22008.000000,28935.000000
15911.000000,40116.000000,22172.000000,29074.000000
15999.000000,40192.000000,22304.000000,29192.000000
16066.000000,40251.000000,22402.000000,29289.000000
16116.000000,40293.000000,22472.000000,29363.000000
16149.000000,40317.000000,22515.000000,29415.000000
16166.000000,40324.000000,22533.000000,29446.000000
16167.000000,40319.000000,22530.000000,29458.000000
16153.000000,40302.000000,22508.000000,29454.000000
16128.000000,40274.000000,22470.000000,29439.000000
16095.000000,40236.000000,22419.000000,29413.000000
16059.000000,40192.000000,22358.000000,29376.000000
16021.000000,40146.000000,22293.000000,29332.000000
15981.000000,40102.000000,22226.000000,29282.000000
15941.000000,40061.000000,22158.000000,29228.000000
15899.000000,40023.000000,22088.000000,29174.000000
15857.000000,39983.000000,22018.000000,29125.000000
15818.000000,39943.000000,21952.000000,29077.000000
15784.000000,39904.000000,21891.000000,29026.000000
15753.000000,39869.000000,21834.000000,28975.000000
15727.000000,39839.000000,21781.000000,28929.000000
15704.000000,39810.000000,21732.000000,28887.000000
15681.000000,39783.000000,21691.000000,28848.000000
15658.000000,39759.000000,21657.000000,28813.000000
15638.000000,39741.000000,21628.000000,28782.000000
15622.000000,39729.000000,21601.000000,28753.000000
15606.000000,39716.000000,21572.000000,28724.000000
15586.000000,39699.000000,21539.000000,28695.000000
15561.000000,39678.000000,21498.000000,28665.000000
15533.000000,39654.000000,21449.000000,28635.000000
15500.000000,39628.000000,21392.000000,28602.000000
15464.000000,39597.000000,21331.000000,28563.000000
15424.000000,39562.000000,21264.000000,28517.000000
15382.000000,39523.000000,21193.000000,28466.000000
15338.000000,39482.000000,21117.000000,28412.000000
15294.000000,39441.000000,21040.000000,28354.000000
15248.000000,39399.000000,20960.000000,28293.000000
15201.000000,39355.000000,20881.000000,28234.000000
15156.000000,39311.000000,20804.000000,28178.000000
15114.000000,39270.000000,20730.000000,28124.000000
15075.000000,39234.000000,20666.000000,28074.000000
15045.000000,39203.000000,20610.000000,28030.000000
15021.000000,39177.000000,20564.000000,27993.000000
15002.000000,39154.000000,20528.000000,27961.000000
14988.000000,39138.000000,20503.000000,27938.000000
14980.000000,39128.000000,20491.000000,27925.000000
14979.000000,39126.000000,20491.000000,27920.000000
14986.000000,39131.000000,20503.000000,27920.000000
14996.000000,39142.000000,20521.000000,27925.000000
15009.000000,39157.000000,20543.000000,27937.000000
15025.000000,39173.000000,20569.000000,27955.000000
15045.000000,39190.000000,20600.000000,27974.000000
15071.000000,39209.000000,20633.000000,27997.000000
15097.000000,39229.000000,20665.000000,28026.000000
15123.000000,39248.000000,20702.000000,28061.000000
15150.000000,39271.000000,20742.000000,28098.000000
15178.000000,39298.000000,20780.000000,28133.000000
15204.000000,39325.000000,20814.000000,28165.000000
15228.000000,39349.000000,20846.000000,28196.000000
15249.000000,39370.000000,20872.000000,28225.000000
15263.000000,39387.000000,20894.000000,28248.000000
15271.000000,39400.000000,20909.000000,28266.000000
15273.000000,39407.000000,20917.000000,28275.000000
15269.000000,39410.000000,20919.000000,28275.000000
15261.000000,39411.000000,20912.000000,28264.000000
15251.000000,39408.000000,20896.000000,28245.000000
15237.000000,39397.000000,20873.000000,28217.000000
15215.000000,39380.000000,20845.000000,28179.000000
15188.000000,39356.000000,20810.000000,28134.000000
15156.000000,39325.000000,20770.000000,28085.000000
15123.000000,39290.000000,20725.000000,28034.000000
15089.000000,39251.000000,20673.000000,27982.000000
15053.000000,39210.000000,20616.000000,27932.000000
15014.000000,39164.000000,20554.000000,27884.000000
14971.000000,39118.000000,20489.000000,27834.000000
14927.000000,39072.000000,20421.000000,27783.000000
14882.000000,39028.000000,20352.000000,27735.000000
14833.000000,38983.000000,20281.000000,27685.000000
14779.000000,38937.000000,20206.000000,27632.000000
14724.000000,38889.000000,20129.000000,27578.000000
14671.000000,38840.000000,20052.000000,27525.000000
14618.000000,38792.000000,19975.000000,27471.000000
14566.000000,38745.000000,19899.000000,27416.000000
14517.000000,38700.000000,19826.000000,27359.000000
14470.000000,38654.000000,19754.000000,27298.000000
14424.000000,38607.000000,19680.000000,27234.000000
14377.000000,38558.000000,19603.000000,27167.000000
14331.000000,38509.000000,19527.000000,27099.000000
14288.000000,38462.000000,19456.000000,27029.000000
14246.000000,38417.000000,19388.000000,26959.000000
14204.000000,38374.000000,19320.000000,26893.000000
14161.000000,38332.000000,19252.000000,26832.000000
14114.000000,38290.000000,19183.000000,26781.000000
14068.000000,38248.000000,19116.000000,26735.000000
14023.000000,38208.000000,19052.000000,26694.000000
13980.000000,38172.000000,18993.000000,26656.000000
13938.000000,38138.000000,18938.000000,26618.000000
13899.000000,38105.000000,18884.000000,26577.000000
13861.000000,38075.000000,18830.000000,26534.000000
13827.000000,38046.000000,18779.000000,26490.000000
13795.000000,38018.000000,18730.000000,26445.000000
13763.000000,37992.000000,18684.000000,26404.000000
13735.000000,37969.000000,18641.000000,26367.000000
13710.000000,37951.000000,18600.000000,26333.000000
13688.000000,37937.000000,18560.000000,26300.000000
13667.000000,37921.000000,18519.000000,26266.000000
13646.000000,37901.000000,18478.000000,26234.000000
13625.000000,37880.000000,18440.000000,26202.000000
13604.000000,37858.000000,18404.000000,26169.000000
13585.000000,37838.000000,18371.000000,26137.000000
13567.000000,37817.000000,18339.000000,26104.000000
13549.000000,37794.000000,18307.000000,26073.000000
13530.000000,37770.000000,18274.000000,26046.000000
13510.000000,37744.000000,18240.000000,26022.000000
13489.000000,37717.000000,18203.000000,25998.000000
13468.000000,37691.000000,18167.000000,25975.000000
13446.000000,37668.000000,18131.000000,25951.000000
13426.000000,37650.000000,18096.000000,25928.000000
13405.000000,37638.000000,18064.000000,25906.000000
13382.000000,37625.000000,18035.000000,25881.000000
13359.000000,37610.000000,18005.000000,25852.000000
13338.000000,37594.000000,17974.000000,25822.000000
13317.000000,37574.000000,17944.000000,25795.000000
13296.000000,37552.000000,17912.000000,25769.000000
13274.000000,37530.000000,17876.000000,25742.000000
13253.000000,37509.000000,17839.000000,25714.000000
13232.000000,37489.000000,17804.000000,25685.000000
13211.000000,37470.000000,17771.000000,25657.000000
13188.000000,37449.000000,17738.000000,25631.000000
13163.000000,37426.000000,17705.000000,25606.000000
13137.000000,37399.000000,17670.000000,25581.000000
13110.000000,37371.000000,17635.000000,25558.000000
13085.000000,37345.000000,17602.000000,25540.000000
13066.000000,37323.000000,17572.000000,25526.000000
13052.000000,37305.000000,17544.000000,25515.000000
13042.000000,37291.000000,17519.000000,25501.000000
13028.000000,37277.000000,17493.000000,25483.000000
13011.000000,37262.000000,17465.000000,25460.000000
12990.000000,37248.000000,17433.000000,25435.000000
12968.000000,37234.000000,17400.000000,25406.000000
12946.000000,37219.000000,17368.000000,25369.000000
12926.000000,37202.000000,17335.000000,25328.000000
12905.000000,37185.000000,17301.000000,25288.000000
12884.000000,37165.000000,17265.000000,25251.000000
12860.000000,37143.000000,17226.000000,25216.000000
12835.000000,37119.000000,17186.000000,25183.000000
12806.000000,37094.000000,17146.000000,25152.000000
12773.000000,37066.000000,17108.000000,25122.000000
12739.000000,37036.000000,17068.000000,25095.000000
12706.000000,37007.000000,17024.000000,25071.000000
12675.000000,36980.000000,16979.000000,25044.000000
12646.000000,36953.000000,16934.000000,25012.000000
12618.000000,36926.000000,16891.000000,24976.000000
12590.000000,36896.000000,16847.000000,24939.000000
12563.000000,36866.000000,16804.000000,24904.000000
12535.000000,36835.000000,16759.000000,24869.000000
12503.000000,36803.000000,16711.000000,24832.000000
12466.000000,36768.000000,16662.000000,24796.000000
12427.000000,36733.000000,16610.000000,24757.000000
12386.000000,36695.000000,16557.000000,24712.000000
12345.000000,36656.000000,16504.000000,24663.000000
12305.000000,36616.000000,16451.000000,24611.000000
12269.000000,36577.000000,16398.000000,24558.000000
12235.000000,36539.000000,16343.000000,24507.000000
12201.000000,36505.000000,16289.000000,24459.000000
12167.000000,36476.000000,16236.000000,24413.000000
12134.000000,36450.000000,16186.000000,24370.000000
12103.000000,36425.000000,16138.000000,24330.000000
12076.000000,36401.000000,16095.000000,24291.000000
12052.000000,36380.000000,16055.000000,24253.000000
12026.000000,36358.000000,16015.000000,24217.000000
11998.000000,36333.000000,15975.000000,24181.000000
11968.000000,36305.000000,15932.000000,24148.000000
11938.000000,36273.000000,15886.000000,24114.000000
11907.000000,36240.000000,15837.000000,24075.000000
11874.000000,36207.000000,15788.000000,24033.000000
11840.000000,36175.000000,15738.000000,23989.000000
11807.000000,36145.000000,15688.000000,23943.000000
11774.000000,36117.000000,15641.000000,23900.000000
11741.000000,36089.000000,15594.000000,23862.000000
11708.000000,36060.000000,15546.000000,23829.000000
11675.000000,36033.000000,15499.000000,23801.000000
11643.000000,36005.000000,15454.000000,23772.000000
11612.000000,35976.000000,15409.000000,23738.000000
11579.000000,35946.000000,15366.000000,23703.000000
11547.000000,35917.000000,15322.000000,23666.000000
11514.000000,35887.000000,15277.000000,23626.000000
11483.000000,35858.000000,15232.000000,23585.000000
11455.000000,35828.000000,15187.000000,23544.000000
11427.000000,35799.000000,15144.000000,23502.000000
11399.000000,35772.000000,15105.000000,23460.000000
11370.000000,35745.000000,15067.000000,23422.000000
11345.000000,35720.000000,15028.000000,23387.000000
11321.000000,35697.000000,14991.000000,23351.000000
11296.000000,35676.000000,14954.000000,23318.000000
11273.000000,35653.000000,14917.000000,23284.000000
11252.000000,35631.000000,14879.000000,23252.000000
11232.000000,35608.000000,14840.000000,23222.000000
11210.000000,35585.000000,14805.000000,23196.000000
11185.000000,35561.000000,14772.000000,23170.000000
11159.000000,35536.000000,14737.000000,23143.000000
11132.000000,35509.000000,14703.000000,23118.000000
11104.000000,35484.000000,14670.000000,23093.000000
11076.000000,35462.000000,14633.000000,23068.000000
11053.000000,35443.000000,14594.000000,23044.000000
11030.000000,35424.000000,14554.000000,23017.000000
11001.000000,35402.000000,14512.000000,22984.000000
10969.000000,35377.000000,14470.000000,22947.000000
10936.000000,35351.000000,14426.000000,22908.000000
10904.000000,35327.000000,14381.000000,22871.000000
10874.000000,35304.000000,14337.000000,22833.000000
10847.000000,35281.000000,14295.000000,22794.000000
10823.000000,35257.000000,14253.000000,22756.000000
10800.000000,35231.000000,14214.000000,22721.000000
10777.000000,35204.000000,14179.000000,22685.000000
10755.000000,35180.000000,14149.000000,22650.000000
10734.000000,35161.000000,14123.000000,22622.000000
10719.000000,35150.000000,14109.000000,22603.000000
10718.000000,35153.000000,14116.000000,22600.000000
10736.000000,35176.000000,14154.000000,22621.000000
10778.000000,35223.000000,14228.000000,22676.000000
10849.000000,35299.000000,14347.000000,22773.000000
10954.000000,35408.000000,14515.000000,22912.000000
11094.000000,35548.000000,14734.000000,23092.000000
11269.000000,35716.000000,15000.000000,23309.000000
11472.000000,35911.000000,15308.000000,23557.000000
11699.000000,36128.000000,15650.000000,23834.000000
11947.000000,36363.000000,16019.000000,24134.000000
12209.000000,36612.000000,16411.000000,24453.000000
12478.000000,36866.000000,16817.000000,24782.000000
12749.000000,37123.000000,17226.000000,25116.000000
13019.000000,37377.000000,17633.000000,25450.000000
13283.000000,37624.000000,18031.000000,25779.000000
13538.000000,37862.000000,18418.000000,26098.000000
13781.000000,38086.000000,18790.000000,26402.000000
14012.000000,38297.000000,19147.000000,26690.000000
14230.000000,38498.000000,19485.000000,26962.000000
14434.000000,38684.000000,19799.000000,27217.000000
14622.000000,38853.000000,20087.000000,27447.000000
14789.000000,39003.000000,20346.000000,27651.000000
14932.000000,39135.000000,20573.000000,27827.000000
15052.000000,39247.000000,20764.000000,27976.000000
15151.000000,39341.000000,20922.000000,28102.000000
15230.000000,39417.000000,21049.000000,28203.000000
15290.000000,39475.000000,21144.000000,28280.000000
15331.000000,39509.000000,21210.000000,28336.000000
15356.000000,39526.000000,21251.000000,28372.000000
15370.000000,39531.000000,21267.000000,28390.000000
15373.000000,39525.000000,21261.000000,28391.000000
15361.000000,39507.000000,21236.000000,28378.000000
15337.000000,39481.000000,21195.000000,28354.000000
15303.000000,39452.000000,21141.000000,28320.000000
15261.000000,39417.000000,21078.000000,28279.000000
15212.000000,39375.000000,21007.000000,28229.000000
15159.000000,39327.000000,20929.000000,28169.000000
15104.000000,39273.000000,20848.000000,28105.000000
15051.000000,39217.000000,20767.000000,28043.000000
14999.000000,39162.000000,20686.000000,27982.000000
14952.000000,39107.000000,20604.000000,27921.000000
14910.000000,39058.000000,20527.000000,27868.000000
14872.000000,39017.000000,20457.000000,27824.000000
14840.000000,38982.000000,20393.000000,27784.000000
14814.000000,38952.000000,20337.000000,27748.000000
14794.000000,38928.000000,20288.000000,27715.000000
14780.000000,38907.000000,20247.000000,27687.000000
14770.000000,38890.000000,20212.000000,27660.000000
14760.000000,38876.000000,20181.000000,27634.000000
14748.000000,38862.000000,20153.000000,27613.000000
14732.000000,38847.000000,20128.000000,27598.000000
14713.000000,38830.000000,20098.000000,27583.000000
14688.000000,38810.000000,20059.000000,27559.000000
14656.000000,38787.000000,20010.000000,27527.000000
14619.000000,38758.000000,19954.000000,27490.000000
14578.000000,38723.000000,19891.000000,27444.000000
14535.000000,38684.000000,19823.000000,27391.000000
14492.000000,38643.000000,19752.000000,27331.000000
14448.000000,38602.000000,19678.000000,27266.000000
14403.000000,38559.000000,19606.000000,27204.000000
14360.000000,38515.000000,19538.000000,27149.000000
14324.000000,38470.000000,19475.000000,27099.000000
14292.000000,38428.000000,19417.000000,27057.000000
14263.000000,38391.000000,19366.000000,27019.000000
14240.000000,38363.000000,19324.000000,26985.000000
14223.000000,38346.000000,19293.000000,26958.000000
14212.000000,38339.000000,19271.000000,26940.000000
14210.000000,38341.000000,19261.000000,26931.000000
14214.000000,38351.000000,19261.000000,26932.000000
14225.000000,38367.000000,19269.000000,26942.000000
14239.000000,38386.000000,19286.000000,26958.000000
14257.000000,38406.000000,19309.000000,26979.000000
14277.000000,38428.000000,19338.000000,27008.000000
14301.000000,38453.000000,19372.000000,27040.000000
14327.000000,38481.000000,19411.000000,27075.000000
14356.000000,38509.000000,19453.000000,27107.000000
14386.000000,38537.000000,19495.000000,27137.000000
14414.000000,38561.000000,19533.000000,27162.000000
14441.000000,38581.000000,19567.000000,27183.000000
14465.000000,38596.000000,19597.000000,27203.000000
14486.000000,38607.000000,19626.000000,27222.000000
14502.000000,38615.000000,19651.000000,27236.000000
14513.000000,38621.000000,19672.000000,27244.000000
14519.000000,38627.000000,19687.000000,27249.000000
14522.000000,38631.000000,19695.000000,27247.000000
14519.000000,38630.000000,19693.000000,27238.000000
14509.000000,38623.000000,19682.000000,27223.000000
14493.000000,38610.000000,19665.000000,27206.000000
14474.000000,38594.000000,19645.000000,27187.000000
14450.000000,38575.000000,19623.000000,27166.000000
14424.000000,38553.000000,19597.000000,27143.000000
14395.000000,38527.000000,19565.000000,27113.000000
14364.000000,38498.000000,19525.000000,27075.000000
14329.000000,38464.000000,19478.000000,27029.000000
14288.000000,38425.000000,19426.000000,26978.000000
14242.000000,38385.000000,19371.000000,26924.000000
14194.000000,38345.000000,19313.000000,26863.000000
14143.000000,38305.000000,19249.000000,26795.000000
14092.000000,38262.000000,19180.000000,26722.000000
14041.000000,38215.000000,19108.000000,26649.000000
13992.000000,38166.000000,19032.000000,26579.000000
13943.000000,38115.000000,18954.000000,26510.000000
13893.000000,38064.000000,18876.000000,26442.000000
13843.000000,38014.000000,18800.000000,26376.000000
13795.000000,37964.000000,18726.000000,26314.000000
13748.000000,37914.000000,18653.000000,26255.000000
13697.000000,37867.000000,18580.000000,26198.000000
13644.000000,37823.000000,18510.000000,26145.000000
13592.000000,37781.000000,18441.000000,26093.000000
13542.000000,37739.000000,18369.000000,26040.000000
13493.000000,37694.000000,18295.000000,25984.000000
13445.000000,37648.000000,18221.000000,25928.000000
13399.000000,37603.000000,18150.000000,25872.000000
13352.000000,37558.000000,18078.000000,25815.000000
13304.000000,37514.000000,18007.000000,25757.000000
13256.000000,37471.000000,17937.000000,25700.000000
13207.000000,37427.000000,17866.000000,25642.000000
13155.000000,37382.000000,17796.000000,25580.000000
13104.000000,37337.000000,17725.000000,25515.000000
13058.000000,37293.000000,17658.000000,25450.000000
13017.000000,37253.000000,17598.000000,25387.000000
12978.000000,37216.000000,17545.000000,25328.000000
12943.000000,37183.000000,17498.000000,25274.000000
12913.000000,37155.000000,17457.000000,25228.000000
12886.000000,37131.000000,17417.000000,25189.000000
12860.000000,37108.000000,17375.000000,25153.000000
12834.000000,37083.000000,17331.000000,25120.000000
12810.000000,37057.000000,17290.000000,25088.000000
12787.000000,37033.000000,17253.000000,25060.000000
12766.000000,37009.000000,17219.000000,25036.000000
12746.000000,36987.000000,17186.000000,25016.000000
12727.000000,36967.000000,17153.000000,24998.000000
12709.000000,36950.000000,17119.000000,24980.000000
12689.000000,36934.000000,17084.000000,24960.000000
12670.000000,36921.000000,17048.000000,24935.000000
12650.000000,36907.000000,17011.000000,24908.000000
12629.000000,36892.000000,16975.000000,24881.000000
12609.000000,36877.000000,16942.000000,24858.000000
12590.000000,36865.000000,16912.000000,24838.000000
12571.000000,36854.000000,16883.000000,24823.000000
12553.000000,36841.000000,16855.000000,24811.000000
12535.000000,36827.000000,16829.000000,24799.000000
12519.000000,36815.000000,16806.000000,24786.000000
12506.000000,36804.000000,16785.000000,24773.000000
12497.000000,36793.000000,16765.000000,24758.000000
12489.000000,36781.000000,16743.000000,24741.000000
12478.000000,36769.000000,16722.000000,24723.000000
12465.000000,36754.000000,16703.000000,24705.000000
12452.000000,36737.000000,16684.000000,24687.000000
12441.000000,36723.000000,16664.000000,24671.000000
12431.000000,36710.000000,16642.000000,24654.000000
12421.000000,36698.000000,16618.000000,24634.000000
12408.000000,36684.000000,16590.000000,24611.000000
12392.000000,36668.000000,16560.000000,24587.000000
12374.000000,36651.000000,16529.000000,24562.000000
12356.000000,36633.000000,16499.000000,24539.000000
12336.000000,36613.000000,16467.000000,24521.000000
12315.000000,36591.000000,16433.000000,24503.000000
12293.000000,36568.000000,16398.000000,24478.000000
12272.000000,36545.000000,16365.000000,24450.000000
12254.000000,36523.000000,16331.000000,24425.000000
12234.000000,36501.000000,16298.000000,24401.000000
12214.000000,36478.000000,16266.000000,24374.000000
12192.000000,36455.000000,16232.000000,24347.000000
12166.000000,36429.000000,16197.000000,24317.000000
12140.000000,36405.000000,16161.000000,24288.000000
12115.000000,36385.000000,16124.000000,24261.000000
12093.000000,36366.000000,16084.000000,24235.000000
12074.000000,36348.000000,16048.000000,24207.000000
12055.000000,36331.000000,16016.000000,24179.000000
12032.000000,36313.000000,15985.000000,24148.000000
12006.000000,36293.000000,15951.000000,24113.000000
11977.000000,36270.000000,15914.000000,24075.000000
11946.000000,36243.000000,15875.000000,24033.000000
11913.000000,36216.000000,15833.000000,23991.000000
11878.000000,36189.000000,15788.000000,23948.000000
11838.000000,36159.000000,15741.000000,23900.000000
11799.000000,36127.000000,15693.000000,23853.000000
11760.000000,36094.000000,15644.000000,23807.000000
11722.000000,36061.000000,15594.000000,23763.000000
11684.000000,36027.000000,15543.000000,23723.000000
11645.000000,35994.000000,15491.000000,23684.000000
11608.000000,35963.000000,15439.000000,23644.000000
11573.000000,35931.000000,15387.000000,23601.000000
11538.000000,35899.000000,15335.000000,23557.000000
11506.000000,35868.000000,15285.000000,23514.000000
11474.000000,35841.000000,15241.000000,23475.000000
11446.000000,35819.000000,15201.000000,23438.000000
11419.000000,35798.000000,15164.000000,23403.000000
11392.000000,35777.000000,15129.000000,23374.000000
11365.000000,35756.000000,15094.000000,23347.000000
11339.000000,35735.000000,15058.000000,23317.000000
11313.000000,35713.000000,15020.000000,23285.000000
11288.000000,35691.000000,14982.000000,23253.000000
11263.000000,35667.000000,14945.000000,23222.000000
11236.000000,35641.000000,14907.000000,23187.000000
11209.000000,35611.000000,14867.000000,23147.000000
11180.000000,35579.000000,14825.000000,23105.000000
11152.000000,35543.000000,14782.000000,23064.000000
11123.000000,35508.000000,14737.000000,23022.000000
11091.000000,35474.000000,14688.000000,22981.000000
11056.000000,35440.000000,14634.000000,22939.000000
11022.000000,35403.000000,14577.000000,22894.000000
10988.000000,35367.000000,14518.000000,22843.000000
10955.000000,35331.000000,14458.000000,22792.000000
10920.000000,35295.000000,14400.000000,22743.000000
10882.000000,35259.000000,14345.000000,22696.000000
10842.000000,35225.000000,14291.000000,22650.000000
10804.000000,35193.000000,14240.000000,22607.000000
10771.000000,35165.000000,14192.000000,22569.000000
10745.000000,35143.000000,14149.000000,22535.000000
10722.000000,35122.000000,14109.000000,22505.000000
10703.000000,35100.000000,14072.000000,22477.000000
10685.000000,35078.000000,14039.000000,22452.000000
10668.000000,35059.000000,14007.000000,22429.000000
10649.000000,35042.000000,13975.000000,22405.000000
10627.000000,35025.000000,13941.000000,22379.000000
10603.000000,35005.000000,13904.000000,22351.000000
10578.000000,34982.000000,13868.000000,22324.000000
10552.000000,34957.000000,13833.000000,22295.000000
10527.000000,34929.000000,13801.000000,22265.000000
10503.000000,34900.000000,13772.000000,22236.000000
10483.000000,34874.000000,13744.000000,22212.000000
10467.000000,34851.000000,13721.000000,22194.000000
10461.000000,34838.000000,13705.000000,22186.000000
10469.000000,34845.000000,13707.000000,22194.000000
10495.000000,34875.000000,13737.000000,22223.000000
10544.000000,34927.000000,13800.000000,22274.000000
10616.000000,35003.000000,13903.000000,22352.000000
10714.000000,35103.000000,14047.000000,22462.000000
10836.000000,35228.000000,14232.000000,22605.000000
10982.000000,35375.000000,14456.000000,22780.000000
11149.000000,35545.000000,14716.000000,22985.000000
11334.000000,35731.000000,15006.000000,23214.000000
11533.000000,35925.000000,15315.000000,23459.000000
11742.000000,36129.000000,15639.000000,23716.000000
11962.000000,36344.000000,15975.000000,23984.000000
12187.000000,36562.000000,16316.000000,24261.000000
12412.000000,36775.000000,16656.000000,24541.000000
12631.000000,36977.000000,16989.000000,24817.000000
12840.000000,37167.000000,17309.000000,25083.000000
13040.000000,37345.000000,17613.000000,25337.000000
13229.000000,37512.000000,17898.000000,25577.000000
13401.000000,37665.000000,18162.000000,25801.000000
13556.000000,37805.000000,18400.000000,26007.000000
13697.000000,37932.000000,18612.000000,26191.000000
13819.000000,38045.000000,18797.000000,26354.000000
13922.000000,38139.000000,18957.000000,26493.000000
14004.000000,38216.000000,19089.000000,26605.000000
14068.000000,38275.000000,19192.000000,26694.000000
14116.000000,38316.000000,19268.000000,26764.000000
14148.000000,38341.000000,19320.000000,26817.000000
14166.000000,38353.000000,19351.000000,26854.000000
14173.000000,38355.000000,19362.000000,26874.000000
14173.000000,38346.000000,19353.000000,26878.000000
14164.000000,38329.000000,19330.000000,26869.000000
14146.000000,38306.000000,19292.000000,26849.000000
14119.000000,38276.000000,19241.000000,26820.000000
14084.000000,38239.000000,19180.000000,26781.000000
14043.000000,38195.000000,19107.000000,26731.000000
13995.000000,38145.000000,19024.000000,26674.000000
13942.000000,38091.000000,18937.000000,26612.000000
13885.000000,38034.000000,18849.000000,26546.000000
13826.000000,37977.000000,18762.000000,26477.000000
13767.000000,37920.000000,18676.000000,26409.000000
13710.000000,37865.000000,18593.000000,26344.000000
13659.000000,37814.000000,18514.000000,26280.000000
13613.000000,37768.000000,18441.000000,26220.000000
13573.000000,37723.000000,18372.000000,26166.000000
13536.000000,37680.000000,18305.000000,26121.000000
13498.000000,37640.000000,18238.000000,26079.000000
13459.000000,37603.000000,18169.000000,26037.000000
13417.000000,37563.000000,18099.000000,25992.000000
13372.000000,37521.000000,18030.000000,25942.000000
13323.000000,37478.000000,17961.000000,25888.000000
13273.000000,37437.000000,17890.000000,25831.000000
13224.000000,37395.000000,17817.000000,25772.000000
13175.000000,37350.000000,17743.000000,25710.000000
13128.000000,37304.000000,17666.000000,25644.000000
13082.000000,37257.000000,17586.000000,25579.000000
13038.000000,37208.000000,17502.000000,25518.000000
12994.000000,37157.000000,17417.000000,25461.000000
12951.000000,37107.000000,17337.000000,25409.000000
12910.000000,37062.000000,17264.000000,25366.000000
12872.000000,37023.000000,17198.000000,25329.000000
12839.000000,36992.000000,17143.000000,25296.000000
12810.000000,36968.000000,17100.000000,25267.000000
12788.000000,36951.000000,17070.000000,25243.000000
12771.000000,36941.000000,17049.000000,25220.000000
12759.000000,36937.000000,17035.000000,25199.000000
12753.000000,36936.000000,17026.000000,25183.000000
12752.000000,36936.000000,17028.000000,25174.000000
12755.000000,36937.000000,17039.000000,25172.000000
12761.000000,36942.000000,17057.000000,25178.000000
12772.000000,36953.000000,17081.000000,25190.000000
12787.000000,36971.000000,17113.000000,25214.000000
12807.000000,36992.000000,17150.000000,25247.000000
12832.000000,37017.000000,17192.000000,25284.000000
12865.000000,37048.000000,17238.000000,25324.000000
12901.000000,37082.000000,17289.000000,25368.000000
12937.000000,37117.000000,17341.000000,25411.000000
12970.000000,37150.000000,17391.000000,25451.000000
13002.000000,37181.000000,17437.000000,25487.000000
13032.000000,37209.000000,17480.000000,25522.000000
13059.000000,37237.000000,17521.000000,25555.000000
13081.000000,37263.000000,17557.000000,25582.000000
13099.000000,37286.000000,17585.000000,25600.000000
13111.000000,37302.000000,17604.000000,25609.000000
13115.000000,37307.000000,17609.000000,25608.000000
13110.000000,37303.000000,17602.000000,25600.000000
13099.000000,37291.000000,17584.000000,25584.000000
13080.000000,37272.000000,17559.000000,25562.000000
13053.000000,37245.000000,17529.000000,25536.000000
13022.000000,37216.000000,17492.000000,25503.000000
12987.000000,37187.000000,17452.000000,25468.000000
12951.000000,37158.000000,17410.000000,25431.000000
12918.000000,37127.000000,17367.000000,25391.000000
12885.000000,37093.000000,17320.000000,25344.000000
12849.000000,37056.000000,17269.000000,25294.000000
12809.000000,37017.000000,17214.000000,25243.000000
12767.000000,36976.000000,17157.000000,25195.000000
12723.000000,36933.000000,17097.000000,25142.000000
12674.000000,36890.000000,17032.000000,25084.000000
12622.000000,36847.000000,16962.000000,25023.000000
12570.000000,36805.000000,16887.000000,24962.000000
12519.000000,36764.000000,16810.000000,24900.000000
12470.000000,36723.000000,16736.000000,24838.000000
12421.000000,36679.000000,16665.000000,24777.000000
12371.000000,36632.000000,16594.000000,24721.000000
12319.000000,36584.000000,16523.000000,24668.000000
12272.000000,36540.000000,16451.000000,24618.000000
12230.000000,36501.000000,16381.000000,24567.000000
12189.000000,36461.000000,16313.000000,24516.000000
12145.000000,36418.000000,16246.000000,24466.000000
12100.000000,36376.000000,16183.000000,24419.000000
12056.000000,36336.000000,16123.000000,24374.000000
12012.000000,36295.000000,16064.000000,24327.000000
11970.000000,36256.000000,16005.000000,24277.000000
11929.000000,36219.000000,15945.000000,24224.000000
11892.000000,36186.000000,15887.000000,24171.000000
11857.000000,36156.000000,15835.000000,24123.000000
11825.000000,36128.000000,15785.000000,24081.000000
11794.000000,36102.000000,15737.000000,24043.000000
11765.000000,36076.000000,15688.000000,24005.000000
11734.000000,36046.000000,15636.000000,23959.000000
11698.000000,36015.000000,15581.000000,23906.000000
11662.000000,35980.000000,15525.000000,23851.000000
11629.000000,35944.000000,15470.000000,23797.000000
11597.000000,35908.000000,15416.000000,23742.000000
11568.000000,35871.000000,15366.000000,23688.000000
11542.000000,35837.000000,15324.000000,23641.000000
11517.000000,35808.000000,15286.000000,23602.000000
11494.000000,35784.000000,15251.000000,23573.000000
11474.000000,35763.000000,15218.000000,23551.000000
11455.000000,35746.000000,15186.000000,23534.000000
11436.000000,35732.000000,15155.000000,23518.000000
11417.000000,35719.000000,15125.000000,23501.000000
11397.000000,35704.000000,15094.000000,23486.000000
11379.000000,35686.000000,15064.000000,23470.000000
11363.000000,35668.000000,15035.000000,23452.000000
11348.000000,35650.000000,15008.000000,23434.000000
11332.000000,35634.000000,14980.000000,23416.000000
11315.000000,35621.000000,14952.000000,23397.000000
11299.000000,35608.000000,14923.000000,23374.000000
11281.000000,35593.000000,14893.000000,23349.000000
11261.000000,35576.000000,14862.000000,23323.000000
11239.000000,35560.000000,14829.000000,23297.000000
11219.000000,35544.000000,14796.000000,23267.000000
11199.000000,35526.000000,14763.000000,23230.000000
11178.000000,35506.000000,14730.000000,23193.000000
11154.000000,35486.000000,14701.000000,23158.000000
11130.000000,35470.000000,14672.000000,23127.000000
11107.000000,35456.000000,14645.000000,23099.000000
11085.000000,35441.000000,14617.000000,23078.000000
11066.000000,35424.000000,14590.000000,23060.000000
11048.000000,35405.000000,14564.000000,23043.000000
11033.000000,35388.000000,14540.000000,23027.000000
11023.000000,35375.000000,14517.000000,23016.000000
11017.000000,35369.000000,14495.000000,23006.000000
11011.000000,35366.000000,14470.000000,22997.000000
11006.000000,35364.000000,14446.000000,22987.000000
10999.000000,35362.000000,14425.000000,22977.000000
10990.000000,35358.000000,14407.000000,22965.000000
10981.000000,35351.000000,14386.000000,22949.000000
10972.000000,35343.000000,14363.000000,22933.000000
10963.000000,35333.000000,14339.000000,22917.000000
10950.000000,35320.000000,14315.000000,22899.000000
10931.000000,35302.000000,14290.000000,22878.000000
10908.000000,35283.000000,14265.000000,22856.000000
10885.000000,35264.000000,14240.000000,22835.000000
10863.000000,35241.000000,14211.000000,22816.000000
10841.000000,35217.000000,14179.000000,22797.000000
10818.000000,35193.000000,14144.000000,22779.000000
10794.000000,35171.000000,14110.000000,22762.000000
10768.000000,35150.000000,14075.000000,22742.000000
10741.000000,35130.000000,14040.000000,22719.000000
10716.000000,35109.000000,14005.000000,22695.000000
10692.000000,35085.000000,13969.000000,22669.000000
10668.000000,35060.000000,13935.000000,22640.000000
10643.000000,35035.000000,13901.000000,22608.000000
10617.000000,35010.000000,13866.000000,22574.000000
10591.000000,34982.000000,13829.000000,22541.000000
10564.000000,34952.000000,13785.000000,22502.000000
10534.000000,34920.000000,13735.000000,22458.000000
10502.000000,34884.000000,13683.000000,22412.000000
10468.000000,34844.000000,13628.000000,22368.000000
10431.000000,34801.000000,13569.000000,22321.000000
10392.000000,34759.000000,13510.000000,22273.000000
10352.000000,34719.000000,13453.000000,22223.000000
10315.000000,34681.000000,13398.000000,22173.000000
10277.000000,34645.000000,13345.000000,22124.000000
10242.000000,34609.000000,13292.000000,22076.000000
10211.000000,34575.000000,13244.000000,22032.000000
10183.000000,34543.000000,13200.000000,21992.000000
10155.000000,34514.000000,13158.000000,21957.000000
10127.000000,34486.000000,13118.000000,21924.000000
10097.000000,34460.000000,13078.000000,21894.000000
10066.000000,34436.000000,13035.000000,21866.000000
10034.000000,34415.000000,12993.000000,21838.000000
10000.000000,34398.000000,12954.000000,21812.000000
9969.000000,34383.000000,12918.000000,21790.000000
9944.000000,34368.000000,12889.000000,21776.000000
9928.000000,34354.000000,12868.000000,21768.000000
9922.000000,34348.000000,12859.000000,21770.000000
9931.000000,34355.000000,12870.000000,21782.000000
9961.000000,34384.000000,12910.000000,21810.000000
10014.000000,34437.000000,12982.000000,21860.000000
10092.000000,34513.000000,13092.000000,21942.000000
10195.000000,34612.000000,13241.000000,22058.000000
10320.000000,34735.000000,13429.000000,22207.000000
10469.000000,34880.000000,13657.000000,22387.000000
10640.000000,35043.000000,13918.000000,22599.000000
10829.000000,35225.000000,14209.000000,22841.000000
11037.000000,35422.000000,14524.000000,23106.000000
11256.000000,35628.000000,14856.000000,23384.000000
11481.000000,35840.000000,15199.000000,23669.000000
11707.000000,36054.000000,15546.000000,23957.000000
11934.000000,36265.000000,15893.000000,24242.000000
12159.000000,36467.000000,16233.000000,24522.000000
12379.000000,36661.000000,16559.000000,24792.000000
12590.000000,36847.000000,16872.000000,25056.000000
12790.000000,37025.000000,17166.000000,25309.000000
12970.000000,37191.000000,17441.000000,25544.000000
13131.000000,37344.000000,17693.000000,25758.000000
13274.000000,37479.000000,17919.000000,25946.000000
13398.000000,37595.000000,18113.000000,26108.000000
13503.000000,37688.000000,18275.000000,26246.000000
13589.000000,37761.000000,18406.000000,26357.000000
13656.000000,37815.000000,18507.000000,26441.000000
13702.000000,37849.000000,18581.000000,26499.000000
13729.000000,37866.000000,18628.000000,26537.000000
13738.000000,37865.000000,18652.000000,26556.000000
13733.000000,37851.000000,18652.000000,26558.000000
13715.000000,37828.000000,18632.000000,26544.000000
13687.000000,37798.000000,18597.000000,26518.000000
13652.000000,37764.000000,18554.000000,26486.000000
13612.000000,37728.000000,18504.000000,26453.000000
13569.000000,37688.000000,18451.000000,26416.000000
13524.000000,37649.000000,18394.000000,26377.000000
13477.000000,37611.000000,18335.000000,26336.000000
13432.000000,37574.000000,18274.000000,26294.000000
13390.000000,37536.000000,18213.000000,26254.000000
13353.000000,37502.000000,18155.000000,26216.000000
13319.000000,37475.000000,18101.000000,26183.000000
13288.000000,37449.000000,18049.000000,26151.000000
13260.000000,37424.000000,17997.000000,26118.000000
13237.000000,37401.000000,17946.000000,26083.000000
13216.000000,37379.000000,17899.000000,26049.000000
13197.000000,37359.000000,17855.000000,26018.000000
13181.000000,37342.000000,17815.000000,25990.000000
13164.000000,37326.000000,17778.000000,25964.000000
13145.000000,37311.000000,17743.000000,25935.000000
13122.000000,37295.000000,17705.000000,25903.000000
13093.000000,37275.000000,17660.000000,25866.000000
13059.000000,37249.000000,17607.000000,25822.000000
13019.000000,37215.000000,17549.000000,25771.000000
12972.000000,37173.000000,17486.000000,25718.000000
12917.000000,37123.000000,17414.000000,25662.000000
12858.000000,37067.000000,17335.000000,25605.000000
12798.000000,37008.000000,17252.000000,25547.000000
12739.000000,36948.000000,17167.000000,25484.000000
12681.000000,36888.000000,17081.000000,25419.000000
12623.000000,36828.000000,16997.000000,25355.000000
12567.000000,36772.000000,16919.000000,25294.000000
12514.000000,36720.000000,16846.000000,25237.000000
12465.000000,36672.000000,16777.000000,25187.000000
12420.000000,36628.000000,16711.000000,25142.000000
12380.000000,36589.000000,16653.000000,25100.000000
12344.000000,36556.000000,16606.000000,25059.000000
12315.000000,36531.000000,16569.000000,25026.000000
12293.000000,36514.000000,16542.000000,25004.000000
12277.000000,36505.000000,16522.000000,24989.000000
12265.000000,36502.000000,16509.000000,24977.000000
12261.000000,36501.000000,16504.000000,24970.000000
12264.000000,36508.000000,16507.000000,24969.000000
12273.000000,36522.000000,16521.000000,24975.000000
12288.000000,36541.000000,16545.000000,24989.000000
12309.000000,36564.000000,16577.000000,25012.000000
12332.000000,36590.000000,16615.000000,25042.000000
12356.000000,36615.000000,16655.000000,25077.000000
12381.000000,36639.000000,16694.000000,25112.000000
12404.000000,36661.000000,16730.000000,25144.000000
12426.000000,36680.000000,16761.000000,25172.000000
12446.000000,36699.000000,16790.000000,25199.000000
12464.000000,36716.000000,16815.000000,25222.000000
12479.000000,36729.000000,16837.000000,25240.000000
12490.000000,36739.000000,16857.000000,25251.000000
12496.000000,36746.000000,16871.000000,25255.000000
12496.000000,36751.000000,16880.000000,25251.000000
12491.000000,36750.000000,16881.000000,25242.000000
12482.000000,36743.000000,16873.000000,25227.000000
12465.000000,36728.000000,16856.000000,25204.000000
12444.000000,36708.000000,16828.000000,25175.000000
12418.000000,36684.000000,16789.000000,25140.000000
12386.000000,36654.000000,16738.000000,25100.000000
12348.000000,36619.000000,16679.000000,25053.000000
12305.000000,36578.000000,16616.000000,24998.000000
12257.000000,36535.000000,16554.000000,24941.000000
12208.000000,36493.000000,16492.000000,24883.000000
12161.000000,36453.000000,16431.000000,24823.000000
12115.000000,36414.000000,16372.000000,24764.000000
12071.000000,36377.000000,16313.000000,24703.000000
12027.000000,36340.000000,16253.000000,24642.000000
11983.000000,36300.000000,16191.000000,24581.000000
11939.000000,36257.000000,16126.000000,24520.000000
11898.000000,36214.000000,16058.000000,24459.000000
11857.000000,36172.000000,15989.000000,24401.000000
11816.000000,36133.000000,15923.000000,24346.000000
11775.000000,36096.000000,15859.000000,24295.000000
11735.000000,36060.000000,15796.000000,24243.000000
11696.000000,36026.000000,15734.000000,24191.000000
11657.000000,35993.000000,15672.000000,24139.000000
11617.000000,35959.000000,15609.000000,24087.000000
11573.000000,35924.000000,15549.000000,24037.000000
11528.000000,35887.000000,15491.000000,23987.000000
11482.000000,35850.000000,15432.000000,23934.000000
11439.000000,35814.000000,15376.000000,23882.000000
11400.000000,35781.000000,15322.000000,23832.000000
11362.000000,35748.000000,15268.000000,23783.000000
11326.000000,35713.000000,15211.000000,23736.000000
11290.000000,35676.000000,15150.000000,23690.000000
11252.000000,35639.000000,15090.000000,23642.000000
11215.000000,35600.000000,15030.000000,23594.000000
11177.000000,35561.000000,14972.000000,23547.000000
11141.000000,35524.000000,14917.000000,23502.000000
11107.000000,35491.000000,14864.000000,23461.000000
11076.000000,35462.000000,14816.000000,23423.000000
11047.000000,35435.000000,14772.000000,23384.000000
11020.000000,35412.000000,14732.000000,23345.000000
10997.000000,35395.000000,14693.000000,23312.000000
10976.000000,35383.000000,14654.000000,23286.000000
10957.000000,35370.000000,14615.000000,23262.000000
10940.000000,35353.000000,14576.000000,23238.000000
10923.000000,35334.000000,14540.000000,23213.000000
10902.000000,35312.000000,14505.000000,23186.000000
10880.000000,35288.000000,14471.000000,23157.000000
10858.000000,35264.000000,14437.000000,23128.000000
10836.000000,35242.000000,14401.000000,23100.000000
10815.000000,35221.000000,14367.000000,23072.000000
10796.000000,35200.000000,14337.000000,23045.000000
10777.000000,35179.000000,14310.000000,23016.000000
10756.000000,35157.000000,14285.000000,22984.000000
10735.000000,35136.000000,14256.000000,22953.000000
10714.000000,35114.000000,14225.000000,22927.000000
10694.000000,35094.000000,14194.000000,22906.000000
10677.000000,35077.000000,14169.000000,22887.000000
10663.000000,35063.000000,14148.000000,22870.000000
10651.000000,35052.000000,14126.000000,22856.000000
10638.000000,35043.000000,14103.000000,22845.000000
10624.000000,35038.000000,14080.000000,22831.000000
10611.000000,35030.000000,14055.000000,22813.000000
10600.000000,35017.000000,14028.000000,22788.000000
10590.000000,35000.000000,14001.000000,22761.000000
10576.000000,34982.000000,13974.000000,22735.000000
10559.000000,34966.000000,13945.000000,22710.000000
10542.000000,34950.000000,13916.000000,22688.000000
10528.000000,34935.000000,13885.000000,22669.000000
10514.000000,34921.000000,13856.000000,22651.000000
10498.000000,34908.000000,13828.000000,22629.000000
10478.000000,34895.000000,13800.000000,22602.000000
10457.000000,34881.000000,13773.000000,22572.000000
10435.000000,34866.000000,13744.000000,22537.000000
10414.000000,34849.000000,13712.000000,22500.000000
10392.000000,34829.000000,13679.000000,22467.000000
10368.000000,34809.000000,13645.000000,22441.000000
10342.000000,34789.000000,13612.000000,22422.000000
10317.000000,34770.000000,13578.000000,22405.000000
10293.000000,34751.000000,13545.000000,22388.000000
10271.000000,34730.000000,13511.000000,22370.000000
10250.000000,34706.000000,13475.000000,22349.000000
10228.000000,34679.000000,13436.000000,22319.000000
10203.000000,34652.000000,13398.000000,22283.000000
10178.000000,34630.000000,13362.000000,22247.000000
10152.000000,34610.000000,13327.000000,22214.000000
10125.000000,34592.000000,13290.000000,22182.000000
10098.000000,34575.000000,13254.000000,22150.000000
10074.000000,34557.000000,13220.000000,22118.000000
10051.000000,34536.000000,13189.000000,22088.000000
10027.000000,34515.000000,13159.000000,22062.000000
10002.000000,34493.000000,13128.000000,22033.000000
9978.000000,34470.000000,13094.000000,22003.000000
9955.000000,34445.000000,13059.000000,21973.000000
9932.000000,34422.000000,13021.000000,21945.000000
9913.000000,34402.000000,12983.000000,21917.000000
9895.000000,34382.000000,12946.000000,21890.000000
9874.000000,34359.000000,12907.000000,21862.000000
9850.000000,34332.000000,12868.000000,21830.000000
9823.000000,34304.000000,12831.000000,21794.000000
9795.000000,34278.000000,12793.000000,21756.000000
9768.000000,34256.000000,12753.000000,21719.000000
9742.000000,34236.000000,12713.000000,21684.000000
9715.000000,34213.000000,12674.000000,21649.000000
9687.000000,34185.000000,12632.000000,21612.000000
9657.000000,34154.000000,12587.000000,21571.000000
9628.000000,34122.000000,12540.000000,21529.000000
9599.000000,34091.000000,12494.000000,21488.000000
9565.000000,34060.000000,12449.000000,21449.000000
9529.000000,34028.000000,12402.000000,21409.000000
9492.000000,33998.000000,12354.000000,21368.000000
9456.000000,33967.000000,12306.000000,21330.000000
9423.000000,33939.000000,12259.000000,21297.000000
9392.000000,33916.000000,12214.000000,21265.000000
9364.000000,33898.000000,12174.000000,21236.000000
9336.000000,33881.000000,12138.000000,21211.000000
9310.000000,33864.000000,12105.000000,21188.000000
9285.000000,33848.000000,12074.000000,21167.000000
9261.000000,33832.000000,12044.000000,21145.000000
9238.000000,33816.000000,12014.000000,21124.000000
9218.000000,33800.000000,11985.000000,21105.000000
9205.000000,33785.000000,11958.000000,21089.000000
9197.000000,33772.000000,11936.000000,21075.000000
9193.000000,33765.000000,11921.000000,21066.000000
9198.000000,33764.000000,11916.000000,21066.000000
9216.000000,33774.000000,11929.000000,21080.000000
9252.000000,33799.000000,11965.000000,21115.000000
9307.000000,33845.000000,12032.000000,21172.000000
9383.000000,33915.000000,12135.000000,21255.000000
9484.000000,34010.000000,12278.000000,21368.000000
9610.000000,34130.000000,12462.000000,21510.000000
9760.000000,34274.000000,12687.000000,21679.000000
9935.000000,34441.000000,12950.000000,21876.000000
10132.000000,34628.000000,13249.000000,22100.000000
10347.000000,34831.000000,13579.000000,22349.000000
10576.000000,35048.000000,13933.000000,22624.000000
10815.000000,35273.000000,14300.000000,22922.000000
11057.000000,35500.000000,14672.000000,23232.000000
11299.000000,35725.000000,15043.000000,23546.000000
11538.000000,35947.000000,15409.000000,23860.000000
11773.000000,36164.000000,15767.000000,24171.000000
12002.000000,36375.000000,16114.000000,24475.000000
12220.000000,36577.000000,16447.000000,24768.000000
12426.000000,36765.000000,16760.000000,25045.000000
12613.000000,36935.000000,17050.000000,25302.000000
12780.000000,37088.000000,17312.000000,25533.000000
12926.000000,37219.000000,17543.000000,25735.000000
13049.000000,37329.000000,17740.000000,25908.000000
13151.000000,37416.000000,17901.000000,26048.000000
13231.000000,37480.000000,18029.000000,26160.000000
13291.000000,37525.000000,18128.000000,26246.000000
13333.000000,37555.000000,18197.000000,26308.000000
13359.000000,37572.000000,18239.000000,26348.000000
13371.000000,37579.000000,18258.000000,26366.000000
13369.000000,37574.000000,18254.000000,26366.000000
13354.000000,37561.000000,18231.000000,26351.000000
13330.000000,37540.000000,18197.000000,26325.000000
13302.000000,37512.000000,18153.000000,26291.000000
13271.000000,37481.000000,18104.000000,26253.000000
13238.000000,37447.000000,18048.000000,26213.000000
13201.000000,37410.000000,17987.000000,26169.000000
13163.000000,37373.000000,17925.000000,26123.000000
13124.000000,37336.000000,17865.000000,26078.000000
13085.000000,37301.000000,17807.000000,26035.000000
13047.000000,37269.000000,17750.000000,25996.000000
13013.000000,37240.000000,17693.000000,25960.000000
12982.000000,37213.000000,17639.000000,25925.000000
12955.000000,37189.000000,17586.000000,25892.000000
12930.000000,37168.000000,17536.000000,25861.000000
12908.000000,37148.000000,17491.000000,25833.000000
12885.000000,37128.000000,17452.000000,25807.000000
12861.000000,37108.000000,17417.000000,25780.000000
12838.000000,37085.000000,17383.000000,25749.000000
12813.000000,37058.000000,17346.000000,25717.000000
12783.000000,37029.000000,17305.000000,25685.000000
12750.000000,36997.000000,17257.000000,25647.000000
12714.000000,36964.000000,17203.000000,25601.000000
12675.000000,36929.000000,17145.000000,25552.000000
12636.000000,36893.000000,17086.000000,25502.000000
12595.000000,36856.000000,17022.000000,25449.000000
12552.000000,36818.000000,16951.000000,25392.000000
12508.000000,36780.000000,16877.000000,25332.000000
12462.000000,36740.000000,16805.000000,25269.000000
12418.000000,36701.000000,16735.000000,25212.000000
12376.000000,36665.000000,16669.000000,25160.000000
12338.000000,36630.000000,16608.000000,25115.000000
12307.000000,36598.000000,16552.000000,25077.000000
12281.000000,36569.000000,16503.000000,25043.000000
12261.000000,36545.000000,16463.000000,25010.000000
12248.000000,36528.000000,16434.000000,24985.000000
12243.000000,36518.000000,16413.000000,24973.000000
12241.000000,36514.000000,16402.000000,24968.000000
12244.000000,36517.000000,16398.000000,24971.000000
12251.000000,36521.000000,16399.000000,24979.000000
12262.000000,36526.000000,16405.000000,24990.000000
12276.000000,36531.000000,16415.000000,24999.000000
12292.000000,36536.000000,16428.000000,25007.000000
12309.000000,36542.000000,16445.000000,25016.000000
12324.000000,36552.000000,16467.000000,25029.000000
12337.000000,36568.000000,16490.000000,25046.000000
12350.000000,36590.000000,16515.000000,25066.000000
12366.000000,36614.000000,16541.000000,25088.000000
12383.000000,36637.000000,16567.000000,25111.000000
12397.000000,36657.000000,16593.000000,25133.000000
12409.000000,36672.000000,16621.000000,25152.000000
12418.000000,36684.000000,16648.000000,25170.000000
12426.000000,36696.000000,16671.000000,25187.000000
12432.000000,36707.000000,16687.000000,25200.000000
12435.000000,36716.000000,16698.000000,25207.000000
12434.000000,36721.000000,16704.000000,25209.000000
12430.000000,36721.000000,16704.000000,25207.000000
12421.000000,36714.000000,16695.000000,25199.000000
12410.000000,36700.000000,16678.000000,25185.000000
12398.000000,36682.000000,16658.000000,25164.000000
12382.000000,36661.000000,16635.000000,25138.000000
12363.000000,36639.000000,16605.000000,25108.000000
12342.000000,36618.000000,16571.000000,25072.000000
12320.000000,36595.000000,16535.000000,25033.000000
12295.000000,36569.000000,16496.000000,24987.000000
12266.000000,36541.000000,16454.000000,24934.000000
12233.000000,36509.000000,16409.000000,24884.000000
12199.000000,36475.000000,16360.000000,24839.000000
12163.000000,36441.000000,16307.000000,24797.000000
12124.000000,36406.000000,16253.000000,24755.000000
12085.000000,36370.000000,16197.000000,24712.000000
12046.000000,36333.000000,16140.000000,24666.000000
12008.000000,36296.000000,16080.000000,24619.000000
11967.000000,36258.000000,16019.000000,24573.000000
11925.000000,36220.000000,15956.000000,24524.000000
11881.000000,36181.000000,15891.000000,24471.000000
11833.000000,36139.000000,15820.000000,24415.000000
11785.000000,36097.000000,15745.000000,24358.000000
11737.000000,36056.000000,15670.000000,24300.000000
11691.000000,36015.000000,15600.000000,24240.000000
11647.000000,35976.000000,15535.000000,24183.000000
11606.000000,35939.000000,15473.000000,24130.000000
11565.000000,35904.000000,15411.000000,24078.000000
11523.000000,35868.000000,15348.000000,24022.000000
11481.000000,35829.000000,15285.000000,23967.000000
11440.000000,35790.000000,15225.000000,23913.000000
11402.000000,35753.000000,15166.000000,23863.000000
11367.000000,35718.000000,15109.000000,23818.000000
11335.000000,35686.000000,15057.000000,23776.000000
11304.000000,35657.000000,15009.000000,23734.000000
11275.000000,35628.000000,14963.000000,23690.000000
11245.000000,35598.000000,14917.000000,23643.000000
11213.000000,35569.000000,14869.000000,23595.000000
11182.000000,35541.000000,14824.000000,23546.000000
11151.000000,35515.000000,14780.000000,23498.000000
11121.000000,35488.000000,14736.000000,23453.000000
11090.000000,35462.000000,14690.000000,23410.000000
11062.000000,35434.000000,14644.000000,23369.000000
11035.000000,35405.000000,14600.000000,23330.000000
11006.000000,35376.000000,14558.000000,23290.000000
10975.000000,35346.000000,14516.000000,23250.000000
10941.000000,35316.000000,14475.000000,23210.000000
10906.000000,35288.000000,14434.000000,23172.000000
10876.000000,35264.000000,14392.000000,23136.000000
10852.000000,35242.000000,14353.000000,23104.000000
10833.000000,35225.000000,14316.000000,23077.000000
10817.000000,35213.000000,14281.000000,23055.000000
10802.000000,35204.000000,14249.000000,23038.000000
10788.000000,35196.000000,14220.000000,23022.000000
10773.000000,35188.000000,14197.000000,23005.000000
10758.000000,35176.000000,14177.000000,22985.000000
10740.000000,35160.000000,14155.000000,22963.000000
10722.000000,35143.000000,14131.000000,22938.000000
10706.000000,35124.000000,14108.000000,22912.000000
10694.000000,35105.000000,14084.000000,22891.000000
10682.000000,35088.000000,14062.000000,22873.000000
10671.000000,35074.000000,14042.000000,22857.000000
10662.000000,35063.000000,14023.000000,22841.000000
10653.000000,35051.000000,14004.000000,22821.000000
10640.000000,35038.000000,13983.000000,22798.000000
10624.000000,35029.000000,13962.000000,22778.000000
10610.000000,35021.000000,13941.000000,22762.000000
10597.000000,35013.000000,13916.000000,22749.000000
10584.000000,35001.000000,13889.000000,22730.000000
10572.000000,34987.000000,13860.000000,22707.000000
10561.000000,34973.000000,13831.000000,22683.000000
10551.000000,34960.000000,13805.000000,22659.000000
10539.000000,34946.000000,13779.000000,22633.000000
10520.000000,34930.000000,13752.000000,22606.000000
10497.000000,34913.000000,13721.000000,22580.000000
10472.000000,34894.000000,13688.000000,22554.000000
10447.000000,34870.000000,13655.000000,22529.000000
10422.000000,34845.000000,13621.000000,22505.000000
10397.000000,34821.000000,13587.000000,22481.000000
10372.000000,34797.000000,13553.000000,22455.000000
10347.000000,34774.000000,13518.000000,22427.000000
10323.000000,34754.000000,13483.000000,22400.000000
10299.000000,34734.000000,13447.000000,22375.000000
10275.000000,34713.000000,13408.000000,22350.000000
10249.000000,34689.000000,13369.000000,22323.000000
10222.000000,34664.000000,13333.000000,22295.000000
10196.000000,34641.000000,13298.000000,22267.000000
10171.000000,34618.000000,13264.000000,22235.000000
10147.000000,34594.000000,13228.000000,22197.000000
10120.000000,34571.000000,13191.000000,22157.000000
10093.000000,34549.000000,13152.000000,22120.000000
10068.000000,34528.000000,13115.000000,22083.000000
10044.000000,34505.000000,13078.000000,22044.000000
10022.000000,34481.000000,13038.000000,22005.000000
10000.000000,34456.000000,12995.000000,21966.000000
9977.000000,34432.000000,12952.000000,21929.000000
9953.000000,34410.000000,12910.000000,21898.000000
9930.000000,34390.000000,12872.000000,21873.000000
9907.000000,34373.000000,12837.000000,21851.000000
9885.000000,34357.000000,12805.000000,21830.000000
9863.000000,34340.000000,12772.000000,21809.000000
9843.000000,34323.000000,12741.000000,21788.000000
9826.000000,34306.000000,12710.000000,21767.000000
9809.000000,34288.000000,12679.000000,21746.000000
9792.000000,34269.000000,12645.000000,21724.000000
9774.000000,34249.000000,12608.000000,21698.000000
9755.000000,34228.000000,12570.000000,21668.000000
9731.000000,34202.000000,12533.000000,21633.000000
9705.000000,34173.000000,12498.000000,21596.000000
9677.000000,34142.000000,12465.000000,21559.000000
9650.000000,34113.000000,12430.000000,21525.000000
9623.000000,34087.000000,12393.000000,21491.000000
9596.000000,34061.000000,12353.000000,21456.000000
9566.000000,34035.000000,12312.000000,21416.000000
9534.000000,34008.000000,12270.000000,21373.000000
9500.000000,33979.000000,12228.000000,21328.000000
9464.000000,33946.000000,12182.000000,21285.000000
9428.000000,33911.000000,12133.000000,21244.000000
9393.000000,33877.000000,12083.000000,21202.000000
9361.000000,33848.000000,12037.000000,21160.000000
9331.000000,33822.000000,11997.000000,21122.000000
9298.000000,33799.000000,11958.000000,21085.000000
9267.000000,33776.000000,11919.000000,21048.000000
9239.000000,33752.000000,11880.000000,21010.000000
9212.000000,33728.000000,11841.000000,20972.000000
9186.000000,33706.000000,11804.000000,20936.000000
9162.000000,33686.000000,11766.000000,20901.000000
9138.000000,33664.000000,11729.000000,20868.000000
9116.000000,33643.000000,11694.000000,20839.000000
9094.000000,33623.000000,11662.000000,20814.000000
9071.000000,33602.000000,11630.000000,20787.000000
9048.000000,33581.000000,11598.000000,20758.000000
9029.000000,33564.000000,11569.000000,20734.000000
9018.000000,33556.000000,11552.000000,20722.000000
9018.000000,33559.000000,11554.000000,20726.000000
9034.000000,33575.000000,11578.000000,20750.000000
9071.000000,33609.000000,11627.000000,20796.000000
9132.000000,33668.000000,11708.000000,20867.000000
9220.000000,33753.000000,11827.000000,20968.000000
9333.000000,33865.000000,11988.000000,21104.000000
9474.000000,34003.000000,12193.000000,21276.000000
9642.000000,34165.000000,12437.000000,21480.000000
9832.000000,34347.000000,12715.000000,21712.000000
10040.000000,34543.000000,13023.000000,21968.000000
10265.000000,34754.000000,13355.000000,22240.000000
10502.000000,34977.000000,13707.000000,22526.000000
10748.000000,35207.000000,14074.000000,22823.000000
10998.000000,35440.000000,14448.000000,23126.000000
11246.000000,35670.000000,14826.000000,23434.000000
11488.000000,35895.000000,15200.000000,23741.000000
11721.000000,36110.000000,15565.000000,24042.000000
11942.000000,36313.000000,15915.000000,24332.000000
12150.000000,36504.000000,16246.000000,24608.000000
12347.000000,36684.000000,16554.000000,24865.000000
12528.000000,36851.000000,16839.000000,25101.000000
12691.000000,37000.000000,17098.000000,25313.000000
12833.000000,37129.000000,17325.000000,25501.000000
12954.000000,37240.000000,17518.000000,25665.000000
13054.000000,37332.000000,17681.000000,25803.000000
13135.000000,37405.000000,17813.000000,25913.000000
13199.000000,37457.000000,17916.000000,25997.000000
13244.000000,37491.000000,17987.000000,26056.000000
13269.000000,37510.000000,18030.000000,26094.000000
13279.000000,37516.000000,18048.000000,26115.000000
13281.000000,37513.000000,18048.000000,26123.000000
13276.000000,37501.000000,18035.000000,26119.000000
13262.000000,37481.000000,18007.000000,26103.000000
13238.000000,37456.000000,17967.000000,26079.000000
13210.000000,37427.000000,17919.000000,26049.000000
13179.000000,37395.000000,17865.000000,26012.000000
13144.000000,37362.000000,17805.000000,25969.000000
13103.000000,37326.000000,17742.000000,25921.000000
13057.000000,37289.000000,17678.000000,25874.000000
13010.000000,37252.000000,17614.000000,25830.000000
12965.000000,37215.000000,17551.000000,25787.000000
12926.000000,37180.000000,17490.000000,25747.000000
12894.000000,37149.000000,17435.000000,25709.000000
12864.000000,37123.000000,17386.000000,25673.000000
12838.000000,37101.000000,17342.000000,25639.000000
12819.000000,37079.000000,17302.000000,25606.000000
12805.000000,37058.000000,17267.000000,25575.000000
12793.000000,37036.000000,17235.000000,25545.000000
12779.000000,37015.000000,17203.000000,25517.000000
12764.000000,36993.000000,17171.000000,25488.000000
12746.000000,36971.000000,17137.000000,25459.000000
12724.000000,36947.000000,17100.000000,25429.000000
12697.000000,36921.000000,17059.000000,25398.000000
12668.000000,36894.000000,17011.000000,25365.000000
12637.000000,36865.000000,16957.000000,25326.000000
12602.000000,36833.000000,16898.000000,25283.000000
12565.000000,36797.000000,16835.000000,25237.000000
12528.000000,36762.000000,16772.000000,25189.000000
12490.000000,36726.000000,16707.000000,25141.000000
12449.000000,36687.000000,16641.000000,25090.000000
12408.000000,36646.000000,16577.000000,25038.000000
12370.000000,36606.000000,16517.000000,24986.000000
12335.000000,36571.000000,16459.000000,24935.000000
12303.000000,36540.000000,16406.000000,24890.000000
12276.000000,36515.000000,16362.000000,24851.000000
12255.000000,36496.000000,16328.000000,24819.000000
12238.000000,36481.000000,16303.000000,24793.000000
12227.000000,36470.000000,16287.000000,24772.000000
12223.000000,36465.000000,16278.000000,24758.000000
12224.000000,36465.000000,16278.000000,24757.000000
12232.000000,36469.000000,16288.000000,24766.000000
12244.000000,36476.000000,16302.000000,24779.000000
12257.000000,36487.000000,16323.000000,24796.000000
12275.000000,36502.000000,16350.000000,24819.000000
12296.000000,36519.000000,16382.000000,24846.000000
12319.000000,36538.000000,16417.000000,24873.000000
12343.000000,36558.000000,16454.000000,24897.000000
12365.000000,36579.000000,16490.000000,24920.000000
12387.000000,36600.000000,16525.000000,24943.000000
12408.000000,36620.000000,16559.000000,24965.000000
12425.000000,36639.000000,16591.000000,24987.000000
12440.000000,36657.000000,16621.000000,25008.000000
12452.000000,36672.000000,16647.000000,25027.000000
12460.000000,36684.000000,16669.000000,25043.000000
12465.000000,36693.000000,16686.000000,25052.000000
12467.000000,36699.000000,16695.000000,25055.000000
12466.000000,36702.000000,16696.000000,25054.000000
12462.000000,36703.000000,16693.000000,25052.000000
12454.000000,36702.000000,16687.000000,25049.000000
12446.000000,36699.000000,16678.000000,25041.000000
12438.000000,36691.000000,16665.000000,25030.000000
12429.000000,36679.000000,16645.000000,25016.000000
12414.000000,36666.000000,16618.000000,24996.000000
12394.000000,36650.000000,16584.000000,24966.000000
12368.000000,36630.000000,16546.000000,24930.000000
12337.000000,36603.000000,16504.000000,24887.000000
12301.000000,36568.000000,16457.000000,24838.000000
12261.000000,36528.000000,16404.000000,24782.000000
12216.000000,36485.000000,16343.000000,24724.000000
12168.000000,36443.000000,16278.000000,24665.000000
12120.000000,36400.000000,16212.000000,24609.000000
12072.000000,36356.000000,16147.000000,24554.000000
12024.000000,36311.000000,16082.000000,24497.000000
11978.000000,36267.000000,16019.000000,24434.000000
11932.000000,36226.000000,15956.000000,24370.000000
11890.000000,36188.000000,15891.000000,24310.000000
11851.000000,36151.000000,15826.000000,24253.000000
11810.000000,36116.000000,15763.000000,24200.000000
11769.000000,36083.000000,15706.000000,24151.000000
11730.000000,36053.000000,15653.000000,24104.000000
11694.000000,36023.000000,15601.000000,24059.000000
11662.000000,35994.000000,15549.000000,24015.000000
11631.000000,35964.000000,15495.000000,23974.000000
11600.000000,35933.000000,15441.000000,23936.000000
11566.000000,35901.000000,15387.000000,23899.000000
11530.000000,35866.000000,15331.000000,23860.000000
11496.000000,35829.000000,15275.000000,23817.000000
11463.000000,35791.000000,15219.000000,23770.000000
11429.000000,35754.000000,15162.000000,23722.000000
11392.000000,35717.000000,15106.000000,23676.000000
11355.000000,35679.000000,15051.000000,23635.000000
11320.000000,35642.000000,14997.000000,23594.000000
11285.000000,35606.000000,14945.000000,23551.000000
11252.000000,35576.000000,14896.000000,23507.000000
11219.000000,35549.000000,14853.000000,23465.000000
11187.000000,35523.000000,14814.000000,23425.000000
11156.000000,35498.000000,14777.000000,23386.000000
11128.000000,35473.000000,14740.000000,23351.000000
11103.000000,35452.000000,14704.000000,23319.000000
11078.000000,35433.000000,14667.000000,23286.000000
11052.000000,35416.000000,14627.000000,23252.000000
11027.000000,35398.000000,14585.000000,23218.000000
11002.000000,35377.000000,14546.000000,23183.000000
10979.000000,35356.000000,14515.000000,23150.000000
10959.000000,35337.000000,14490.000000,23121.000000
10943.000000,35319.000000,14467.000000,23098.000000
10932.000000,35302.000000,14442.000000,23077.000000
10924.000000,35285.000000,14416.000000,23058.000000
10916.000000,35272.000000,14394.000000,23040.000000
10910.000000,35261.000000,14376.000000,23024.000000
10903.000000,35252.000000,14361.000000,23009.000000
10895.000000,35241.000000,14346.000000,22997.000000
10886.000000,35229.000000,14328.000000,22986.000000
10876.000000,35218.000000,14308.000000,22976.000000
10863.000000,35206.000000,14287.000000,22963.000000
10849.000000,35192.000000,14266.000000,22943.000000
10830.000000,35175.000000,14245.000000,22921.000000
10808.000000,35160.000000,14221.000000,22898.000000
10782.000000,35143.000000,14194.000000,22872.000000
10754.000000,35126.000000,14165.000000,22843.000000
10728.000000,35110.000000,14135.000000,22812.000000
10705.000000,35094.000000,14104.000000,22777.000000
10682.000000,35077.000000,14071.000000,22743.000000
10658.000000,35058.000000,14037.000000,22708.000000
10633.000000,35038.000000,14001.000000,22671.000000
10608.000000,35018.000000,13968.000000,22633.000000
10585.000000,34997.000000,13935.000000,22593.000000
10563.000000,34975.000000,13904.000000,22554.000000
10544.000000,34955.000000,13877.000000,22521.000000
10530.000000,34940.000000,13852.000000,22493.000000
10517.000000,34928.000000,13827.000000,22469.000000
10504.000000,34920.000000,13802.000000,22447.000000
10492.000000,34913.000000,13777.000000,22428.000000
10481.000000,34906.000000,13753.000000,22409.000000
10466.000000,34897.000000,13727.000000,22388.000000
10449.000000,34883.000000,13698.000000,22366.000000
10431.000000,34867.000000,13668.000000,22342.000000
10414.000000,34850.000000,13638.000000,22314.000000
10399.000000,34832.000000,13612.000000,22286.000000
10385.000000,34814.000000,13589.000000,22258.000000
10370.000000,34796.000000,13566.000000,22236.000000
10351.000000,34777.000000,13542.000000,22217.000000
10330.000000,34758.000000,13515.000000,22196.000000
10304.000000,34738.000000,13485.000000,22173.000000
10275.000000,34715.000000,13453.000000,22150.000000
10245.000000,34691.000000,13418.000000,22125.000000
10218.000000,34669.000000,13381.000000,22098.000000
10193.000000,34648.000000,13342.000000,22073.000000
10171.000000,34626.000000,13303.000000,22050.000000
10152.000000,34602.000000,13265.000000,22024.000000
10133.000000,34579.000000,13226.000000,21990.000000
10110.000000,34552.000000,13185.000000,21948.000000
10082.000000,34522.000000,13142.000000,21902.000000
10054.000000,34494.000000,13100.000000,21856.000000
10026.000000,34469.000000,13059.000000,21810.000000
9997.000000,34447.000000,13020.000000,21766.000000
9968.000000,34424.000000,12983.000000,21724.000000
9939.000000,34399.000000,12945.000000,21682.000000
9910.000000,34373.000000,12907.000000,21639.000000
9882.000000,34351.000000,12871.000000,21602.000000
9857.000000,34333.000000,12839.000000,21572.000000
9834.000000,34313.000000,12808.000000,21546.000000
9811.000000,34292.000000,12775.000000,21520.000000
9788.000000,34272.000000,12740.000000,21497.000000
9765.000000,34251.000000,12705.000000,21479.000000
9741.000000,34228.000000,12672.000000,21463.000000
9719.000000,34204.000000,12640.000000,21445.000000
9701.000000,34181.000000,12608.000000,21427.000000
9685.000000,34157.000000,12575.000000,21413.000000
9669.000000,34134.000000,12543.000000,21396.000000
9652.000000,34112.000000,12510.000000,21372.000000
9635.000000,34091.000000,12478.000000,21346.000000
9618.000000,34070.000000,12449.000000,21322.000000
9604.000000,34053.000000,12428.000000,21304.000000
9595.000000,34044.000000,12418.000000,21293.000000
9594.000000,34048.000000,12419.000000,21293.000000
9606.000000,34067.000000,12437.000000,21308.000000
9635.000000,34104.000000,12480.000000,21344.000000
9686.000000,34162.000000,12557.000000,21406.000000
9763.000000,34241.000000,12670.000000,21497.000000
9869.000000,34342.000000,12821.000000,21620.000000
10000.000000,34466.000000,13008.000000,21774.000000
10155.000000,34612.000000,13230.000000,21960.000000
10330.000000,34778.000000,13484.000000,22178.000000
10527.000000,34961.000000,13768.000000,22420.000000
10742.000000,35159.000000,14077.000000,22679.000000
10971.000000,35368.000000,14405.000000,22951.000000
11209.000000,35586.000000,14748.000000,23233.000000
11447.000000,35808.000000,15100.000000,23523.000000
11680.000000,36028.000000,15457.000000,23817.000000
11909.000000,36240.000000,15812.000000,24112.000000
12131.000000,36444.000000,16159.000000,24405.000000
12345.000000,36639.000000,16492.000000,24690.000000
12547.000000,36821.000000,16805.000000,24963.000000
12734.000000,36991.000000,17094.000000,25216.000000
12903.000000,37145.000000,17353.000000,25442.000000
13054.000000,37277.000000,17582.000000,25637.000000
13184.000000,37386.000000,17778.000000,25803.000000
13288.000000,37475.000000,17941.000000,25944.000000
13368.000000,37547.000000,18073.000000,26062.000000
13428.000000,37603.000000,18178.000000,26157.000000
13470.000000,37642.000000,18256.000000,26231.000000
13498.000000,37665.000000,18306.000000,26287.000000
13514.000000,37674.000000,18330.000000,26324.000000
13519.000000,37671.000000,18332.000000,26344.000000
13513.000000,37657.000000,18316.000000,26342.000000
13498.000000,37637.000000,18285.000000,26324.000000
13476.000000,37609.000000,18240.000000,26296.000000
13446.000000,37574.000000,18184.000000,26260.000000
13406.000000,37531.000000,18119.000000,26213.000000
13360.000000,37484.000000,18044.000000,26159.000000
13311.000000,37437.000000,17962.000000,26101.000000
13261.000000,37389.000000,17879.000000,26042.000000
13209.000000,37343.000000,17797.000000,25983.000000
13157.000000,37300.000000,17722.000000,25926.000000
13109.000000,37260.000000,17655.000000,25871.000000
13064.000000,37223.000000,17591.000000,25821.000000
13024.000000,37191.000000,17528.000000,25773.000000
12990.000000,37164.000000,17470.000000,25728.000000
12963.000000,37139.000000,17416.000000,25688.000000
12940.000000,37115.000000,17366.000000,25652.000000
12917.000000,37091.000000,17320.000000,25618.000000
12894.000000,37067.000000,17277.000000,25589.000000
12869.000000,37043.000000,17232.000000,25561.000000
12841.000000,37016.000000,17183.000000,25530.000000
12806.000000,36983.000000,17130.000000,25492.000000
12767.000000,36945.000000,17072.000000,25446.000000
12723.000000,36902.000000,17006.000000,25390.000000
12675.000000,36853.000000,16933.000000,25325.000000
12624.000000,36801.000000,16854.000000,25254.000000
12572.000000,36747.000000,16770.000000,25180.000000
12518.000000,36692.000000,16684.000000,25104.000000
12459.000000,36638.000000,16598.000000,25030.000000
12400.000000,36584.000000,16516.000000,24964.000000
12346.000000,36534.000000,16443.000000,24907.000000
12300.000000,36493.000000,16381.000000,24858.000000
12265.000000,36462.000000,16330.000000,24817.000000
12238.000000,36441.000000,16290.000000,24788.000000
12222.000000,36428.000000,16263.000000,24770.000000
12216.000000,36424.000000,16249.000000,24764.000000
12218.000000,36431.000000,16249.000000,24769.000000
12228.000000,36447.000000,16262.000000,24782.000000
12245.000000,36469.000000,16288.000000,24802.000000
12271.000000,36495.000000,16324.000000,24826.000000
12303.000000,36525.000000,16367.000000,24855.000000
12337.000000,36557.000000,16414.000000,24890.000000
12373.000000,36591.000000,16463.000000,24930.000000
12409.000000,36623.000000,16514.000000,24971.000000
12446.000000,36655.000000,16567.000000,25014.000000
12483.000000,36687.000000,16619.000000,25058.000000
12519.000000,36719.000000,16671.000000,25104.000000
12554.000000,36749.000000,16721.000000,25149.000000
12584.000000,36775.000000,16766.000000,25189.000000
12612.000000,36799.000000,16810.000000,25221.000000
12636.000000,36820.000000,16852.000000,25245.000000
12656.000000,36838.000000,16887.000000,25261.000000
12670.000000,36852.000000,16912.000000,25271.000000
12677.000000,36861.000000,16925.000000,25277.000000
12678.000000,36864.000000,16928.000000,25275.000000
12671.000000,36859.000000,16919.000000,25265.000000
12657.000000,36846.000000,16904.000000,25248.000000
12635.000000,36828.000000,16882.000000,25224.000000
12607.000000,36805.000000,16851.000000,25192.000000
12572.000000,36775.000000,16810.000000,25154.000000
12533.000000,36740.000000,16763.000000,25112.000000
12491.000000,36703.000000,16713.000000,25067.000000
12451.000000,36665.000000,16664.000000,25020.000000
12412.000000,36627.000000,16615.000000,24974.000000
12374.000000,36587.000000,16566.000000,24929.000000
12338.000000,36548.000000,16516.000000,24882.000000
12301.000000,36511.000000,16463.000000,24833.000000
12264.000000,36475.000000,16406.000000,24780.000000
12228.000000,36437.000000,16345.000000,24726.000000
12190.000000,36397.000000,16280.000000,24672.000000
12151.000000,36356.000000,16215.000000,24619.000000
12111.000000,36314.000000,16149.000000,24566.000000
12069.000000,36274.000000,16083.000000,24515.000000
12027.000000,36238.000000,16015.000000,24464.000000
11985.000000,36202.000000,15950.000000,24411.000000
11941.000000,36166.000000,15887.000000,24357.000000
11898.000000,36130.000000,15826.000000,24302.000000
11859.000000,36096.000000,15765.000000,24249.000000
11821.000000,36064.000000,15705.000000,24198.000000
11783.000000,36034.000000,15647.000000,24151.000000
11744.000000,36005.000000,15592.000000,24105.000000
11708.000000,35979.000000,15539.000000,24060.000000
11674.000000,35955.000000,15487.000000,24016.000000
11641.000000,35931.000000,15437.000000,23969.000000
11607.000000,35905.000000,15384.000000,23918.000000
11571.000000,35874.000000,15327.000000,23865.000000
11533.000000,35839.000000,15269.000000,23813.000000
11496.000000,35800.000000,15211.000000,23765.000000
11458.000000,35763.000000,15156.000000,23719.000000
11421.000000,35725.000000,15099.000000,23672.000000
11384.000000,35686.000000,15042.000000,23624.000000
11348.000000,35645.000000,14985.000000,23576.000000
11312.000000,35604.000000,14931.000000,23531.000000
11278.000000,35567.000000,14882.000000,23491.000000
11247.000000,35535.000000,14837.000000,23458.000000
11220.000000,35508.000000,14796.000000,23427.000000
11196.000000,35486.000000,14759.000000,23397.000000
11175.000000,35465.000000,14723.000000,23370.000000
11156.000000,35442.000000,14688.000000,23345.000000
11140.000000,35419.000000,14653.000000,23321.000000
11125.000000,35398.000000,14620.000000,23296.000000
11110.000000,35381.000000,14588.000000,23271.000000
11094.000000,35368.000000,14556.000000,23246.000000
11076.000000,35355.000000,14526.000000,23221.000000
11057.000000,35340.000000,14498.000000,23194.000000
11038.000000,35324.000000,14471.000000,23169.000000
11019.000000,35306.000000,14445.000000,23142.000000
11001.000000,35292.000000,14420.000000,23116.000000
10985.000000,35282.000000,14400.000000,23092.000000
10971.000000,35273.000000,14382.000000,23073.000000
10960.000000,35265.000000,14364.000000,23058.000000
10949.000000,35258.000000,14345.000000,23047.000000
10940.000000,35253.000000,14326.000000,23038.000000
10934.000000,35248.000000,14307.000000,23030.000000
10926.000000,35242.000000,14288.000000,23024.000000
10914.000000,35234.000000,14269.000000,23018.000000
10901.000000,35222.000000,14247.000000,23011.000000
10887.000000,35206.000000,14223.000000,23003.000000
10872.000000,35188.000000,14196.000000,22991.000000
10857.000000,35172.000000,14172.000000,22977.000000
10844.000000,35158.000000,14155.000000,22965.000000
10833.000000,35145.000000,14143.000000,22952.000000
10824.000000,35134.000000,14132.000000,22936.000000
10814.000000,35123.000000,14119.000000,22915.000000
10805.000000,35113.000000,14105.000000,22896.000000
10795.000000,35104.000000,14088.000000,22883.000000
10784.000000,35095.000000,14068.000000,22873.000000
10773.000000,35087.000000,14045.000000,22861.000000
10761.000000,35076.000000,14018.000000,22850.000000
10749.000000,35062.000000,13988.000000,22841.000000
10737.000000,35044.000000,13956.000000,22833.000000
10723.000000,35023.000000,13926.000000,22822.000000
10708.000000,35001.000000,13895.000000,22804.000000
10690.000000,34977.000000,13862.000000,22777.000000
10669.000000,34953.000000,13828.000000,22748.000000
10649.000000,34932.000000,13794.000000,22718.000000
10629.000000,34913.000000,13764.000000,22689.000000
10607.000000,34894.000000,13735.000000,22659.000000
10583.000000,34871.000000,13705.000000,22627.000000
10557.000000,34850.000000,13673.000000,22592.000000
10532.000000,34829.000000,13640.000000,22552.000000
10507.000000,34807.000000,13609.000000,22511.000000
10481.000000,34781.000000,13578.000000,22471.000000
10454.000000,34754.000000,13544.000000,22431.000000
10427.000000,34727.000000,13503.000000,22390.000000
10398.000000,34698.000000,13456.000000,22349.000000
10365.000000,34665.000000,13404.000000,22308.000000
10328.000000,34629.000000,13349.000000,22271.000000
10291.000000,34593.000000,13293.000000,22239.000000
10257.000000,34558.000000,13239.000000,22210.000000
10225.000000,34525.000000,13188.000000,22183.000000
10194.000000,34495.000000,13140.000000,22157.000000
10165.000000,34471.000000,13097.000000,22130.000000
10138.000000,34452.000000,13056.000000,22100.000000
10113.000000,34436.000000,13020.000000,22070.000000
10092.000000,34420.000000,12991.000000,22047.000000
10079.000000,34409.000000,12971.000000,22031.000000
10076.000000,34407.000000,12967.000000,22024.000000
10087.000000,34416.000000,12981.000000,22033.000000
10117.000000,34441.000000,13022.000000,22061.000000
10170.000000,34489.000000,13096.000000,22113.000000
10245.000000,34561.000000,13208.000000,22191.000000
10345.000000,34659.000000,13358.000000,22299.000000
10469.000000,34784.000000,13548.000000,22440.000000
10616.000000,34931.000000,13774.000000,22614.000000
10783.000000,35098.000000,14032.000000,22816.000000
10968.000000,35282.000000,14322.000000,23048.000000
11171.000000,35479.000000,14637.000000,23307.000000
11389.000000,35688.000000,14971.000000,23586.000000
11617.000000,35906.000000,15317.000000,23878.000000
11849.000000,36128.000000,15672.000000,24175.000000
12083.000000,36350.000000,16031.000000,24473.000000
12313.000000,36568.000000,16387.000000,24768.000000
12537.000000,36778.000000,16734.000000,25057.000000
12753.000000,36980.000000,17068.000000,25337.000000
12958.000000,37171.000000,17386.000000,25606.000000
13146.000000,37348.000000,17680.000000,25856.000000
13316.000000,37505.000000,17949.000000,26086.000000
13465.000000,37642.000000,18188.000000,26289.000000
13593.000000,37758.000000,18393.000000,26463.000000
13700.000000,37855.000000,18563.000000,26608.000000
13785.000000,37934.000000,18703.000000,26725.000000
13852.000000,37996.000000,18819.000000,26817.000000
13905.000000,38042.000000,18910.000000,26885.000000
13943.000000,38073.000000,18974.000000,26932.000000
13966.000000,38091.000000,19012.000000,26963.000000
13977.000000,38095.000000,19027.000000,26983.000000
13977.000000,38088.000000,19022.000000,26993.000000
13966.000000,38070.000000,19001.000000,26992.000000
13945.000000,38044.000000,18966.000000,26980.000000
13914.000000,38014.000000,18921.000000,26958.000000
13875.000000,37979.000000,18867.000000,26926.000000
13831.000000,37941.000000,18806.000000,26884.000000
13787.000000,37901.000000,18743.000000,26835.000000
13742.000000,37861.000000,18679.000000,26786.000000
13698.000000,37817.000000,18616.000000,26737.000000
13657.000000,37772.000000,18553.000000,26685.000000
13619.000000,37728.000000,18489.000000,26629.000000
13583.000000,37686.000000,18427.000000,26574.000000
13548.000000,37649.000000,18370.000000,26525.000000
13514.000000,37618.000000,18318.000000,26480.000000
13485.000000,37592.000000,18273.000000,26442.000000
13460.000000,37569.000000,18234.000000,26409.000000
13437.000000,37547.000000,18196.000000,26380.000000
13416.000000,37527.000000,18158.000000,26355.000000
13396.000000,37505.000000,18116.000000,26328.000000
13372.000000,37481.000000,18069.000000,26299.000000
13344.000000,37453.000000,18017.000000,26268.000000
13310.000000,37421.000000,17960.000000,26235.000000
