660nm,730nm,850nm,940nm
17608.000000,49594.000000,5264.000000,15685.000000
17587.000000,49576.000000,5210.000000,15642.000000
17547.000000,49532.000000,5129.000000,15548.000000
17494.000000,49470.000000,5033.000000,15434.000000
17458.000000,49434.000000,4966.000000,15366.000000
17428.000000,49409.000000,4912.000000,15316.000000
17376.000000,49354.000000,4827.000000,15224.000000
17316.000000,49289.000000,4730.000000,15120.000000
17272.000000,49251.000000,4658.000000,15057.000000
17231.000000,49219.000000,4591.000000,14997.000000
17170.000000,49159.000000,4493.000000,14887.000000
17108.000000,49092.000000,4386.000000,14771.000000
17066.000000,49050.000000,4303.000000,14696.000000
17025.000000,49009.000000,4221.000000,14618.000000
16965.000000,48939.000000,4110.000000,14500.000000
16906.000000,48871.000000,4009.000000,14396.000000
16868.000000,48831.000000,3943.000000,14343.000000
16829.000000,48788.000000,3876.000000,14286.000000
16776.000000,48722.000000,3786.000000,14187.000000
16731.000000,48668.000000,3708.000000,14101.000000
16705.000000,48642.000000,3663.000000,14060.000000
16673.000000,48606.000000,3612.000000,13999.000000
16622.000000,48546.000000,3537.000000,13892.000000
16579.000000,48501.000000,3473.000000,13800.000000
16554.000000,48488.000000,3434.000000,13751.000000
16520.000000,48463.000000,3378.000000,13680.000000
16471.000000,48412.000000,3292.000000,13570.000000
16434.000000,48374.000000,3222.000000,13487.000000
16414.000000,48357.000000,3180.000000,13448.000000
16381.000000,48321.000000,3117.000000,13381.000000
16330.000000,48257.000000,3028.000000,13279.000000
16294.000000,48212.000000,2960.000000,13212.000000
16273.000000,48192.000000,2914.000000,13181.000000
16236.000000,48151.000000,2844.000000,13121.000000
16182.000000,48087.000000,2751.000000,13036.000000
16147.000000,48050.000000,2687.000000,12992.000000
16130.000000,48043.000000,2651.000000,12975.000000
16102.000000,48017.000000,2593.000000,12911.000000
16062.000000,47974.000000,2520.000000,12811.000000
16038.000000,47952.000000,2476.000000,12752.000000
16021.000000,47944.000000,2447.000000,12721.000000
15980.000000,47907.000000,2385.000000,12654.000000
15933.000000,47856.000000,2307.000000,12571.000000
15911.000000,47837.000000,2264.000000,12532.000000
15899.000000,47832.000000,2239.000000,12507.000000
15866.000000,47800.000000,2186.000000,12434.000000
15828.000000,47761.000000,2126.000000,12355.000000
15820.000000,47762.000000,2111.000000,12338.000000
15834.000000,47786.000000,2131.000000,12360.000000
15846.000000,47802.000000,2152.000000,12377.000000
15876.000000,47835.000000,2206.000000,12435.000000
15956.000000,47923.000000,2336.000000,12591.000000
16065.000000,48043.000000,2520.000000,12797.000000
16180.000000,48161.000000,2730.000000,13003.000000
16316.000000,48306.000000,2988.000000,13253.000000
16489.000000,48501.000000,3312.000000,13587.000000
16679.000000,48712.000000,3661.000000,13944.000000
16865.000000,48906.000000,4000.000000,14273.000000
17060.000000,49110.000000,4354.000000,14619.000000
17276.000000,49344.000000,4741.000000,15011.000000
17481.000000,49570.000000,5116.000000,15384.000000
17659.000000,49764.000000,5451.000000,15703.000000
17837.000000,49957.000000,5779.000000,16020.000000
18026.000000,50162.000000,6111.000000,16360.000000
18196.000000,50342.000000,6404.000000,16663.000000
18339.000000,50483.000000,6642.000000,16905.000000
18477.000000,50619.000000,6866.000000,17142.000000
18613.000000,50764.000000,7089.000000,17388.000000
18719.000000,50882.000000,7268.000000,17577.000000
18793.000000,50962.000000,7392.000000,17699.000000
18863.000000,51039.000000,7504.000000,17820.000000
18932.000000,51119.000000,7613.000000,17953.000000
18970.000000,51166.000000,7677.000000,18032.000000
18982.000000,51175.000000,7696.000000,18053.000000
18998.000000,51190.000000,7717.000000,18087.000000
19018.000000,51213.000000,7741.000000,18132.000000
19011.000000,51203.000000,7721.000000,18118.000000
18981.000000,51163.000000,7664.000000,18058.000000
18961.000000,51143.000000,7622.000000,18027.000000
18949.000000,51138.000000,7595.000000,18022.000000
18915.000000,51101.000000,7540.000000,17976.000000
18865.000000,51044.000000,7466.000000,17900.000000
18836.000000,51016.000000,7422.000000,17863.000000
18820.000000,51007.000000,7393.000000,17845.000000
18781.000000,50968.000000,7329.000000,17779.000000
18731.000000,50913.000000,7249.000000,17688.000000
18700.000000,50882.000000,7195.000000,17631.000000
18675.000000,50857.000000,7146.000000,17580.000000
18627.000000,50796.000000,7056.000000,17481.000000
18569.000000,50721.000000,6949.000000,17366.000000
18524.000000,50669.000000,6863.000000,17285.000000
18472.000000,50618.000000,6771.000000,17197.000000
18395.000000,50536.000000,6641.000000,17052.000000
18312.000000,50446.000000,6503.000000,16899.000000
18247.000000,50380.000000,6396.000000,16790.000000
18190.000000,50321.000000,6294.000000,16686.000000
18119.000000,50240.000000,6168.000000,16549.000000
18054.000000,50161.000000,6053.000000,16426.000000
18013.000000,50110.000000,5977.000000,16350.000000
17974.000000,50065.000000,5906.000000,16270.000000
17919.000000,50005.000000,5816.000000,16150.000000
17872.000000,49956.000000,5745.000000,16052.000000
17849.000000,49939.000000,5713.000000,16015.000000
17827.000000,49917.000000,5681.000000,15982.000000
17791.000000,49871.000000,5630.000000,15924.000000
17769.000000,49846.000000,5605.000000,15899.000000
17775.000000,49858.000000,5622.000000,15929.000000
17781.000000,49869.000000,5637.000000,15951.000000
17774.000000,49863.000000,5635.000000,15945.000000
17784.000000,49879.000000,5659.000000,15977.000000
17817.000000,49924.000000,5715.000000,16056.000000
17840.000000,49953.000000,5755.000000,16104.000000
17849.000000,49959.000000,5773.000000,16108.000000
17873.000000,49981.000000,5813.000000,16138.000000
17913.000000,50020.000000,5875.000000,16201.000000
17935.000000,50035.000000,5909.000000,16228.000000
17938.000000,50027.000000,5915.000000,16225.000000
17954.000000,50042.000000,5940.000000,16262.000000
17982.000000,50079.000000,5980.000000,16327.000000
17988.000000,50089.000000,5986.000000,16343.000000
17977.000000,50072.000000,5966.000000,16320.000000
17976.000000,50072.000000,5965.000000,16324.000000
17979.000000,50083.000000,5966.000000,16338.000000
17954.000000,50062.000000,5926.000000,16301.000000
17917.000000,50022.000000,5864.000000,16238.000000
17900.000000,50009.000000,5830.000000,16210.000000
17889.000000,50005.000000,5807.000000,16186.000000
17853.000000,49967.000000,5750.000000,16104.000000
17804.000000,49913.000000,5680.000000,16007.000000
17775.000000,49885.000000,5634.000000,15954.000000
17752.000000,49862.000000,5588.000000,15912.000000
17707.000000,49807.000000,5503.000000,15829.000000
17656.000000,49743.000000,5409.000000,15738.000000
17623.000000,49706.000000,5342.000000,15684.000000
17588.000000,49667.000000,5273.000000,15623.000000
17527.000000,49595.000000,5169.000000,15511.000000
17461.000000,49519.000000,5061.000000,15401.000000
17412.000000,49470.000000,4980.000000,15334.000000
17361.000000,49419.000000,4897.000000,15253.000000
17290.000000,49338.000000,4785.000000,15118.000000
17223.000000,49263.000000,4681.000000,14985.000000
17178.000000,49219.000000,4603.000000,14899.000000
17127.000000,49167.000000,4512.000000,14803.000000
17058.000000,49087.000000,4393.000000,14674.000000
17000.000000,49020.000000,4287.000000,14575.000000
16961.000000,48983.000000,4211.000000,14522.000000
16910.000000,48935.000000,4128.000000,14442.000000
16842.000000,48865.000000,4025.000000,14324.000000
16788.000000,48812.000000,3943.000000,14238.000000
16750.000000,48785.000000,3886.000000,14197.000000
16699.000000,48738.000000,3808.000000,14124.000000
16632.000000,48666.000000,3703.000000,14008.000000
16578.000000,48610.000000,3616.000000,13921.000000
16544.000000,48578.000000,3554.000000,13868.000000
16498.000000,48526.000000,3472.000000,13777.000000
16437.000000,48451.000000,3372.000000,13650.000000
16393.000000,48398.000000,3300.000000,13563.000000
16365.000000,48370.000000,3250.000000,13512.000000
16323.000000,48320.000000,3174.000000,13428.000000
16270.000000,48252.000000,3080.000000,13324.000000
16240.000000,48215.000000,3017.000000,13274.000000
16225.000000,48206.000000,2980.000000,13260.000000
16194.000000,48180.000000,2924.000000,13207.000000
16153.000000,48144.000000,2857.000000,13135.000000
16132.000000,48139.000000,2826.000000,13109.000000
16127.000000,48149.000000,2818.000000,13108.000000
16110.000000,48130.000000,2783.000000,13064.000000
16085.000000,48099.000000,2735.000000,13004.000000
16078.000000,48094.000000,2717.000000,12989.000000
16080.000000,48095.000000,2706.000000,12986.000000
16062.000000,48065.000000,2661.000000,12932.000000
16036.000000,48023.000000,2600.000000,12859.000000
16025.000000,48007.000000,2562.000000,12826.000000
16010.000000,47994.000000,2526.000000,12795.000000
15970.000000,47952.000000,2462.000000,12715.000000
15930.000000,47908.000000,2403.000000,12636.000000
15915.000000,47898.000000,2387.000000,12614.000000
15910.000000,47902.000000,2392.000000,12612.000000
15902.000000,47897.000000,2397.000000,12603.000000
15924.000000,47919.000000,2445.000000,12650.000000
15996.000000,48002.000000,2574.000000,12791.000000
16095.000000,48116.000000,2752.000000,12975.000000
16204.000000,48238.000000,2956.000000,13173.000000
16348.000000,48399.000000,3221.000000,13440.000000
16532.000000,48615.000000,3560.000000,13794.000000
16728.000000,48843.000000,3924.000000,14166.000000
16921.000000,49057.000000,4284.000000,14516.000000
17132.000000,49289.000000,4669.000000,14895.000000
17365.000000,49549.000000,5084.000000,15316.000000
17586.000000,49794.000000,5477.000000,15713.000000
17783.000000,50005.000000,5828.000000,16060.000000
17986.000000,50219.000000,6177.000000,16419.000000
18198.000000,50442.000000,6527.000000,16799.000000
18387.000000,50634.000000,6833.000000,17125.000000
18546.000000,50791.000000,7091.000000,17385.000000
18703.000000,50954.000000,7345.000000,17649.000000
18859.000000,51122.000000,7593.000000,17917.000000
18978.000000,51250.000000,7783.000000,18113.000000
19058.000000,51333.000000,7916.000000,18245.000000
19137.000000,51418.000000,8043.000000,18383.000000
19216.000000,51504.000000,8161.000000,18513.000000
19263.000000,51547.000000,8223.000000,18567.000000
19280.000000,51556.000000,8241.000000,18568.000000
19302.000000,51576.000000,8264.000000,18595.000000
19320.000000,51599.000000,8281.000000,18631.000000
19302.000000,51582.000000,8249.000000,18609.000000
19268.000000,51539.000000,8190.000000,18552.000000
19255.000000,51518.000000,8157.000000,18528.000000
19249.000000,51505.000000,8132.000000,18507.000000
19219.000000,51464.000000,8072.000000,18434.000000
19173.000000,51409.000000,7995.000000,18353.000000
19143.000000,51376.000000,7941.000000,18320.000000
19117.000000,51347.000000,7895.000000,18288.000000
19072.000000,51289.000000,7821.000000,18208.000000
19020.000000,51223.000000,7740.000000,18121.000000
18982.000000,51182.000000,7685.000000,18071.000000
18941.000000,51140.000000,7624.000000,18010.000000
18874.000000,51064.000000,7522.000000,17894.000000
18808.000000,50982.000000,7410.000000,17774.000000
18764.000000,50924.000000,7318.000000,17691.000000
18713.000000,50859.000000,7213.000000,17597.000000
18635.000000,50763.000000,7073.000000,17456.000000
18560.000000,50677.000000,6941.000000,17325.000000
18507.000000,50624.000000,6843.000000,17238.000000
18450.000000,50568.000000,6741.000000,17137.000000
18372.000000,50487.000000,6615.000000,16993.000000
18307.000000,50420.000000,6509.000000,16877.000000
18270.000000,50386.000000,6444.000000,16819.000000
18231.000000,50346.000000,6376.000000,16751.000000
18181.000000,50286.000000,6292.000000,16651.000000
18151.000000,50246.000000,6235.000000,16584.000000
18148.000000,50242.000000,6220.000000,16568.000000
18142.000000,50234.000000,6202.000000,16539.000000
18128.000000,50215.000000,6171.000000,16491.000000
18131.000000,50221.000000,6169.000000,16490.000000
18153.000000,50257.000000,6198.000000,16535.000000
18166.000000,50278.000000,6213.000000,16558.000000
18168.000000,50275.000000,6211.000000,16557.000000
18189.000000,50292.000000,6240.000000,16597.000000
18225.000000,50329.000000,6295.000000,16661.000000
18246.000000,50344.000000,6327.000000,16676.000000
18252.000000,50343.000000,6338.000000,16660.000000
18274.000000,50366.000000,6372.000000,16685.000000
18302.000000,50403.000000,6416.000000,16738.000000
18308.000000,50410.000000,6428.000000,16754.000000
18302.000000,50397.000000,6421.000000,16745.000000
18311.000000,50404.000000,6441.000000,16770.000000
18328.000000,50421.000000,6470.000000,16804.000000
18323.000000,50408.000000,6461.000000,16787.000000
18309.000000,50384.000000,6435.000000,16754.000000
18314.000000,50386.000000,6431.000000,16767.000000
18327.000000,50395.000000,6433.000000,16789.000000
18323.000000,50377.000000,6405.000000,16760.000000
18314.000000,50352.000000,6370.000000,16713.000000
18323.000000,50357.000000,6360.000000,16703.000000
18329.000000,50362.000000,6348.000000,16695.000000
18306.000000,50333.000000,6294.000000,16638.000000
18279.000000,50298.000000,6233.000000,16581.000000
18273.000000,50292.000000,6197.000000,16572.000000
18263.000000,50283.000000,6159.000000,16554.000000
18227.000000,50241.000000,6089.000000,16481.000000
18190.000000,50199.000000,6025.000000,16412.000000
18172.000000,50180.000000,5989.000000,16386.000000
18149.000000,50149.000000,5939.000000,16339.000000
18103.000000,50087.000000,5851.000000,16234.000000
18061.000000,50034.000000,5772.000000,16143.000000
18038.000000,50012.000000,5723.000000,16097.000000
18007.000000,49981.000000,5662.000000,16026.000000
17957.000000,49922.000000,5568.000000,15908.000000
17915.000000,49873.000000,5483.000000,15815.000000
17888.000000,49851.000000,5424.000000,15768.000000
17853.000000,49814.000000,5349.000000,15697.000000
17800.000000,49750.000000,5249.000000,15588.000000
17758.000000,49702.000000,5171.000000,15509.000000
17734.000000,49683.000000,5122.000000,15471.000000
17698.000000,49649.000000,5055.000000,15400.000000
17649.000000,49594.000000,4964.000000,15289.000000
17616.000000,49559.000000,4897.000000,15212.000000
17597.000000,49544.000000,4859.000000,15173.000000
17561.000000,49505.000000,4800.000000,15102.000000
17507.000000,49443.000000,4718.000000,15002.000000
17466.000000,49402.000000,4658.000000,14938.000000
17436.000000,49381.000000,4613.000000,14898.000000
17389.000000,49337.000000,4539.000000,14818.000000
17331.000000,49274.000000,4447.000000,14716.000000
17295.000000,49238.000000,4385.000000,14661.000000
17267.000000,49217.000000,4337.000000,14630.000000
17218.000000,49168.000000,4260.000000,14553.000000
17161.000000,49103.000000,4169.000000,14453.000000
17123.000000,49064.000000,4108.000000,14394.000000
17098.000000,49037.000000,4058.000000,14350.000000
17056.000000,48983.000000,3978.000000,14262.000000
17009.000000,48919.000000,3889.000000,14163.000000
16980.000000,48884.000000,3831.000000,14106.000000
16953.000000,48854.000000,3779.000000,14055.000000
16901.000000,48796.000000,3692.000000,13960.000000
16847.000000,48734.000000,3599.000000,13864.000000
16815.000000,48702.000000,3539.000000,13820.000000
16785.000000,48671.000000,3483.000000,13780.000000
16737.000000,48613.000000,3402.000000,13691.000000
16692.000000,48561.000000,3328.000000,13604.000000
16672.000000,48540.000000,3291.000000,13562.000000
16653.000000,48518.000000,3255.000000,13512.000000
16617.000000,48472.000000,3191.000000,13425.000000
16591.000000,48439.000000,3143.000000,13363.000000
16591.000000,48446.000000,3138.000000,13361.000000
16593.000000,48458.000000,3141.000000,13358.000000
16590.000000,48459.000000,3141.000000,13336.000000
16619.000000,48491.000000,3192.000000,13374.000000
16694.000000,48575.000000,3318.000000,13507.000000
16783.000000,48676.000000,3475.000000,13672.000000
16878.000000,48782.000000,3649.000000,13850.000000
17009.000000,48931.000000,3886.000000,14102.000000
17177.000000,49134.000000,4194.000000,14432.000000
17349.000000,49345.000000,4520.000000,14762.000000
17523.000000,49546.000000,4851.000000,15081.000000
17727.000000,49772.000000,5223.000000,15449.000000
17955.000000,50024.000000,5627.000000,15860.000000
18170.000000,50255.000000,6007.000000,16241.000000
18366.000000,50457.000000,6356.000000,16591.000000
18565.000000,50670.000000,6712.000000,16961.000000
18760.000000,50891.000000,7066.000000,17334.000000
18926.000000,51072.000000,7366.000000,17636.000000
19065.000000,51215.000000,7615.000000,17882.000000
19203.000000,51360.000000,7856.000000,18143.000000
19333.000000,51502.000000,8085.000000,18398.000000
19432.000000,51602.000000,8259.000000,18582.000000
19512.000000,51672.000000,8393.000000,18717.000000
19598.000000,51754.000000,8530.000000,18864.000000
19676.000000,51836.000000,8655.000000,18998.000000
19718.000000,51877.000000,8723.000000,19064.000000
19738.000000,51891.000000,8755.000000,19098.000000
19768.000000,51916.000000,8793.000000,19152.000000
19795.000000,51937.000000,8821.000000,19195.000000
19796.000000,51925.000000,8805.000000,19182.000000
19790.000000,51904.000000,8774.000000,19156.000000
19800.000000,51908.000000,8766.000000,19167.000000
19808.000000,51913.000000,8759.000000,19176.000000
19795.000000,51891.000000,8721.000000,19138.000000
19777.000000,51868.000000,8680.000000,19102.000000
19772.000000,51870.000000,8666.000000,19108.000000
19764.000000,51871.000000,8648.000000,19101.000000
19738.000000,51847.000000,8603.000000,19047.000000
19715.000000,51829.000000,8565.000000,19001.000000
19709.000000,51837.000000,8557.000000,18995.000000
19700.000000,51832.000000,8536.000000,18970.000000
19672.000000,51794.000000,8480.000000,18891.000000
19650.000000,51761.000000,8427.000000,18817.000000
19637.000000,51746.000000,8391.000000,18778.000000
19607.000000,51707.000000,8333.000000,18711.000000
19554.000000,51632.000000,8238.000000,18594.000000
19504.000000,51563.000000,8149.000000,18492.000000
19463.000000,51514.000000,8074.000000,18423.000000
19402.000000,51447.000000,7972.000000,18327.000000
19322.000000,51353.000000,7841.000000,18196.000000
19253.000000,51275.000000,7730.000000,18097.000000
19205.000000,51224.000000,7648.000000,18035.000000
19154.000000,51164.000000,7555.000000,17949.000000
19099.000000,51093.000000,7449.000000,17846.000000
19067.000000,51055.000000,7376.000000,17793.000000
19056.000000,51048.000000,7341.000000,17775.000000
19039.000000,51026.000000,7298.000000,17725.000000
19015.000000,50990.000000,7246.000000,17656.000000
19012.000000,50985.000000,7228.000000,17637.000000
19024.000000,51004.000000,7239.000000,17652.000000
19024.000000,51004.000000,7237.000000,17632.000000
19019.000000,50993.000000,7228.000000,17596.000000
19039.000000,51014.000000,7252.000000,17607.000000
19074.000000,51057.000000,7297.000000,17644.000000
19092.000000,51080.000000,7320.000000,17646.000000
19100.000000,51091.000000,7332.000000,17642.000000
19126.000000,51127.000000,7372.000000,17691.000000
19158.000000,51173.000000,7420.000000,17757.000000
19173.000000,51195.000000,7436.000000,17776.000000
19182.000000,51207.000000,7443.000000,17782.000000
19207.000000,51243.000000,7476.000000,17829.000000
19230.000000,51278.000000,7509.000000,17875.000000
19232.000000,51276.000000,7506.000000,17867.000000
19231.000000,51265.000000,7496.000000,17848.000000
19245.000000,51280.000000,7510.000000,17861.000000
19256.000000,51290.000000,7515.000000,17862.000000
19245.000000,51265.000000,7480.000000,17819.000000
19229.000000,51236.000000,7441.000000,17783.000000
19227.000000,51227.000000,7425.000000,17787.000000
19215.000000,51206.000000,7392.000000,17770.000000
19177.000000,51149.000000,7317.000000,17697.000000
19136.000000,51092.000000,7239.000000,17628.000000
19107.000000,51060.000000,7185.000000,17593.000000
19068.000000,51015.000000,7116.000000,17534.000000
19010.000000,50938.000000,7014.000000,17431.000000
18961.000000,50874.000000,6922.000000,17347.000000
18933.000000,50841.000000,6858.000000,17298.000000
18893.000000,50797.000000,6778.000000,17219.000000
18828.000000,50727.000000,6672.000000,17096.000000
18770.000000,50672.000000,6584.000000,16994.000000
18726.000000,50640.000000,6523.000000,16924.000000
18667.000000,50586.000000,6441.000000,16821.000000
18590.000000,50499.000000,6329.000000,16681.000000
18529.000000,50428.000000,6237.000000,16577.000000
18486.000000,50386.000000,6169.000000,16511.000000
18434.000000,50331.000000,6083.000000,16412.000000
18373.000000,50261.000000,5979.000000,16284.000000
18335.000000,50220.000000,5904.000000,16199.000000
18317.000000,50203.000000,5853.000000,16145.000000
18280.000000,50159.000000,5774.000000,16049.000000
18222.000000,50094.000000,5675.000000,15933.000000
18178.000000,50052.000000,5599.000000,15869.000000
18142.000000,50026.000000,5534.000000,15829.000000
18084.000000,49973.000000,5439.000000,15740.000000
18016.000000,49903.000000,5334.000000,15630.000000
17969.000000,49859.000000,5261.000000,15567.000000
17930.000000,49826.000000,5203.000000,15514.000000
17872.000000,49767.000000,5118.000000,15411.000000
17810.000000,49700.000000,5024.000000,15298.000000
17772.000000,49660.000000,4963.000000,15236.000000
17739.000000,49626.000000,4907.000000,15186.000000
17683.000000,49563.000000,4820.000000,15091.000000
17624.000000,49495.000000,4731.000000,14996.000000
17591.000000,49457.000000,4673.000000,14956.000000
17565.000000,49425.000000,4617.000000,14916.000000
17523.000000,49367.000000,4534.000000,14822.000000
17481.000000,49310.000000,4454.000000,14727.000000
17459.000000,49282.000000,4407.000000,14674.000000
17435.000000,49251.000000,4355.000000,14608.000000
17391.000000,49192.000000,4269.000000,14493.000000
17349.000000,49142.000000,4188.000000,14391.000000
17327.000000,49122.000000,4135.000000,14337.000000
17297.000000,49094.000000,4074.000000,14268.000000
17249.000000,49041.000000,3988.000000,14160.000000
17213.000000,48999.000000,3915.000000,14083.000000
17198.000000,48986.000000,3873.000000,14056.000000
17177.000000,48963.000000,3824.000000,14010.000000
17139.000000,48918.000000,3750.000000,13927.000000
17113.000000,48887.000000,3693.000000,13873.000000
17104.000000,48882.000000,3660.000000,13861.000000
17081.000000,48862.000000,3612.000000,13819.000000
17040.000000,48817.000000,3541.000000,13738.000000
17009.000000,48785.000000,3488.000000,13688.000000
16988.000000,48772.000000,3455.000000,13671.000000
16951.000000,48738.000000,3400.000000,13616.000000
16897.000000,48681.000000,3322.000000,13527.000000
16861.000000,48644.000000,3267.000000,13480.000000
16847.000000,48633.000000,3240.000000,13469.000000
16830.000000,48616.000000,3207.000000,13431.000000
16818.000000,48603.000000,3186.000000,13389.000000
16846.000000,48638.000000,3236.000000,13425.000000
16913.000000,48722.000000,3357.000000,13538.000000
16993.000000,48815.000000,3508.000000,13672.000000
17095.000000,48927.000000,3697.000000,13843.000000
17245.000000,49096.000000,3965.000000,14111.000000
17430.000000,49308.000000,4294.000000,14453.000000
17625.000000,49521.000000,4637.000000,14800.000000
17836.000000,49748.000000,5002.000000,15167.000000
18080.000000,50018.000000,5421.000000,15601.000000
18337.000000,50306.000000,5861.000000,16053.000000
18577.000000,50566.000000,6272.000000,16459.000000
18809.000000,50809.000000,6667.000000,16847.000000
19050.000000,51064.000000,7073.000000,17259.000000
19279.000000,51309.000000,7460.000000,17654.000000
19472.000000,51512.000000,7788.000000,17982.000000
19651.000000,51698.000000,8084.000000,18282.000000
19834.000000,51893.000000,8374.000000,18596.000000
19999.000000,52070.000000,8628.000000,18874.000000
20127.000000,52200.000000,8818.000000,19077.000000
20243.000000,52313.000000,8982.000000,19253.000000
20358.000000,52436.000000,9146.000000,19439.000000
20446.000000,52534.000000,9273.000000,19584.000000
20494.000000,52585.000000,9344.000000,19660.000000
20534.000000,52626.000000,9404.000000,19734.000000
20583.000000,52680.000000,9476.000000,19833.000000
20616.000000,52712.000000,9522.000000,19900.000000
20623.000000,52710.000000,9521.000000,19914.000000
20637.000000,52715.000000,9524.000000,19936.000000
20668.000000,52745.000000,9551.000000,19985.000000
20685.000000,52760.000000,9560.000000,20000.000000
20680.000000,52745.000000,9540.000000,19968.000000
20686.000000,52745.000000,9537.000000,19961.000000
20710.000000,52770.000000,9560.000000,19989.000000
20721.000000,52780.000000,9564.000000,19987.000000
20711.000000,52762.000000,9538.000000,19945.000000
20705.000000,52751.000000,9522.000000,19920.000000
20701.000000,52746.000000,9513.000000,19901.000000
20663.000000,52701.000000,9463.000000,19822.000000
20589.000000,52610.000000,9366.000000,19690.000000
20509.000000,52517.000000,9262.000000,19572.000000
20421.000000,52420.000000,9143.000000,19457.000000
20300.000000,52283.000000,8975.000000,19281.000000
20160.000000,52119.000000,8776.000000,19068.000000
20039.000000,51978.000000,8596.000000,18889.000000
19929.000000,51855.000000,8429.000000,18726.000000
19804.000000,51712.000000,8236.000000,18526.000000
19676.000000,51564.000000,8037.000000,18320.000000
19577.000000,51453.000000,7879.000000,18169.000000
19498.000000,51364.000000,7747.000000,18044.000000
19410.000000,51263.000000,7603.000000,17894.000000
19330.000000,51167.000000,7469.000000,17759.000000
19284.000000,51112.000000,7384.000000,17696.000000
19252.000000,51077.000000,7320.000000,17654.000000
19209.000000,51025.000000,7239.000000,17577.000000
19170.000000,50978.000000,7166.000000,17506.000000
19155.000000,50965.000000,7132.000000,17482.000000
19143.000000,50960.000000,7107.000000,17457.000000
19114.000000,50934.000000,7063.000000,17398.000000
19095.000000,50916.000000,7031.000000,17364.000000
19102.000000,50933.000000,7039.000000,17394.000000
19114.000000,50954.000000,7056.000000,17427.000000
19115.000000,50956.000000,7056.000000,17420.000000
19130.000000,50973.000000,7074.000000,17427.000000
19167.000000,51021.000000,7128.000000,17485.000000
19194.000000,51060.000000,7173.000000,17528.000000
19199.000000,51068.000000,7187.000000,17529.000000
19215.000000,51083.000000,7208.000000,17556.000000
19247.000000,51125.000000,7250.000000,17616.000000
19261.000000,51155.000000,7270.000000,17636.000000
19250.000000,51149.000000,7257.000000,17602.000000
19246.000000,51143.000000,7254.000000,17585.000000
19253.000000,51150.000000,7268.000000,17597.000000
19237.000000,51132.000000,7252.000000,17576.000000
19196.000000,51081.000000,7196.000000,17517.000000
19163.000000,51042.000000,7146.000000,17482.000000
19146.000000,51025.000000,7112.000000,17476.000000
19114.000000,50991.000000,7058.000000,17432.000000
19067.000000,50936.000000,6984.000000,17353.000000
19036.000000,50899.000000,6935.000000,17307.000000
19017.000000,50881.000000,6903.000000,17282.000000
18980.000000,50839.000000,6841.000000,17210.000000
18930.000000,50777.000000,6759.000000,17110.000000
18898.000000,50741.000000,6707.000000,17051.000000
18881.000000,50722.000000,6673.000000,17011.000000
18848.000000,50677.000000,6606.000000,16921.000000
18802.000000,50613.000000,6520.000000,16806.000000
18770.000000,50572.000000,6459.000000,16737.000000
18740.000000,50537.000000,6405.000000,16689.000000
18686.000000,50474.000000,6319.000000,16595.000000
18622.000000,50401.000000,6221.000000,16488.000000
18577.000000,50354.000000,6153.000000,16428.000000
18536.000000,50318.000000,6093.000000,16380.000000
18475.000000,50259.000000,6002.000000,16285.000000
18411.000000,50199.000000,5905.000000,16185.000000
18371.000000,50170.000000,5841.000000,16131.000000
18338.000000,50149.000000,5782.000000,16083.000000
18288.000000,50100.000000,5697.000000,15995.000000
18241.000000,50049.000000,5615.000000,15912.000000
18216.000000,50027.000000,5561.000000,15875.000000
18188.000000,50001.000000,5503.000000,15830.000000
18136.000000,49943.000000,5411.000000,15733.000000
18085.000000,49887.000000,5323.000000,15639.000000
18054.000000,49859.000000,5266.000000,15585.000000
18014.000000,49823.000000,5200.000000,15513.000000
17952.000000,49756.000000,5101.000000,15395.000000
17899.000000,49698.000000,5010.000000,15302.000000
17870.000000,49671.000000,4950.000000,15267.000000
17835.000000,49635.000000,4884.000000,15216.000000
17781.000000,49570.000000,4794.000000,15122.000000
17738.000000,49519.000000,4725.000000,15052.000000
17718.000000,49501.000000,4692.000000,15025.000000
17689.000000,49472.000000,4649.000000,14970.000000
17641.000000,49414.000000,4577.000000,14873.000000
17608.000000,49372.000000,4522.000000,14809.000000
17595.000000,49357.000000,4491.000000,14785.000000
17567.000000,49325.000000,4439.000000,14723.000000
17516.000000,49264.000000,4363.000000,14620.000000
17475.000000,49219.000000,4305.000000,14551.000000
17445.000000,49193.000000,4263.000000,14512.000000
17397.000000,49145.000000,4189.000000,14430.000000
17330.000000,49077.000000,4085.000000,14315.000000
17273.000000,49027.000000,3999.000000,14238.000000
17227.000000,48990.000000,3926.000000,14184.000000
17165.000000,48925.000000,3826.000000,14085.000000
17096.000000,48848.000000,3716.000000,13964.000000
17051.000000,48802.000000,3638.000000,13887.000000
17016.000000,48774.000000,3579.000000,13832.000000
16959.000000,48721.000000,3494.000000,13736.000000
16892.000000,48655.000000,3398.000000,13627.000000
16846.000000,48616.000000,3335.000000,13564.000000
16809.000000,48592.000000,3285.000000,13518.000000
16757.000000,48541.000000,3206.000000,13428.000000
16702.000000,48480.000000,3118.000000,13323.000000
16672.000000,48446.000000,3059.000000,13261.000000
16645.000000,48417.000000,3004.000000,13202.000000
16596.000000,48358.000000,2920.000000,13095.000000
16542.000000,48300.000000,2834.000000,12994.000000
16510.000000,48279.000000,2784.000000,12953.000000
16489.000000,48272.000000,2748.000000,12922.000000
16461.000000,48251.000000,2708.000000,12871.000000
16456.000000,48250.000000,2707.000000,12868.000000
16497.000000,48303.000000,2782.000000,12957.000000
16567.000000,48384.000000,2907.000000,13089.000000
16648.000000,48474.000000,3066.000000,13229.000000
16767.000000,48603.000000,3293.000000,13439.000000
16930.000000,48790.000000,3600.000000,13746.000000
17107.000000,48993.000000,3936.000000,14079.000000
17280.000000,49188.000000,4270.000000,14400.000000
17471.000000,49403.000000,4631.000000,14761.000000
17684.000000,49648.000000,5022.000000,15167.000000
17884.000000,49880.000000,5392.000000,15541.000000
18060.000000,50079.000000,5723.000000,15863.000000
18235.000000,50279.000000,6050.000000,16195.000000
18411.000000,50485.000000,6375.000000,16539.000000
18561.000000,50659.000000,6656.000000,16822.000000
18680.000000,50790.000000,6883.000000,17044.000000
18794.000000,50919.000000,7097.000000,17269.000000
18906.000000,51050.000000,7299.000000,17495.000000
18988.000000,51142.000000,7449.000000,17654.000000
19043.000000,51196.000000,7551.000000,17755.000000
19100.000000,51253.000000,7652.000000,17862.000000
19152.000000,51314.000000,7749.000000,17960.000000
19171.000000,51336.000000,7793.000000,17992.000000
19164.000000,51324.000000,7790.000000,17981.000000
19160.000000,51323.000000,7789.000000,17994.000000
19156.000000,51326.000000,7784.000000,18009.000000
19127.000000,51290.000000,7734.000000,17963.000000
19082.000000,51229.000000,7658.000000,17880.000000
19049.000000,51186.000000,7603.000000,17825.000000
19015.000000,51147.000000,7550.000000,17771.000000
18954.000000,51077.000000,7462.000000,17661.000000
18878.000000,50992.000000,7359.000000,17536.000000
18817.000000,50931.000000,7282.000000,17458.000000
18761.000000,50877.000000,7211.000000,17388.000000
18686.000000,50799.000000,7106.000000,17276.000000
18608.000000,50715.000000,6994.000000,17162.000000
18550.000000,50656.000000,6910.000000,17094.000000
18494.000000,50599.000000,6829.000000,17027.000000
18419.000000,50515.000000,6717.000000,16914.000000
18341.000000,50428.000000,6597.000000,16798.000000
18278.000000,50360.000000,6494.000000,16711.000000
18208.000000,50283.000000,6374.000000,16597.000000
18115.000000,50174.000000,6212.000000,16426.000000
18025.000000,50067.000000,6047.000000,16259.000000
17950.000000,49985.000000,5910.000000,16129.000000
17861.000000,49895.000000,5763.000000,15980.000000
17747.000000,49777.000000,5589.000000,15785.000000
17639.000000,49671.000000,5428.000000,15608.000000
17550.000000,49593.000000,5298.000000,15475.000000
17454.000000,49509.000000,5159.000000,15326.000000
17346.000000,49406.000000,5003.000000,15147.000000
17259.000000,49325.000000,4878.000000,15007.000000
17203.000000,49279.000000,4798.000000,14921.000000
17150.000000,49232.000000,4721.000000,14825.000000
17098.000000,49175.000000,4642.000000,14718.000000
17073.000000,49146.000000,4603.000000,14665.000000
17074.000000,49152.000000,4606.000000,14670.000000
17073.000000,49155.000000,4603.000000,14669.000000
17068.000000,49151.000000,4592.000000,14658.000000
17087.000000,49176.000000,4618.000000,14698.000000
17128.000000,49226.000000,4678.000000,14773.000000
17157.000000,49259.000000,4720.000000,14815.000000
17175.000000,49276.000000,4746.000000,14830.000000
17209.000000,49317.000000,4796.000000,14884.000000
17251.000000,49375.000000,4860.000000,14962.000000
17271.000000,49405.000000,4892.000000,14997.000000
17278.000000,49415.000000,4903.000000,15006.000000
17301.000000,49440.000000,4935.000000,15046.000000
17325.000000,49467.000000,4972.000000,15091.000000
17324.000000,49459.000000,4969.000000,15078.000000
17308.000000,49432.000000,4945.000000,15040.000000
17306.000000,49426.000000,4939.000000,15039.000000
17305.000000,49424.000000,4930.000000,15038.000000
17279.000000,49388.000000,4884.000000,14984.000000
17245.000000,49340.000000,4826.000000,14915.000000
17228.000000,49316.000000,4789.000000,14885.000000
17209.000000,49289.000000,4740.000000,14855.000000
17163.000000,49226.000000,4647.000000,14771.000000
17113.000000,49156.000000,4548.000000,14678.000000
17084.000000,49116.000000,4479.000000,14629.000000
17056.000000,49082.000000,4415.000000,14575.000000
17009.000000,49026.000000,4326.000000,14474.000000
16965.000000,48975.000000,4244.000000,14379.000000
16941.000000,48953.000000,4194.000000,14330.000000
16913.000000,48925.000000,4138.000000,14268.000000
16861.000000,48866.000000,4049.000000,14157.000000
16812.000000,48808.000000,3967.000000,14055.000000
16783.000000,48775.000000,3912.000000,13996.000000
16748.000000,48733.000000,3844.000000,13921.000000
16698.000000,48667.000000,3750.000000,13804.000000
16659.000000,48614.000000,3671.000000,13708.000000
16635.000000,48587.000000,3618.000000,13651.000000
16597.000000,48549.000000,3550.000000,13573.000000
16541.000000,48491.000000,3455.000000,13466.000000
16499.000000,48452.000000,3378.000000,13398.000000
16479.000000,48439.000000,3328.000000,13378.000000
16450.000000,48411.000000,3261.000000,13335.000000
16412.000000,48364.000000,3175.000000,13256.000000
16392.000000,48338.000000,3116.000000,13206.000000
16388.000000,48333.000000,3083.000000,13181.000000
16366.000000,48307.000000,3028.000000,13114.000000
16328.000000,48261.000000,2950.000000,13022.000000
16305.000000,48235.000000,2897.000000,12979.000000
16292.000000,48225.000000,2862.000000,12966.000000
16256.000000,48186.000000,2795.000000,12904.000000
16203.000000,48125.000000,2706.000000,12808.000000
16163.000000,48085.000000,2638.000000,12746.000000
16130.000000,48054.000000,2577.000000,12695.000000
16077.000000,47993.000000,2485.000000,12597.000000
16018.000000,47920.000000,2381.000000,12483.000000
15982.000000,47877.000000,2308.000000,12416.000000
15959.000000,47852.000000,2252.000000,12364.000000
15919.000000,47806.000000,2176.000000,12266.000000
15879.000000,47759.000000,2100.000000,12164.000000
15862.000000,47746.000000,2057.000000,12114.000000
15852.000000,47741.000000,2022.000000,12078.000000
15821.000000,47706.000000,1959.000000,12001.000000
15788.000000,47669.000000,1895.000000,11928.000000
15775.000000,47661.000000,1862.000000,11910.000000
15762.000000,47655.000000,1831.000000,11895.000000
15725.000000,47620.000000,1765.000000,11833.000000
15683.000000,47579.000000,1695.000000,11768.000000
15656.000000,47558.000000,1647.000000,11733.000000
15617.000000,47522.000000,1581.000000,11671.000000
15547.000000,47447.000000,1473.000000,11546.000000
15477.000000,47370.000000,1362.000000,11423.000000
15426.000000,47316.000000,1273.000000,11341.000000
15373.000000,47255.000000,1172.000000,11242.000000
15307.000000,47173.000000,1046.000000,11092.000000
15247.000000,47113.000000,944.000000,10967.000000
15203.000000,47094.000000,884.000000,10910.000000
15160.000000,47076.000000,835.000000,10858.000000
15121.000000,47046.000000,791.000000,10797.000000
15123.000000,47052.000000,808.000000,10811.000000
15176.000000,47117.000000,908.000000,10919.000000
15255.000000,47204.000000,1050.000000,11055.000000
15356.000000,47307.000000,1230.000000,11214.000000
15509.000000,47468.000000,1496.000000,11471.000000
15713.000000,47686.000000,1845.000000,11822.000000
15925.000000,47910.000000,2218.000000,12185.000000
16137.000000,48127.000000,2598.000000,12546.000000
16373.000000,48372.000000,3013.000000,12964.000000
16622.000000,48635.000000,3445.000000,13419.000000
16847.000000,48870.000000,3837.000000,13823.000000
17048.000000,49076.000000,4191.000000,14176.000000
17252.000000,49293.000000,4551.000000,14541.000000
17453.000000,49516.000000,4903.000000,14902.000000
17623.000000,49698.000000,5199.000000,15197.000000
17767.000000,49849.000000,5448.000000,15450.000000
17908.000000,50008.000000,5693.000000,15719.000000
18040.000000,50162.000000,5918.000000,15975.000000
18137.000000,50271.000000,6082.000000,16154.000000
18214.000000,50352.000000,6209.000000,16286.000000
18297.000000,50444.000000,6339.000000,16431.000000
18370.000000,50526.000000,6452.000000,16554.000000
18405.000000,50562.000000,6511.000000,16601.000000
18421.000000,50577.000000,6542.000000,16620.000000
18448.000000,50609.000000,6582.000000,16663.000000
18469.000000,50633.000000,6603.000000,16689.000000
18463.000000,50617.000000,6576.000000,16651.000000
18451.000000,50588.000000,6533.000000,16599.000000
18455.000000,50584.000000,6509.000000,16582.000000
18450.000000,50572.000000,6477.000000,16549.000000
18418.000000,50527.000000,6411.000000,16462.000000
18383.000000,50478.000000,6344.000000,16381.000000
18358.000000,50450.000000,6296.000000,16347.000000
18321.000000,50413.000000,6234.000000,16306.000000
18262.000000,50349.000000,6141.000000,16222.000000
18213.000000,50294.000000,6056.000000,16152.000000
18188.000000,50267.000000,5997.000000,16117.000000
18154.000000,50227.000000,5924.000000,16054.000000
18097.000000,50158.000000,5823.000000,15943.000000
18046.000000,50096.000000,5733.000000,15850.000000
18010.000000,50055.000000,5662.000000,15790.000000
17961.000000,49998.000000,5566.000000,15694.000000
17894.000000,49915.000000,5438.000000,15555.000000
17836.000000,49847.000000,5324.000000,15444.000000
17788.000000,49799.000000,5230.000000,15361.000000
17719.000000,49731.000000,5115.000000,15235.000000
17630.000000,49638.000000,4977.000000,15071.000000
17556.000000,49565.000000,4862.000000,14945.000000
17501.000000,49516.000000,4771.000000,14858.000000
17437.000000,49451.000000,4662.000000,14746.000000
17369.000000,49374.000000,4546.000000,14617.000000
17327.000000,49331.000000,4473.000000,14539.000000
17308.000000,49318.000000,4439.000000,14499.000000
17282.000000,49292.000000,4397.000000,14435.000000
17260.000000,49263.000000,4357.000000,14371.000000
17272.000000,49271.000000,4363.000000,14373.000000
17301.000000,49303.000000,4396.000000,14414.000000
17317.000000,49318.000000,4410.000000,14427.000000
17329.000000,49328.000000,4420.000000,14437.000000
17364.000000,49370.000000,4466.000000,14502.000000
17413.000000,49425.000000,4529.000000,14584.000000
17445.000000,49450.000000,4566.000000,14619.000000
17465.000000,49461.000000,4595.000000,14643.000000
17498.000000,49499.000000,4653.000000,14715.000000
17531.000000,49541.000000,4716.000000,14787.000000
17540.000000,49548.000000,4745.000000,14801.000000
17545.000000,49547.000000,4767.000000,14805.000000
17568.000000,49570.000000,4814.000000,14852.000000
17587.000000,49588.000000,4852.000000,14890.000000
17583.000000,49570.000000,4848.000000,14878.000000
17580.000000,49550.000000,4837.000000,14872.000000
17595.000000,49558.000000,4849.000000,14912.000000
17604.000000,49558.000000,4848.000000,14938.000000
17594.000000,49532.000000,4815.000000,14920.000000
17592.000000,49518.000000,4795.000000,14915.000000
17608.000000,49531.000000,4808.000000,14948.000000
17609.000000,49531.000000,4806.000000,14953.000000
17583.000000,49498.000000,4763.000000,14907.000000
17558.000000,49468.000000,4721.000000,14873.000000
17545.000000,49456.000000,4697.000000,14869.000000
17516.000000,49423.000000,4646.000000,14827.000000
17463.000000,49359.000000,4555.000000,14726.000000
17413.000000,49304.000000,4469.000000,14630.000000
17373.000000,49265.000000,4400.000000,14556.000000
17312.000000,49206.000000,4308.000000,14446.000000
17231.000000,49122.000000,4189.000000,14301.000000
17164.000000,49055.000000,4087.000000,14191.000000
17114.000000,49007.000000,4005.000000,14117.000000
17052.000000,48940.000000,3900.000000,14013.000000
16976.000000,48854.000000,3776.000000,13882.000000
16916.000000,48793.000000,3677.000000,13789.000000
16871.000000,48752.000000,3606.000000,13726.000000
16815.000000,48689.000000,3516.000000,13631.000000
16751.000000,48610.000000,3407.000000,13518.000000
16709.000000,48559.000000,3324.000000,13447.000000
16678.000000,48528.000000,3263.000000,13399.000000
16626.000000,48478.000000,3180.000000,13313.000000
16563.000000,48417.000000,3087.000000,13208.000000
16521.000000,48383.000000,3026.000000,13145.000000
16489.000000,48357.000000,2981.000000,13100.000000
16444.000000,48305.000000,2905.000000,13014.000000
16396.000000,48244.000000,2815.000000,12917.000000
16366.000000,48211.000000,2754.000000,12866.000000
16340.000000,48188.000000,2704.000000,12820.000000
16291.000000,48138.000000,2624.000000,12721.000000
16236.000000,48075.000000,2534.000000,12610.000000
16200.000000,48035.000000,2467.000000,12537.000000
16165.000000,48000.000000,2401.000000,12466.000000
16112.000000,47942.000000,2311.000000,12357.000000
16062.000000,47886.000000,2222.000000,12256.000000
16037.000000,47860.000000,2164.000000,12204.000000
16014.000000,47837.000000,2106.000000,12155.000000
15975.000000,47790.000000,2021.000000,12070.000000
15941.000000,47749.000000,1944.000000,12003.000000
15927.000000,47738.000000,1899.000000,11981.000000
15909.000000,47720.000000,1850.000000,11946.000000
15873.000000,47674.000000,1777.000000,11873.000000
15844.000000,47635.000000,1718.000000,11821.000000
15835.000000,47623.000000,1688.000000,11813.000000
15818.000000,47604.000000,1647.000000,11784.000000
15783.000000,47559.000000,1587.000000,11715.000000
15760.000000,47528.000000,1548.000000,11670.000000
15760.000000,47527.000000,1545.000000,11671.000000
15757.000000,47522.000000,1543.000000,11661.000000
15754.000000,47511.000000,1543.000000,11644.000000
15787.000000,47545.000000,1605.000000,11693.000000
15862.000000,47633.000000,1740.000000,11818.000000
15952.000000,47735.000000,1902.000000,11964.000000
16055.000000,47846.000000,2090.000000,12134.000000
16200.000000,48007.000000,2351.000000,12392.000000
16385.000000,48215.000000,2676.000000,12724.000000
16573.000000,48424.000000,3008.000000,13053.000000
16760.000000,48625.000000,3345.000000,13375.000000
16967.000000,48855.000000,3721.000000,13748.000000
17183.000000,49104.000000,4118.000000,14146.000000
17373.000000,49322.000000,4477.000000,14494.000000
17544.000000,49514.000000,4804.000000,14809.000000
17729.000000,49722.000000,5138.000000,15155.000000
17917.000000,49933.000000,5464.000000,15495.000000
18075.000000,50104.000000,5732.000000,15760.000000
18207.000000,50246.000000,5954.000000,15983.000000
18342.000000,50396.000000,6172.000000,16225.000000
18470.000000,50535.000000,6370.000000,16455.000000
18561.000000,50623.000000,6509.000000,16614.000000
18627.000000,50683.000000,6612.000000,16733.000000
18696.000000,50752.000000,6719.000000,16867.000000
18753.000000,50808.000000,6809.000000,16980.000000
18776.000000,50821.000000,6846.000000,17021.000000
18782.000000,50816.000000,6858.000000,17038.000000
18796.000000,50826.000000,6877.000000,17075.000000
18800.000000,50827.000000,6882.000000,17087.000000
18777.000000,50794.000000,6843.000000,17040.000000
18749.000000,50755.000000,6796.000000,16986.000000
18732.000000,50734.000000,6767.000000,16963.000000
18703.000000,50701.000000,6721.000000,16913.000000
18651.000000,50636.000000,6638.000000,16807.000000
18607.000000,50577.000000,6558.000000,16716.000000
18584.000000,50544.000000,6503.000000,16671.000000
18552.000000,50504.000000,6439.000000,16609.000000
18498.000000,50442.000000,6351.000000,16502.000000
18451.000000,50392.000000,6277.000000,16421.000000
18423.000000,50368.000000,6226.000000,16389.000000
18386.000000,50331.000000,6152.000000,16338.000000
18334.000000,50270.000000,6045.000000,16250.000000
18297.000000,50222.000000,5955.000000,16184.000000
18276.000000,50195.000000,5888.000000,16144.000000
18233.000000,50144.000000,5798.000000,16057.000000
18165.000000,50063.000000,5678.000000,15912.000000
18103.000000,49996.000000,5569.000000,15786.000000
18051.000000,49947.000000,5474.000000,15689.000000
17980.000000,49871.000000,5349.000000,15554.000000
17895.000000,49773.000000,5203.000000,15393.000000
17830.000000,49697.000000,5086.000000,15275.000000
17783.000000,49641.000000,4995.000000,15188.000000
17719.000000,49566.000000,4885.000000,15066.000000
17644.000000,49479.000000,4766.000000,14931.000000
17595.000000,49424.000000,4683.000000,14855.000000
17566.000000,49391.000000,4630.000000,14822.000000
17528.000000,49342.000000,4565.000000,14763.000000
17491.000000,49295.000000,4504.000000,14698.000000
17485.000000,49291.000000,4492.000000,14694.000000
17496.000000,49311.000000,4507.000000,14722.000000
17493.000000,49313.000000,4504.000000,14724.000000
17491.000000,49311.000000,4497.000000,14725.000000
17515.000000,49341.000000,4528.000000,14770.000000
17548.000000,49383.000000,4575.000000,14817.000000
17562.000000,49400.000000,4595.000000,14819.000000
17575.000000,49413.000000,4614.000000,14813.000000
17611.000000,49451.000000,4667.000000,14848.000000
17649.000000,49487.000000,4723.000000,14883.000000
17660.000000,49492.000000,4744.000000,14879.000000
17666.000000,49491.000000,4760.000000,14884.000000
17685.000000,49510.000000,4797.000000,14932.000000
17698.000000,49524.000000,4820.000000,14962.000000
17687.000000,49510.000000,4801.000000,14941.000000
17672.000000,49498.000000,4782.000000,14926.000000
17669.000000,49505.000000,4787.000000,14942.000000
17657.000000,49494.000000,4777.000000,14935.000000
17624.000000,49443.000000,4729.000000,14884.000000
17597.000000,49395.000000,4684.000000,14848.000000
17585.000000,49372.000000,4656.000000,14845.000000
17559.000000,49339.000000,4607.000000,14805.000000
17507.000000,49284.000000,4522.000000,14708.000000
17459.000000,49241.000000,4446.000000,14627.000000
17421.000000,49218.000000,4390.000000,14576.000000
17367.000000,49172.000000,4311.000000,14491.000000
17297.000000,49097.000000,4199.000000,14368.000000
17241.000000,49037.000000,4102.000000,14274.000000
17203.000000,49002.000000,4030.000000,14211.000000
17158.000000,48953.000000,3943.000000,14120.000000
17103.000000,48886.000000,3841.000000,14007.000000
17068.000000,48841.000000,3767.000000,13940.000000
17048.000000,48814.000000,3716.000000,13909.000000
17012.000000,48765.000000,3642.000000,13839.000000
16966.000000,48702.000000,3550.000000,13740.000000
16936.000000,48668.000000,3485.000000,13686.000000
16915.000000,48652.000000,3436.000000,13655.000000
16872.000000,48611.000000,3357.000000,13576.000000
16816.000000,48554.000000,3263.000000,13478.000000
16780.000000,48518.000000,3195.000000,13425.000000
16754.000000,48496.000000,3141.000000,13384.000000
16709.000000,48448.000000,3059.000000,13287.000000
16655.000000,48387.000000,2969.000000,13167.000000
16621.000000,48351.000000,2909.000000,13086.000000
16591.000000,48317.000000,2853.000000,13015.000000
16539.000000,48250.000000,2764.000000,12896.000000
16481.000000,48175.000000,2667.000000,12772.000000
16445.000000,48134.000000,2599.000000,12699.000000
16413.000000,48100.000000,2535.000000,12633.000000
16359.000000,48039.000000,2439.000000,12526.000000
16306.000000,47974.000000,2345.000000,12430.000000
16279.000000,47940.000000,2286.000000,12390.000000
16252.000000,47906.000000,2227.000000,12346.000000
16202.000000,47845.000000,2136.000000,12257.000000
16155.000000,47791.000000,2053.000000,12183.000000
16131.000000,47773.000000,2005.000000,12155.000000
16102.000000,47752.000000,1949.000000,12110.000000
16054.000000,47703.000000,1862.000000,12017.000000
16013.000000,47659.000000,1789.000000,11944.000000
15997.000000,47647.000000,1753.000000,11920.000000
15981.000000,47629.000000,1713.000000,11886.000000
15955.000000,47591.000000,1653.000000,11820.000000
15950.000000,47577.000000,1626.000000,11791.000000
15981.000000,47609.000000,1655.000000,11826.000000
16021.000000,47650.000000,1708.000000,11871.000000
16065.000000,47695.000000,1784.000000,11924.000000
16149.000000,47785.000000,1933.000000,12061.000000
16279.000000,47932.000000,2165.000000,12292.000000
16425.000000,48097.000000,2432.000000,12552.000000
16582.000000,48270.000000,2723.000000,12833.000000
16777.000000,48487.000000,3072.000000,13189.000000
17005.000000,48744.000000,3472.000000,13604.000000
17224.000000,48991.000000,3863.000000,13992.000000
17429.000000,49219.000000,4237.000000,14348.000000
17646.000000,49464.000000,4631.000000,14742.000000
17871.000000,49718.000000,5035.000000,15165.000000
18072.000000,49940.000000,5395.000000,15533.000000
18251.000000,50132.000000,5716.000000,15850.000000
18435.000000,50335.000000,6039.000000,16178.000000
18617.000000,50539.000000,6348.000000,16494.000000
18764.000000,50696.000000,6594.000000,16737.000000
18883.000000,50819.000000,6790.000000,16934.000000
19002.000000,50944.000000,6982.000000,17147.000000
19112.000000,51061.000000,7157.000000,17347.000000
19187.000000,51132.000000,7273.000000,17478.000000
19240.000000,51180.000000,7351.000000,17573.000000
19300.000000,51243.000000,7432.000000,17688.000000
19355.000000,51300.000000,7499.000000,17782.000000
19381.000000,51316.000000,7520.000000,17805.000000
19393.000000,51312.000000,7520.000000,17805.000000
19412.000000,51323.000000,7536.000000,17838.000000
19425.000000,51325.000000,7539.000000,17863.000000
19415.000000,51292.000000,7499.000000,17834.000000
19401.000000,51253.000000,7453.000000,17800.000000
19399.000000,51237.000000,7433.000000,17806.000000
19387.000000,51216.000000,7404.000000,17792.000000
19353.000000,51167.000000,7343.000000,17719.000000
19319.000000,51124.000000,7290.000000,17649.000000
19299.000000,51108.000000,7264.000000,17615.000000
19269.000000,51082.000000,7225.000000,17564.000000
19220.000000,51028.000000,7156.000000,17476.000000
19181.000000,50983.000000,7093.000000,17407.000000
19160.000000,50962.000000,7052.000000,17371.000000
19128.000000,50925.000000,6993.000000,17306.000000
19077.000000,50860.000000,6903.000000,17197.000000
19034.000000,50809.000000,6823.000000,17112.000000
19004.000000,50779.000000,6759.000000,17066.000000
18957.000000,50730.000000,6671.000000,16990.000000
18893.000000,50657.000000,6557.000000,16875.000000
18841.000000,50599.000000,6465.000000,16791.000000
18806.000000,50563.000000,6398.000000,16740.000000
18757.000000,50510.000000,6313.000000,16654.000000
18695.000000,50437.000000,6210.000000,16538.000000
18652.000000,50387.000000,6134.000000,16465.000000
18627.000000,50362.000000,6085.000000,16427.000000
18592.000000,50322.000000,6016.000000,16352.000000
18553.000000,50275.000000,5937.000000,16255.000000
18538.000000,50259.000000,5895.000000,16209.000000
18538.000000,50259.000000,5878.000000,16195.000000
18522.000000,50233.000000,5839.000000,16144.000000
18500.000000,50196.000000,5795.000000,16083.000000
18500.000000,50193.000000,5787.000000,16079.000000
18511.000000,50207.000000,5797.000000,16099.000000
18508.000000,50199.000000,5785.000000,16081.000000
18504.000000,50189.000000,5774.000000,16054.000000
18526.000000,50214.000000,5802.000000,16077.000000
18553.000000,50250.000000,5842.000000,16119.000000
18559.000000,50254.000000,5852.000000,16129.000000
18560.000000,50249.000000,5855.000000,16143.000000
18584.000000,50273.000000,5886.000000,16207.000000
18611.000000,50301.000000,5922.000000,16267.000000
18620.000000,50302.000000,5929.000000,16273.000000
18631.000000,50302.000000,5935.000000,16275.000000
18660.000000,50333.000000,5968.000000,16316.000000
18683.000000,50360.000000,5994.000000,16341.000000
18679.000000,50355.000000,5983.000000,16313.000000
18675.000000,50351.000000,5971.000000,16292.000000
18688.000000,50372.000000,5983.000000,16316.000000
18691.000000,50380.000000,5979.000000,16320.000000
18670.000000,50354.000000,5941.000000,16268.000000
18651.000000,50332.000000,5907.000000,16225.000000
18648.000000,50336.000000,5894.000000,16223.000000
18630.000000,50325.000000,5863.000000,16198.000000
18588.000000,50283.000000,5801.000000,16128.000000
18558.000000,50249.000000,5750.000000,16083.000000
18551.000000,50240.000000,5727.000000,16077.000000
18536.000000,50217.000000,5686.000000,16040.000000
18504.000000,50171.000000,5617.000000,15958.000000
18482.000000,50142.000000,5568.000000,15905.000000
18474.000000,50135.000000,5547.000000,15889.000000
18451.000000,50107.000000,5503.000000,15844.000000
18412.000000,50056.000000,5433.000000,15774.000000
18388.000000,50025.000000,5381.000000,15739.000000
18384.000000,50011.000000,5348.000000,15729.000000
18362.000000,49968.000000,5285.000000,15674.000000
18320.000000,49903.000000,5203.000000,15584.000000
18291.000000,49866.000000,5149.000000,15527.000000
18273.000000,49852.000000,5114.000000,15496.000000
18232.000000,49812.000000,5048.000000,15419.000000
18176.000000,49749.000000,4962.000000,15313.000000
18140.000000,49706.000000,4901.000000,15243.000000
18119.000000,49679.000000,4855.000000,15185.000000
18082.000000,49626.000000,4777.000000,15078.000000
18030.000000,49561.000000,4683.000000,14951.000000
17991.000000,49522.000000,4615.000000,14871.000000
17957.000000,49491.000000,4553.000000,14808.000000
17899.000000,49429.000000,4459.000000,14702.000000
17834.000000,49356.000000,4356.000000,14593.000000
17792.000000,49315.000000,4285.000000,14540.000000
17757.000000,49287.000000,4223.000000,14498.000000
17704.000000,49235.000000,4136.000000,14414.000000
17653.000000,49183.000000,4051.000000,14332.000000
17628.000000,49162.000000,4000.000000,14301.000000
17610.000000,49147.000000,3951.000000,14269.000000
17575.000000,49107.000000,3873.000000,14192.000000
17542.000000,49069.000000,3804.000000,14122.000000
17533.000000,49058.000000,3769.000000,14101.000000
17519.000000,49040.000000,3728.000000,14065.000000
17482.000000,48991.000000,3653.000000,13972.000000
17446.000000,48947.000000,3585.000000,13887.000000
17428.000000,48930.000000,3548.000000,13846.000000
17406.000000,48906.000000,3502.000000,13790.000000
17367.000000,48859.000000,3429.000000,13700.000000
17338.000000,48829.000000,3376.000000,13647.000000
17336.000000,48832.000000,3370.000000,13658.000000
17338.000000,48839.000000,3381.000000,13675.000000
17346.000000,48846.000000,3410.000000,13695.000000
17394.000000,48900.000000,3511.000000,13794.000000
17487.000000,49013.000000,3696.000000,13985.000000
17600.000000,49146.000000,3918.000000,14197.000000
17730.000000,49290.000000,4165.000000,14426.000000
17905.000000,49480.000000,4473.000000,14733.000000
18114.000000,49713.000000,4835.000000,15107.000000
18321.000000,49935.000000,5198.000000,15467.000000
18520.000000,50141.000000,5548.000000,15807.000000
18735.000000,50369.000000,5922.000000,16189.000000
18955.000000,50612.000000,6309.000000,16593.000000
19146.000000,50824.000000,6658.000000,16938.000000
19315.000000,51008.000000,6969.000000,17234.000000
19490.000000,51202.000000,7281.000000,17550.000000
19661.000000,51395.000000,7578.000000,17866.000000
19797.000000,51546.000000,7817.000000,18111.000000
19909.000000,51663.000000,8012.000000,18312.000000
20026.000000,51787.000000,8205.000000,18534.000000
20139.000000,51910.000000,8384.000000,18744.000000
20222.000000,51992.000000,8511.000000,18879.000000
20287.000000,52048.000000,8608.000000,18974.000000
20358.000000,52114.000000,8712.000000,19093.000000
20415.000000,52172.000000,8801.000000,19204.000000
20435.000000,52186.000000,8845.000000,19255.000000
20445.000000,52184.000000,8866.000000,19283.000000
20473.000000,52204.000000,8895.000000,19341.000000
20500.000000,52221.000000,8913.000000,19382.000000
20500.000000,52203.000000,8896.000000,19360.000000
20490.000000,52182.000000,8877.000000,19329.000000
20494.000000,52187.000000,8883.000000,19337.000000
20490.000000,52186.000000,8879.000000,19337.000000
20458.000000,52155.000000,8834.000000,19290.000000
20428.000000,52125.000000,8787.000000,19252.000000
20419.000000,52119.000000,8763.000000,19255.000000
20402.000000,52101.000000,8724.000000,19234.000000
20362.000000,52053.000000,8649.000000,19154.000000
20326.000000,52012.000000,8579.000000,19079.000000
20304.000000,51992.000000,8530.000000,19036.000000
20265.000000,51948.000000,8457.000000,18963.000000
20200.000000,51865.000000,8345.000000,18841.000000
20140.000000,51787.000000,8241.000000,18738.000000
20098.000000,51736.000000,8160.000000,18674.000000
20044.000000,51671.000000,8063.000000,18575.000000
19967.000000,51582.000000,7939.000000,18426.000000
19903.000000,51512.000000,7833.000000,18306.000000
19859.000000,51468.000000,7754.000000,18230.000000
19802.000000,51409.000000,7658.000000,18125.000000
19729.000000,51333.000000,7542.000000,17989.000000
19680.000000,51285.000000,7460.000000,17898.000000
19659.000000,51263.000000,7413.000000,17853.000000
19632.000000,51220.000000,7348.000000,17783.000000
19595.000000,51164.000000,7269.000000,17692.000000
19579.000000,51140.000000,7225.000000,17643.000000
19577.000000,51141.000000,7211.000000,17626.000000
19559.000000,51123.000000,7184.000000,17577.000000
19533.000000,51096.000000,7150.000000,17519.000000
19532.000000,51100.000000,7149.000000,17520.000000
19543.000000,51118.000000,7162.000000,17551.000000
19538.000000,51111.000000,7147.000000,17546.000000
19528.000000,51094.000000,7123.000000,17537.000000
19538.000000,51105.000000,7132.000000,17579.000000
19556.000000,51128.000000,7155.000000,17627.000000
19557.000000,51127.000000,7156.000000,17621.000000
19558.000000,51122.000000,7158.000000,17603.000000
19580.000000,51148.000000,7196.000000,17632.000000
19606.000000,51177.000000,7238.000000,17672.000000
19612.000000,51177.000000,7247.000000,17674.000000
19618.000000,51175.000000,7250.000000,17683.000000
19647.000000,51200.000000,7279.000000,17739.000000
19677.000000,51224.000000,7305.000000,17782.000000
19686.000000,51219.000000,7301.000000,17773.000000
19690.000000,51213.000000,7296.000000,17770.000000
19707.000000,51229.000000,7314.000000,17805.000000
19713.000000,51232.000000,7317.000000,17819.000000
19692.000000,51200.000000,7281.000000,17776.000000
19670.000000,51168.000000,7244.000000,17738.000000
19660.000000,51160.000000,7231.000000,17737.000000
19640.000000,51139.000000,7204.000000,17709.000000
19600.000000,51088.000000,7144.000000,17631.000000
19567.000000,51046.000000,7093.000000,17570.000000
19549.000000,51027.000000,7058.000000,17543.000000
19516.000000,50990.000000,7000.000000,17482.000000
19462.000000,50928.000000,6913.000000,17383.000000
19417.000000,50882.000000,6839.000000,17313.000000
19388.000000,50859.000000,6787.000000,17271.000000
19344.000000,50817.000000,6711.000000,17187.000000
19283.000000,50749.000000,6610.000000,17060.000000
19238.000000,50701.000000,6532.000000,16969.000000
19212.000000,50679.000000,6479.000000,16917.000000
19169.000000,50636.000000,6402.000000,16832.000000
19113.000000,50570.000000,6303.000000,16719.000000
19077.000000,50529.000000,6229.000000,16648.000000
19056.000000,50508.000000,6177.000000,16604.000000
19016.000000,50459.000000,6098.000000,16518.000000
18961.000000,50390.000000,6000.000000,16408.000000
18923.000000,50347.000000,5931.000000,16338.000000
18893.000000,50318.000000,5876.000000,16285.000000
18838.000000,50260.000000,5787.000000,16186.000000
18771.000000,50186.000000,5682.000000,16072.000000
18725.000000,50141.000000,5611.000000,16005.000000
18691.000000,50111.000000,5555.000000,15960.000000
18641.000000,50055.000000,5470.000000,15877.000000
18589.000000,49992.000000,5377.000000,15785.000000
18563.000000,49962.000000,5314.000000,15740.000000
18541.000000,49942.000000,5258.000000,15705.000000
18500.000000,49896.000000,5176.000000,15626.000000
18457.000000,49848.000000,5095.000000,15546.000000
18437.000000,49830.000000,5047.000000,15518.000000
18421.000000,49815.000000,5002.000000,15488.000000
18385.000000,49774.000000,4931.000000,15405.000000
18347.000000,49732.000000,4863.000000,15326.000000
18325.000000,49715.000000,4822.000000,15292.000000
18295.000000,49687.000000,4769.000000,15244.000000
18239.000000,49621.000000,4678.000000,15141.000000
18188.000000,49558.000000,4591.000000,15044.000000
18161.000000,49524.000000,4532.000000,14986.000000
18129.000000,49479.000000,4462.000000,14909.000000
18075.000000,49405.000000,4364.000000,14791.000000
18033.000000,49351.000000,4286.000000,14707.000000
18023.000000,49340.000000,4252.000000,14687.000000
18022.000000,49335.000000,4230.000000,14666.000000
18021.000000,49327.000000,4218.000000,14631.000000
18053.000000,49361.000000,4261.000000,14658.000000
18124.000000,49448.000000,4378.000000,14770.000000
18207.000000,49550.000000,4529.000000,14908.000000
18301.000000,49658.000000,4706.000000,15068.000000
18435.000000,49811.000000,4950.000000,15311.000000
18607.000000,50009.000000,5257.000000,15627.000000
18782.000000,50208.000000,5578.000000,15940.000000
18954.000000,50398.000000,5903.000000,16248.000000
19150.000000,50612.000000,6263.000000,16615.000000
19364.000000,50843.000000,6641.000000,17021.000000
19561.000000,51050.000000,6986.000000,17384.000000
19746.000000,51238.000000,7305.000000,17715.000000
19946.000000,51449.000000,7641.000000,18077.000000
20146.000000,51670.000000,7978.000000,18443.000000
20308.000000,51853.000000,8262.000000,18742.000000
20441.000000,52004.000000,8503.000000,18998.000000
20578.000000,52161.000000,8749.000000,19267.000000
20710.000000,52310.000000,8982.000000,19517.000000
20810.000000,52413.000000,9160.000000,19690.000000
20894.000000,52489.000000,9299.000000,19818.000000
20985.000000,52579.000000,9442.000000,19962.000000
21061.000000,52658.000000,9565.000000,20089.000000
21100.000000,52690.000000,9628.000000,20147.000000
21119.000000,52698.000000,9658.000000,20179.000000
21145.000000,52722.000000,9696.000000,20241.000000
21163.000000,52738.000000,9723.000000,20288.000000
21154.000000,52716.000000,9711.000000,20271.000000
21137.000000,52685.000000,9689.000000,20245.000000
21135.000000,52681.000000,9689.000000,20254.000000
21129.000000,52674.000000,9676.000000,20247.000000
21101.000000,52634.000000,9622.000000,20189.000000
21072.000000,52594.000000,9567.000000,20133.000000
21059.000000,52581.000000,9539.000000,20114.000000
21038.000000,52561.000000,9497.000000,20077.000000
20998.000000,52514.000000,9420.000000,19995.000000
20959.000000,52474.000000,9348.000000,19932.000000
20935.000000,52457.000000,9301.000000,19911.000000
20903.000000,52424.000000,9240.000000,19868.000000
20852.000000,52362.000000,9148.000000,19778.000000
20808.000000,52310.000000,9064.000000,19704.000000
20781.000000,52279.000000,9003.000000,19665.000000
20741.000000,52228.000000,8923.000000,19591.000000
20678.000000,52149.000000,8809.000000,19467.000000
20624.000000,52085.000000,8709.000000,19369.000000
20585.000000,52046.000000,8634.000000,19303.000000
20530.000000,51988.000000,8540.000000,19197.000000
20454.000000,51906.000000,8421.000000,19052.000000
20395.000000,51844.000000,8321.000000,18944.000000
20353.000000,51806.000000,8245.000000,18873.000000
20300.000000,51749.000000,8151.000000,18774.000000
20238.000000,51678.000000,8048.000000,18656.000000
20198.000000,51639.000000,7986.000000,18591.000000
20176.000000,51624.000000,7953.000000,18566.000000
20139.000000,51587.000000,7901.000000,18506.000000
20095.000000,51534.000000,7838.000000,18432.000000
20075.000000,51510.000000,7809.000000,18412.000000
20072.000000,51508.000000,7804.000000,18419.000000
20059.000000,51489.000000,7783.000000,18389.000000
20043.000000,51465.000000,7760.000000,18353.000000
20052.000000,51473.000000,7773.000000,18367.000000
20070.000000,51496.000000,7799.000000,18397.000000
20068.000000,51494.000000,7798.000000,18382.000000
20061.000000,51486.000000,7796.000000,18354.000000
20075.000000,51506.000000,7828.000000,18367.000000
20093.000000,51530.000000,7862.000000,18387.000000
20088.000000,51519.000000,7859.000000,18366.000000
20080.000000,51502.000000,7851.000000,18355.000000
20093.000000,51514.000000,7872.000000,18401.000000
20109.000000,51527.000000,7889.000000,18443.000000
20105.000000,51513.000000,7870.000000,18429.000000
20098.000000,51500.000000,7849.000000,18415.000000
20104.000000,51511.000000,7854.000000,18446.000000
20103.000000,51516.000000,7850.000000,18463.000000
20084.000000,51491.000000,7813.000000,18425.000000
20069.000000,51470.000000,7779.000000,18385.000000
20068.000000,51468.000000,7770.000000,18372.000000
20054.000000,51454.000000,7745.000000,18330.000000
20015.000000,51410.000000,7689.000000,18241.000000
19981.000000,51374.000000,7639.000000,18175.000000
19964.000000,51360.000000,7609.000000,18152.000000
19931.000000,51331.000000,7559.000000,18106.000000
19873.000000,51273.000000,7480.000000,18015.000000
19826.000000,51225.000000,7410.000000,17943.000000
19794.000000,51195.000000,7356.000000,17909.000000
19746.000000,51143.000000,7275.000000,17849.000000
19680.000000,51066.000000,7168.000000,17747.000000
19628.000000,51006.000000,7081.000000,17669.000000
19590.000000,50967.000000,7017.000000,17621.000000
19535.000000,50904.000000,6928.000000,17535.000000
19466.000000,50819.000000,6818.000000,17418.000000
19415.000000,50757.000000,6734.000000,17341.000000
19380.000000,50717.000000,6669.000000,17298.000000
19328.000000,50657.000000,6578.000000,17217.000000
19267.000000,50584.000000,6475.000000,17112.000000
19228.000000,50544.000000,6412.000000,17048.000000
19207.000000,50526.000000,6372.000000,17009.000000
19170.000000,50486.000000,6304.000000,16926.000000
19124.000000,50435.000000,6220.000000,16819.000000
19097.000000,50414.000000,6166.000000,16748.000000
19078.000000,50409.000000,6119.000000,16689.000000
19040.000000,50378.000000,6035.000000,16588.000000
18997.000000,50334.000000,5940.000000,16485.000000
18975.000000,50312.000000,5875.000000,16435.000000
18959.000000,50296.000000,5825.000000,16395.000000
18920.000000,50247.000000,5748.000000,16304.000000
18878.000000,50191.000000,5668.000000,16211.000000
18856.000000,50163.000000,5618.000000,16174.000000
18833.000000,50136.000000,5574.000000,16145.000000
18790.000000,50080.000000,5500.000000,16068.000000
18747.000000,50023.000000,5426.000000,15992.000000
18725.000000,49996.000000,5383.000000,15954.000000
18701.000000,49968.000000,5334.000000,15897.000000
18655.000000,49915.000000,5253.000000,15783.000000
18610.000000,49866.000000,5177.000000,15678.000000
18583.000000,49846.000000,5133.000000,15624.000000
18545.000000,49817.000000,5078.000000,15557.000000
18484.000000,49754.000000,4985.000000,15448.000000
18429.000000,49694.000000,4898.000000,15360.000000
18396.000000,49659.000000,4838.000000,15312.000000
18352.000000,49613.000000,4761.000000,15238.000000
18287.000000,49544.000000,4653.000000,15122.000000
18232.000000,49488.000000,4562.000000,15033.000000
18199.000000,49458.000000,4502.000000,14997.000000
18162.000000,49418.000000,4438.000000,14953.000000
18127.000000,49368.000000,4371.000000,14891.000000
18124.000000,49355.000000,4354.000000,14879.000000
18153.000000,49385.000000,4401.000000,14929.000000
18186.000000,49423.000000,4471.000000,14988.000000
18230.000000,49470.000000,4564.000000,15067.000000
18320.000000,49569.000000,4725.000000,15238.000000
18452.000000,49722.000000,4958.000000,15493.000000
18595.000000,49885.000000,5221.000000,15752.000000
18750.000000,50054.000000,5510.000000,16018.000000
18940.000000,50265.000000,5857.000000,16357.000000
19149.000000,50504.000000,6241.000000,16746.000000
19344.000000,50723.000000,6605.000000,17111.000000
19530.000000,50925.000000,6951.000000,17458.000000
19734.000000,51148.000000,7317.000000,17840.000000
19943.000000,51379.000000,7683.000000,18231.000000
20123.000000,51576.000000,8002.000000,18563.000000
20282.000000,51748.000000,8287.000000,18856.000000
20448.000000,51933.000000,8578.000000,19162.000000
20608.000000,52111.000000,8851.000000,19442.000000
20730.000000,52239.000000,9061.000000,19641.000000
20827.000000,52336.000000,9229.000000,19796.000000
20925.000000,52442.000000,9398.000000,19968.000000
21006.000000,52532.000000,9540.000000,20117.000000
21047.000000,52570.000000,9619.000000,20195.000000
21067.000000,52584.000000,9665.000000,20245.000000
21092.000000,52608.000000,9717.000000,20318.000000
21106.000000,52621.000000,9749.000000,20370.000000
21094.000000,52598.000000,9734.000000,20359.000000
21075.000000,52567.000000,9708.000000,20340.000000
21069.000000,52554.000000,9702.000000,20346.000000
21060.000000,52530.000000,9681.000000,20322.000000
21032.000000,52477.000000,9621.000000,20241.000000
21008.000000,52431.000000,9563.000000,20162.000000
21001.000000,52417.000000,9529.000000,20121.000000
20983.000000,52397.000000,9478.000000,20064.000000
20940.000000,52349.000000,9395.000000,19969.000000
20901.000000,52308.000000,9322.000000,19895.000000
20872.000000,52288.000000,9269.000000,19858.000000
20827.000000,52251.000000,9194.000000,19793.000000
20761.000000,52185.000000,9087.000000,19682.000000
20702.000000,52125.000000,8992.000000,19593.000000
20654.000000,52079.000000,8911.000000,19535.000000
20586.000000,52009.000000,8802.000000,19441.000000
20498.000000,51909.000000,8662.000000,19305.000000
20422.000000,51823.000000,8541.000000,19194.000000
20363.000000,51758.000000,8443.000000,19111.000000
20285.000000,51674.000000,8320.000000,18984.000000
20191.000000,51571.000000,8170.000000,18819.000000
20117.000000,51493.000000,8044.000000,18694.000000
20062.000000,51439.000000,7944.000000,18607.000000
19999.000000,51366.000000,7829.000000,18487.000000
19933.000000,51283.000000,7710.000000,18347.000000
19898.000000,51237.000000,7635.000000,18261.000000
19882.000000,51222.000000,7597.000000,18218.000000
19855.000000,51191.000000,7548.000000,18155.000000
19824.000000,51153.000000,7497.000000,18095.000000
19819.000000,51150.000000,7486.000000,18094.000000
19831.000000,51166.000000,7502.000000,18118.000000
19831.000000,51166.000000,7502.000000,18103.000000
19830.000000,51165.000000,7503.000000,18087.000000
19850.000000,51198.000000,7542.000000,18125.000000
19880.000000,51242.000000,7595.000000,18181.000000
19892.000000,51260.000000,7624.000000,18201.000000
19903.000000,51274.000000,7653.000000,18223.000000
19938.000000,51318.000000,7711.000000,18290.000000
19972.000000,51365.000000,7765.000000,18355.000000
19981.000000,51381.000000,7781.000000,18374.000000
19989.000000,51391.000000,7793.000000,18397.000000
20017.000000,51424.000000,7835.000000,18462.000000
20039.000000,51449.000000,7867.000000,18503.000000
20034.000000,51439.000000,7858.000000,18482.000000
20029.000000,51430.000000,7847.000000,18468.000000
20038.000000,51446.000000,7860.000000,18499.000000
20036.000000,51447.000000,7860.000000,18510.000000
20012.000000,51415.000000,7826.000000,18460.000000
19989.000000,51384.000000,7795.000000,18414.000000
19977.000000,51374.000000,7782.000000,18404.000000
19954.000000,51349.000000,7748.000000,18371.000000
19913.000000,51294.000000,7683.000000,18298.000000
19883.000000,51251.000000,7627.000000,18249.000000
19872.000000,51234.000000,7589.000000,18237.000000
19846.000000,51202.000000,7529.000000,18189.000000
19794.000000,51142.000000,7441.000000,18092.000000
19749.000000,51096.000000,7368.000000,18012.000000
19719.000000,51072.000000,7317.000000,17956.000000
19676.000000,51026.000000,7242.000000,17863.000000
19612.000000,50950.000000,7137.000000,17739.000000
19555.000000,50888.000000,7050.000000,17649.000000
19506.000000,50839.000000,6981.000000,17581.000000
19441.000000,50766.000000,6883.000000,17470.000000
19368.000000,50678.000000,6765.000000,17330.000000
19316.000000,50620.000000,6673.000000,17230.000000
19278.000000,50581.000000,6601.000000,17159.000000
19220.000000,50519.000000,6505.000000,17054.000000
19153.000000,50445.000000,6396.000000,16934.000000
19108.000000,50402.000000,6321.000000,16865.000000
19079.000000,50378.000000,6266.000000,16819.000000
19032.000000,50330.000000,6183.000000,16729.000000
18972.000000,50269.000000,6085.000000,16627.000000
18929.000000,50232.000000,6017.000000,16570.000000
18894.000000,50205.000000,5961.000000,16523.000000
18839.000000,50151.000000,5879.000000,16426.000000
18781.000000,50090.000000,5790.000000,16316.000000
18746.000000,50054.000000,5732.000000,16245.000000
18715.000000,50018.000000,5676.000000,16181.000000
18662.000000,49950.000000,5585.000000,16079.000000
18605.000000,49877.000000,5483.000000,15977.000000
18564.000000,49833.000000,5401.000000,15915.000000
18521.000000,49790.000000,5318.000000,15839.000000
18456.000000,49716.000000,5208.000000,15710.000000
18390.000000,49643.000000,5101.000000,15594.000000
18348.000000,49599.000000,5024.000000,15534.000000
18304.000000,49550.000000,4942.000000,15467.000000
18241.000000,49474.000000,4833.000000,15354.000000
18185.000000,49409.000000,4736.000000,15250.000000
18147.000000,49378.000000,4675.000000,15189.000000
18100.000000,49339.000000,4607.000000,15112.000000
18035.000000,49274.000000,4508.000000,14996.000000
17983.000000,49222.000000,4421.000000,14905.000000
17951.000000,49197.000000,4365.000000,14862.000000
17910.000000,49163.000000,4296.000000,14798.000000
17856.000000,49111.000000,4210.000000,14701.000000
17820.000000,49083.000000,4156.000000,14643.000000
17816.000000,49091.000000,4150.000000,14643.000000
17821.000000,49099.000000,4158.000000,14647.000000
17835.000000,49107.000000,4183.000000,14659.000000
17888.000000,49163.000000,4276.000000,14754.000000
17982.000000,49273.000000,4441.000000,14932.000000
18087.000000,49393.000000,4634.000000,15116.000000
18205.000000,49524.000000,4856.000000,15315.000000
18365.000000,49705.000000,5146.000000,15597.000000
18560.000000,49925.000000,5490.000000,15941.000000
18751.000000,50131.000000,5834.000000,16269.000000
18938.000000,50330.000000,6178.000000,16594.000000
19146.000000,50559.000000,6555.000000,16972.000000
19361.000000,50801.000000,6941.000000,17370.000000
19546.000000,51005.000000,7284.000000,17720.000000
19711.000000,51180.000000,7593.000000,18042.000000
19887.000000,51366.000000,7906.000000,18389.000000
20061.000000,51549.000000,8204.000000,18723.000000
20199.000000,51689.000000,8441.000000,18980.000000
20311.000000,51804.000000,8640.000000,19192.000000
20430.000000,51930.000000,8842.000000,19415.000000
20538.000000,52048.000000,9019.000000,19613.000000
20608.000000,52119.000000,9133.000000,19735.000000
20655.000000,52166.000000,9217.000000,19822.000000
20706.000000,52224.000000,9310.000000,19921.000000
20744.000000,52268.000000,9380.000000,19989.000000
20747.000000,52268.000000,9394.000000,19983.000000
20736.000000,52253.000000,9387.000000,19961.000000
20735.000000,52256.000000,9394.000000,19971.000000
20729.000000,52250.000000,9381.000000,19963.000000
20703.000000,52209.000000,9325.000000,19903.000000
20680.000000,52168.000000,9269.000000,19847.000000
20673.000000,52155.000000,9237.000000,19828.000000
20652.000000,52131.000000,9185.000000,19789.000000
20603.000000,52071.000000,9093.000000,19701.000000
20560.000000,52015.000000,9007.000000,19626.000000
20535.000000,51985.000000,8946.000000,19590.000000
20497.000000,51942.000000,8868.000000,19532.000000
20436.000000,51871.000000,8762.000000,19428.000000
20381.000000,51811.000000,8667.000000,19338.000000
20339.000000,51772.000000,8592.000000,19271.000000
20281.000000,51712.000000,8490.000000,19163.000000
20204.000000,51620.000000,8354.000000,19015.000000
20141.000000,51538.000000,8230.000000,18897.000000
20092.000000,51481.000000,8125.000000,18809.000000
20027.000000,51409.000000,8000.000000,18679.000000
19952.000000,51322.000000,7859.000000,18521.000000
19902.000000,51262.000000,7748.000000,18416.000000
19867.000000,51228.000000,7665.000000,18356.000000
19818.000000,51181.000000,7570.000000,18264.000000
19764.000000,51125.000000,7471.000000,18156.000000
19740.000000,51101.000000,7414.000000,18107.000000
19740.000000,51102.000000,7396.000000,18093.000000
19732.000000,51084.000000,7369.000000,18044.000000
19721.000000,51059.000000,7339.000000,17988.000000
19733.000000,51066.000000,7344.000000,17994.000000
19755.000000,51089.000000,7367.000000,18033.000000
19754.000000,51087.000000,7368.000000,18035.000000
19748.000000,51079.000000,7363.000000,18025.000000
19765.000000,51105.000000,7391.000000,18061.000000
19787.000000,51142.000000,7432.000000,18106.000000
19788.000000,51149.000000,7447.000000,18100.000000
19789.000000,51150.000000,7459.000000,18088.000000
19815.000000,51179.000000,7503.000000,18129.000000
19849.000000,51213.000000,7553.000000,18180.000000
19865.000000,51217.000000,7570.000000,18184.000000
19881.000000,51221.000000,7587.000000,18194.000000
19917.000000,51255.000000,7636.000000,18257.000000
19949.000000,51285.000000,7682.000000,18315.000000
19955.000000,51279.000000,7692.000000,18319.000000
19958.000000,51273.000000,7703.000000,18327.000000
19979.000000,51290.000000,7740.000000,18372.000000
19994.000000,51296.000000,7766.000000,18393.000000
19985.000000,51272.000000,7753.000000,18359.000000
19981.000000,51257.000000,7741.000000,18334.000000
19994.000000,51270.000000,7749.000000,18343.000000
19993.000000,51269.000000,7732.000000,18323.000000
19962.000000,51235.000000,7671.000000,18255.000000
19934.000000,51208.000000,7614.000000,18203.000000
19921.000000,51205.000000,7583.000000,18185.000000
19892.000000,51182.000000,7533.000000,18135.000000
19839.000000,51126.000000,7451.000000,18037.000000
19798.000000,51082.000000,7383.000000,17961.000000
19775.000000,51060.000000,7337.000000,17920.000000
19736.000000,51017.000000,7270.000000,17852.000000
19676.000000,50942.000000,7172.000000,17757.000000
19630.000000,50882.000000,7089.000000,17701.000000
19599.000000,50845.000000,7030.000000,17674.000000
19556.000000,50792.000000,6953.000000,17599.000000
19502.000000,50723.000000,6855.000000,17490.000000
19462.000000,50681.000000,6782.000000,17420.000000
19432.000000,50661.000000,6729.000000,17380.000000
19390.000000,50619.000000,6649.000000,17301.000000
19344.000000,50565.000000,6555.000000,17205.000000
19320.000000,50539.000000,6495.000000,17157.000000
19310.000000,50529.000000,6461.000000,17133.000000
19284.000000,50493.000000,6405.000000,17064.000000
19243.000000,50443.000000,6333.000000,16972.000000
19213.000000,50422.000000,6283.000000,16915.000000
19184.000000,50411.000000,6240.000000,16867.000000
19138.000000,50366.000000,6165.000000,16773.000000
19089.000000,50306.000000,6077.000000,16673.000000
19060.000000,50270.000000,6014.000000,16621.000000
19033.000000,50239.000000,5955.000000,16578.000000
18984.000000,50180.000000,5869.000000,16486.000000
18930.000000,50113.000000,5781.000000,16389.000000
18895.000000,50072.000000,5716.000000,16337.000000
18865.000000,50034.000000,5648.000000,16276.000000
18816.000000,49968.000000,5552.000000,16165.000000
18765.000000,49903.000000,5462.000000,16057.000000
18734.000000,49867.000000,5401.000000,15992.000000
18698.000000,49830.000000,5328.000000,15917.000000
18639.000000,49769.000000,5223.000000,15799.000000
18587.000000,49719.000000,5129.000000,15697.000000
18558.000000,49697.000000,5076.000000,15640.000000
18527.000000,49668.000000,5020.000000,15568.000000
18482.000000,49614.000000,4937.000000,15458.000000
18452.000000,49576.000000,4876.000000,15379.000000
18447.000000,49577.000000,4855.000000,15360.000000
18438.000000,49575.000000,4836.000000,15342.000000
18424.000000,49561.000000,4814.000000,15317.000000
18447.000000,49584.000000,4849.000000,15367.000000
18515.000000,49663.000000,4959.000000,15507.000000
18598.000000,49756.000000,5101.000000,15663.000000
18687.000000,49856.000000,5268.000000,15829.000000
18813.000000,50002.000000,5508.000000,16078.000000
18982.000000,50200.000000,5814.000000,16401.000000
19162.000000,50398.000000,6128.000000,16717.000000
19343.000000,50590.000000,6443.000000,17028.000000
19550.000000,50812.000000,6798.000000,17396.000000
19774.000000,51056.000000,7187.000000,17801.000000
19979.000000,51274.000000,7551.000000,18173.000000
20163.000000,51470.000000,7887.000000,18518.000000
20353.000000,51681.000000,8232.000000,18890.000000
20543.000000,51899.000000,8572.000000,19261.000000
20701.000000,52079.000000,8860.000000,19561.000000
20836.000000,52226.000000,9108.000000,19807.000000
20978.000000,52376.000000,9355.000000,20057.000000
21113.000000,52514.000000,9582.000000,20292.000000
21214.000000,52602.000000,9746.000000,20452.000000
21290.000000,52666.000000,9870.000000,20573.000000
21374.000000,52746.000000,9999.000000,20717.000000
21453.000000,52823.000000,10112.000000,20848.000000
21501.000000,52860.000000,10172.000000,20906.000000
21533.000000,52878.000000,10205.000000,20929.000000
21569.000000,52909.000000,10247.000000,20967.000000
21590.000000,52931.000000,10273.000000,20984.000000
21576.000000,52913.000000,10252.000000,20945.000000
21550.000000,52882.000000,10215.000000,20901.000000
21537.000000,52868.000000,10194.000000,20889.000000
21517.000000,52845.000000,10160.000000,20859.000000
21475.000000,52789.000000,10087.000000,20776.000000
21433.000000,52737.000000,10013.000000,20702.000000
21408.000000,52708.000000,9964.000000,20672.000000
21378.000000,52669.000000,9903.000000,20632.000000
21327.000000,52601.000000,9813.000000,20545.000000
21284.000000,52542.000000,9733.000000,20466.000000
21263.000000,52516.000000,9676.000000,20425.000000
21227.000000,52476.000000,9597.000000,20361.000000
21163.000000,52402.000000,9479.000000,20248.000000
21103.000000,52335.000000,9371.000000,20150.000000
21062.000000,52291.000000,9287.000000,20082.000000
21008.000000,52229.000000,9185.000000,19985.000000
20933.000000,52144.000000,9057.000000,19847.000000
20872.000000,52079.000000,8950.000000,19732.000000
20831.000000,52038.000000,8874.000000,19655.000000
20784.000000,51982.000000,8782.000000,19558.000000
20723.000000,51907.000000,8672.000000,19442.000000
20678.000000,51856.000000,8590.000000,19372.000000
20655.000000,51835.000000,8542.000000,19346.000000
20622.000000,51802.000000,8482.000000,19286.000000
20580.000000,51757.000000,8413.000000,19197.000000
20561.000000,51743.000000,8378.000000,19158.000000
20560.000000,51754.000000,8368.000000,19158.000000
20547.000000,51746.000000,8337.000000,19129.000000
20529.000000,51724.000000,8296.000000,19087.000000
20535.000000,51730.000000,8294.000000,19089.000000
20557.000000,51754.000000,8315.000000,19110.000000
20560.000000,51756.000000,8312.000000,19094.000000
20550.000000,51745.000000,8299.000000,19070.000000
20555.000000,51762.000000,8322.000000,19097.000000
20570.000000,51790.000000,8360.000000,19142.000000
20572.000000,51793.000000,8369.000000,19144.000000
20578.000000,51791.000000,8373.000000,19138.000000
20608.000000,51819.000000,8408.000000,19181.000000
20635.000000,51850.000000,8442.000000,19231.000000
20630.000000,51848.000000,8442.000000,19234.000000
20620.000000,51842.000000,8441.000000,19231.000000
20631.000000,51862.000000,8471.000000,19266.000000
20644.000000,51880.000000,8494.000000,19287.000000
20635.000000,51864.000000,8478.000000,19253.000000
20624.000000,51844.000000,8460.000000,19223.000000
20629.000000,51844.000000,8467.000000,19241.000000
20625.000000,51829.000000,8459.000000,19243.000000
20597.000000,51781.000000,8411.000000,19192.000000
20573.000000,51740.000000,8365.000000,19147.000000
20570.000000,51730.000000,8345.000000,19139.000000
20558.000000,51711.000000,8306.000000,19111.000000
20521.000000,51662.000000,8229.000000,19036.000000
20488.000000,51624.000000,8163.000000,18976.000000
20471.000000,51614.000000,8126.000000,18953.000000
20445.000000,51595.000000,8078.000000,18904.000000
20406.000000,51557.000000,8007.000000,18814.000000
20376.000000,51534.000000,7953.000000,18745.000000
20358.000000,51529.000000,7919.000000,18707.000000
20327.000000,51500.000000,7860.000000,18641.000000
20282.000000,51445.000000,7775.000000,18545.000000
20249.000000,51406.000000,7709.000000,18486.000000
20232.000000,51388.000000,7665.000000,18458.000000
20202.000000,51349.000000,7601.000000,18388.000000
20157.000000,51287.000000,7515.000000,18285.000000
20126.000000,51243.000000,7451.000000,18216.000000
20100.000000,51213.000000,7400.000000,18176.000000
20050.000000,51155.000000,7320.000000,18094.000000
19982.000000,51078.000000,7221.000000,17983.000000
19931.000000,51024.000000,7149.000000,17913.000000
19889.000000,50985.000000,7091.000000,17856.000000
19825.000000,50917.000000,7001.000000,17744.000000
19751.000000,50834.000000,6890.000000,17610.000000
19700.000000,50780.000000,6804.000000,17524.000000
19658.000000,50740.000000,6729.000000,17456.000000
19593.000000,50670.000000,6622.000000,17338.000000
19522.000000,50594.000000,6505.000000,17202.000000
19476.000000,50552.000000,6424.000000,17112.000000
19437.000000,50519.000000,6354.000000,17038.000000
19382.000000,50457.000000,6255.000000,16930.000000
19329.000000,50392.000000,6156.000000,16828.000000
19303.000000,50361.000000,6091.000000,16784.000000
19286.000000,50340.000000,6036.000000,16752.000000
19255.000000,50296.000000,5959.000000,16683.000000
19227.000000,50255.000000,5888.000000,16622.000000
19221.000000,50241.000000,5848.000000,16609.000000
19212.000000,50222.000000,5803.000000,16589.000000
19182.000000,50177.000000,5728.000000,16521.000000
19154.000000,50137.000000,5660.000000,16453.000000
19141.000000,50128.000000,5629.000000,16418.000000
19118.000000,50114.000000,5598.000000,16373.000000
19077.000000,50079.000000,5553.000000,16303.000000
19056.000000,50066.000000,5540.000000,16275.000000
19074.000000,50102.000000,5584.000000,16319.000000
19109.000000,50153.000000,5654.000000,16382.000000
19153.000000,50208.000000,5747.000000,16450.000000
19235.000000,50304.000000,5909.000000,16590.000000
19363.000000,50449.000000,6150.000000,16823.000000
19507.000000,50602.000000,6426.000000,17085.000000
19662.000000,50757.000000,6717.000000,17355.000000
19849.000000,50953.000000,7052.000000,17687.000000
20067.000000,51190.000000,7429.000000,18082.000000
20282.000000,51421.000000,7795.000000,18460.000000
20484.000000,51637.000000,8141.000000,18810.000000
20697.000000,51871.000000,8504.000000,19188.000000
20910.000000,52114.000000,8875.000000,19576.000000
21091.000000,52315.000000,9200.000000,19902.000000
21242.000000,52478.000000,9480.000000,20177.000000
21396.000000,52648.000000,9759.000000,20473.000000
21545.000000,52819.000000,10023.000000,20769.000000
21655.000000,52941.000000,10229.000000,20994.000000
21735.000000,53023.000000,10392.000000,21163.000000
21820.000000,53110.000000,10557.000000,21341.000000
21903.000000,53200.000000,10710.000000,21505.000000
21959.000000,53257.000000,10809.000000,21595.000000
22000.000000,53298.000000,10875.000000,21647.000000
22049.000000,53356.000000,10954.000000,21724.000000
22093.000000,53409.000000,11021.000000,21796.000000
22106.000000,53420.000000,11038.000000,21808.000000
22104.000000,53411.000000,11031.000000,21799.000000
22115.000000,53420.000000,11041.000000,21821.000000
22121.000000,53424.000000,11043.000000,21827.000000
22098.000000,53390.000000,11003.000000,21775.000000
22066.000000,53345.000000,10947.000000,21719.000000
22049.000000,53322.000000,10909.000000,21701.000000
22027.000000,53294.000000,10859.000000,21668.000000
21981.000000,53238.000000,10774.000000,21581.000000
21935.000000,53183.000000,10691.000000,21494.000000
21905.000000,53151.000000,10636.000000,21446.000000
21866.000000,53108.000000,10570.000000,21384.000000
21801.000000,53030.000000,10467.000000,21273.000000
21740.000000,52956.000000,10366.000000,21171.000000
21693.000000,52911.000000,10285.000000,21108.000000
21631.000000,52854.000000,10183.000000,21017.000000
21543.000000,52765.000000,10044.000000,20872.000000
21463.000000,52684.000000,9914.000000,20739.000000
21401.000000,52626.000000,9814.000000,20639.000000
21324.000000,52553.000000,9699.000000,20515.000000
21229.000000,52452.000000,9554.000000,20361.000000
21153.000000,52371.000000,9430.000000,20244.000000
21106.000000,52323.000000,9341.000000,20172.000000
21055.000000,52264.000000,9241.000000,20079.000000
20993.000000,52184.000000,9128.000000,19959.000000
20952.000000,52128.000000,9052.000000,19883.000000
20930.000000,52103.000000,9016.000000,19848.000000
20900.000000,52070.000000,8966.000000,19789.000000
20867.000000,52031.000000,8903.000000,19720.000000
20860.000000,52025.000000,8875.000000,19707.000000
20870.000000,52044.000000,8877.000000,19729.000000
20865.000000,52043.000000,8861.000000,19713.000000
20847.000000,52028.000000,8833.000000,19679.000000
20851.000000,52041.000000,8844.000000,19696.000000
20873.000000,52072.000000,8883.000000,19743.000000
20885.000000,52080.000000,8898.000000,19753.000000
20896.000000,52081.000000,8902.000000,19747.000000
20930.000000,52113.000000,8938.000000,19787.000000
20970.000000,52154.000000,8986.000000,19844.000000
20985.000000,52164.000000,9002.000000,19858.000000
20987.000000,52164.000000,9007.000000,19859.000000
21005.000000,52190.000000,9039.000000,19901.000000
21022.000000,52219.000000,9070.000000,19942.000000
21014.000000,52213.000000,9063.000000,19924.000000
20999.000000,52195.000000,9044.000000,19890.000000
21004.000000,52201.000000,9050.000000,19892.000000
21007.000000,52205.000000,9053.000000,19885.000000
20986.000000,52174.000000,9019.000000,19828.000000
20960.000000,52140.000000,8980.000000,19767.000000
20952.000000,52133.000000,8968.000000,19745.000000
20936.000000,52118.000000,8943.000000,19713.000000
20894.000000,52068.000000,8881.000000,19641.000000
20856.000000,52023.000000,8821.000000,19584.000000
20841.000000,52007.000000,8788.000000,19569.000000
20818.000000,51981.000000,8738.000000,19532.000000
20772.000000,51924.000000,8656.000000,19450.000000
20731.000000,51876.000000,8584.000000,19385.000000
20709.000000,51856.000000,8540.000000,19354.000000
20676.000000,51822.000000,8478.000000,19294.000000
20620.000000,51757.000000,8385.000000,19191.000000
20567.000000,51700.000000,8302.000000,19112.000000
20522.000000,51661.000000,8240.000000,19062.000000
20461.000000,51601.000000,8155.000000,18973.000000
20382.000000,51516.000000,8040.000000,18839.000000
20317.000000,51448.000000,7945.000000,18741.000000
20276.000000,51409.000000,7876.000000,18691.000000
20229.000000,51359.000000,7791.000000,18614.000000
20174.000000,51295.000000,7688.000000,18508.000000
20139.000000,51256.000000,7614.000000,18443.000000
20119.000000,51239.000000,7561.000000,18409.000000
20079.000000,51195.000000,7477.000000,18328.000000
20021.000000,51126.000000,7370.000000,18214.000000
19979.000000,51082.000000,7292.000000,18134.000000
19946.000000,51057.000000,7233.000000,18067.000000
19887.000000,51004.000000,7143.000000,17952.000000
19812.000000,50928.000000,7034.000000,17813.000000
19754.000000,50872.000000,6953.000000,17712.000000
19704.000000,50826.000000,6880.000000,17629.000000
19635.000000,50746.000000,6773.000000,17505.000000
19560.000000,50654.000000,6653.000000,17372.000000
19505.000000,50592.000000,6568.000000,17288.000000
19454.000000,50544.000000,6495.000000,17222.000000
19385.000000,50470.000000,6394.000000,17115.000000
19315.000000,50388.000000,6283.000000,17006.000000
19272.000000,50337.000000,6204.000000,16945.000000
19236.000000,50300.000000,6135.000000,16888.000000
19184.000000,50244.000000,6044.000000,16781.000000
19134.000000,50194.000000,5959.000000,16674.000000
19107.000000,50176.000000,5909.000000,16614.000000
19081.000000,50158.000000,5858.000000,16549.000000
19034.000000,50109.000000,5777.000000,16448.000000
18990.000000,50061.000000,5703.000000,16375.000000
18970.000000,50043.000000,5667.000000,16367.000000
18951.000000,50030.000000,5638.000000,16356.000000
18921.000000,50002.000000,5600.000000,16310.000000
18912.000000,50002.000000,5600.000000,16309.000000
18945.000000,50053.000000,5667.000000,16393.000000
18996.000000,50120.000000,5769.000000,16500.000000
19056.000000,50190.000000,5892.000000,16613.000000
19156.000000,50305.000000,6082.000000,16803.000000
19304.000000,50480.000000,6354.000000,17087.000000
19462.000000,50669.000000,6654.000000,17386.000000
19618.000000,50847.000000,6958.000000,17675.000000
19805.000000,51054.000000,7303.000000,18018.000000
20024.000000,51296.000000,7689.000000,18416.000000
20238.000000,51525.000000,8064.000000,18794.000000
20438.000000,51728.000000,8417.000000,19139.000000
20653.000000,51945.000000,8789.000000,19512.000000
20877.000000,52177.000000,9171.000000,19902.000000
21074.000000,52378.000000,9504.000000,20236.000000
21238.000000,52543.000000,9788.000000,20521.000000
21402.000000,52717.000000,10071.000000,20813.000000
21562.000000,52894.000000,10350.000000,21096.000000
21685.000000,53034.000000,10576.000000,21307.000000
21777.000000,53138.000000,10750.000000,21463.000000
21866.000000,53243.000000,10913.000000,21628.000000
21942.000000,53338.000000,11054.000000,21783.000000
21982.000000,53385.000000,11133.000000,21870.000000
21998.000000,53399.000000,11169.000000,21916.000000
22020.000000,53422.000000,11206.000000,21976.000000
22032.000000,53441.000000,11230.000000,22021.000000
22009.000000,53416.000000,11204.000000,22001.000000
21969.000000,53371.000000,11152.000000,21958.000000
21942.000000,53345.000000,11114.000000,21948.000000
21918.000000,53320.000000,11073.000000,21933.000000
21876.000000,53268.000000,10999.000000,21868.000000
21836.000000,53217.000000,10922.000000,21797.000000
21821.000000,53197.000000,10878.000000,21770.000000
21806.000000,53178.000000,10837.000000,21744.000000
21766.000000,53129.000000,10768.000000,21673.000000
21723.000000,53079.000000,10703.000000,21608.000000
21698.000000,53054.000000,10666.000000,21587.000000
21670.000000,53025.000000,10617.000000,21548.000000
21622.000000,52967.000000,10530.000000,21451.000000
21573.000000,52908.000000,10444.000000,21350.000000
21540.000000,52869.000000,10380.000000,21275.000000
21492.000000,52813.000000,10295.000000,21169.000000
21416.000000,52721.000000,10170.000000,21012.000000
21346.000000,52636.000000,10048.000000,20874.000000
21294.000000,52580.000000,9950.000000,20782.000000
21230.000000,52516.000000,9838.000000,20672.000000
21148.000000,52427.000000,9701.000000,20529.000000
21084.000000,52358.000000,9585.000000,20420.000000
21045.000000,52321.000000,9506.000000,20356.000000
20997.000000,52273.000000,9416.000000,20269.000000
20930.000000,52202.000000,9309.000000,20156.000000
20882.000000,52157.000000,9234.000000,20089.000000
20861.000000,52146.000000,9194.000000,20069.000000
20834.000000,52124.000000,9143.000000,20020.000000
20796.000000,52085.000000,9080.000000,19943.000000
20778.000000,52076.000000,9053.000000,19911.000000
20781.000000,52094.000000,9057.000000,19924.000000
20772.000000,52092.000000,9046.000000,19918.000000
20756.000000,52074.000000,9023.000000,19895.000000
20765.000000,52087.000000,9038.000000,19915.000000
20788.000000,52119.000000,9077.000000,19954.000000
20793.000000,52120.000000,9092.000000,19950.000000
20789.000000,52102.000000,9095.000000,19927.000000
20808.000000,52111.000000,9131.000000,19952.000000
20838.000000,52135.000000,9176.000000,19992.000000
20847.000000,52129.000000,9183.000000,19989.000000
20846.000000,52108.000000,9175.000000,19975.000000
20861.000000,52116.000000,9195.000000,20005.000000
20875.000000,52134.000000,9218.000000,20039.000000
20865.000000,52121.000000,9204.000000,20023.000000
20849.000000,52102.000000,9177.000000,19994.000000
20852.000000,52110.000000,9174.000000,19999.000000
20854.000000,52122.000000,9170.000000,20000.000000
20832.000000,52107.000000,9133.000000,19954.000000
20807.000000,52089.000000,9091.000000,19906.000000
20797.000000,52091.000000,9075.000000,19894.000000
20781.000000,52084.000000,9053.000000,19865.000000
20740.000000,52041.000000,8994.000000,19787.000000
20697.000000,51994.000000,8933.000000,19719.000000
20675.000000,51964.000000,8894.000000,19698.000000
20649.000000,51923.000000,8840.000000,19660.000000
20593.000000,51857.000000,8743.000000,19565.000000
20532.000000,51800.000000,8644.000000,19480.000000
20484.000000,51768.000000,8571.000000,19437.000000
20429.000000,51722.000000,8486.000000,19370.000000
20356.000000,51647.000000,8373.000000,19259.000000
20294.000000,51584.000000,8277.000000,19171.000000
20253.000000,51548.000000,8215.000000,19121.000000
20202.000000,51497.000000,8139.000000,19037.000000
20133.000000,51418.000000,8034.000000,18908.000000
20077.000000,51355.000000,7947.000000,18807.000000
20041.000000,51318.000000,7886.000000,18743.000000
19995.000000,51260.000000,7805.000000,18648.000000
19937.000000,51180.000000,7699.000000,18515.000000
19894.000000,51123.000000,7616.000000,18417.000000
19865.000000,51088.000000,7555.000000,18354.000000
19814.000000,51029.000000,7463.000000,18258.000000
19741.000000,50948.000000,7348.000000,18139.000000
19683.000000,50893.000000,7263.000000,18069.000000
19638.000000,50859.000000,7201.000000,18028.000000
19577.000000,50802.000000,7114.000000,17943.000000
19507.000000,50725.000000,7009.000000,17826.000000
19459.000000,50674.000000,6929.000000,17752.000000
19424.000000,50640.000000,6861.000000,17704.000000
19368.000000,50579.000000,6766.000000,17609.000000
19302.000000,50506.000000,6660.000000,17493.000000
19257.000000,50460.000000,6586.000000,17422.000000
19223.000000,50426.000000,6526.000000,17357.000000
19171.000000,50365.000000,6437.000000,17241.000000
19114.000000,50296.000000,6339.000000,17116.000000
19074.000000,50254.000000,6268.000000,17041.000000
19032.000000,50216.000000,6199.000000,16968.000000
18964.000000,50148.000000,6100.000000,16846.000000
18894.000000,50078.000000,6002.000000,16726.000000
18848.000000,50041.000000,5939.000000,16659.000000
18804.000000,50005.000000,5870.000000,16593.000000
18738.000000,49937.000000,5762.000000,16480.000000
18674.000000,49867.000000,5653.000000,16374.000000
18633.000000,49828.000000,5582.000000,16317.000000
18590.000000,49787.000000,5512.000000,16249.000000
18529.000000,49721.000000,5422.000000,16139.000000
18479.000000,49672.000000,5356.000000,16055.000000
18462.000000,49668.000000,5345.000000,16042.000000
18456.000000,49678.000000,5352.000000,16047.000000
18454.000000,49683.000000,5363.000000,16054.000000
18494.000000,49729.000000,5437.000000,16137.000000
18591.000000,49838.000000,5600.000000,16318.000000
18707.000000,49967.000000,5806.000000,16527.000000
18827.000000,50100.000000,6032.000000,16747.000000
18980.000000,50276.000000,6320.000000,17037.000000
19175.000000,50500.000000,6669.000000,17404.000000
19375.000000,50724.000000,7027.000000,17772.000000
19566.000000,50932.000000,7380.000000,18126.000000
19775.000000,51163.000000,7764.000000,18516.000000
20000.000000,51414.000000,8173.000000,18932.000000
20202.000000,51637.000000,8549.000000,19292.000000
20378.000000,51827.000000,8883.000000,19596.000000
20557.000000,52027.000000,9217.000000,19915.000000
20739.000000,52234.000000,9542.000000,20242.000000
20891.000000,52399.000000,9805.000000,20508.000000
21015.000000,52522.000000,10017.000000,20721.000000
21137.000000,52648.000000,10226.000000,20948.000000
21249.000000,52769.000000,10418.000000,21163.000000
21318.000000,52843.000000,10547.000000,21297.000000
21357.000000,52881.000000,10629.000000,21378.000000
21402.000000,52928.000000,10710.000000,21473.000000
21440.000000,52968.000000,10777.000000,21560.000000
21440.000000,52965.000000,10787.000000,21584.000000
21423.000000,52941.000000,10769.000000,21574.000000
21420.000000,52936.000000,10766.000000,21590.000000
21415.000000,52932.000000,10756.000000,21598.000000
21378.000000,52891.000000,10704.000000,21542.000000
21327.000000,52838.000000,10636.000000,21471.000000
21290.000000,52809.000000,10590.000000,21436.000000
21253.000000,52783.000000,10538.000000,21396.000000
21196.000000,52727.000000,10450.000000,21310.000000
21140.000000,52668.000000,10357.000000,21221.000000
21104.000000,52636.000000,10294.000000,21157.000000
21063.000000,52598.000000,10224.000000,21068.000000
20994.000000,52525.000000,10115.000000,20928.000000
20922.000000,52446.000000,10000.000000,20798.000000
20865.000000,52387.000000,9905.000000,20709.000000
20799.000000,52315.000000,9792.000000,20601.000000
20714.000000,52211.000000,9639.000000,20447.000000
20636.000000,52112.000000,9483.000000,20303.000000
20575.000000,52036.000000,9348.000000,20192.000000
20498.000000,51948.000000,9198.000000,20054.000000
20396.000000,51831.000000,9027.000000,19874.000000
20306.000000,51731.000000,8877.000000,19722.000000
20240.000000,51664.000000,8764.000000,19620.000000
20174.000000,51592.000000,8645.000000,19506.000000
20099.000000,51511.000000,8515.000000,19372.000000
20044.000000,51459.000000,8421.000000,19286.000000
20014.000000,51437.000000,8368.000000,19254.000000
19980.000000,51404.000000,8310.000000,19209.000000
19942.000000,51359.000000,8249.000000,19148.000000
19930.000000,51344.000000,8231.000000,19132.000000
19939.000000,51359.000000,8250.000000,19151.000000
19937.000000,51359.000000,8258.000000,19133.000000
19928.000000,51348.000000,8257.000000,19096.000000
19939.000000,51367.000000,8287.000000,19113.000000
19963.000000,51407.000000,8337.000000,19165.000000
19971.000000,51424.000000,8363.000000,19182.000000
19969.000000,51425.000000,8374.000000,19185.000000
19987.000000,51452.000000,8413.000000,19238.000000
20015.000000,51497.000000,8467.000000,19303.000000
20023.000000,51518.000000,8497.000000,19314.000000
20024.000000,51529.000000,8517.000000,19305.000000
20047.000000,51567.000000,8565.000000,19345.000000
20077.000000,51609.000000,8614.000000,19403.000000
20088.000000,51616.000000,8624.000000,19422.000000
20097.000000,51611.000000,8621.000000,19432.000000
20126.000000,51632.000000,8642.000000,19482.000000
20150.000000,51652.000000,8658.000000,19524.000000
20144.000000,51635.000000,8634.000000,19509.000000
20131.000000,51609.000000,8598.000000,19484.000000
20136.000000,51608.000000,8582.000000,19491.000000
20133.000000,51602.000000,8556.000000,19480.000000
20100.000000,51557.000000,8491.000000,19412.000000
20061.000000,51511.000000,8426.000000,19342.000000
20040.000000,51495.000000,8388.000000,19305.000000
20009.000000,51471.000000,8340.000000,19250.000000
19951.000000,51414.000000,8259.000000,19147.000000
19897.000000,51361.000000,8185.000000,19063.000000
19861.000000,51330.000000,8142.000000,19024.000000
19818.000000,51285.000000,8084.000000,18960.000000
19754.000000,51210.000000,7992.000000,18845.000000
19701.000000,51146.000000,7908.000000,18749.000000
19670.000000,51112.000000,7852.000000,18698.000000
19627.000000,51063.000000,7779.000000,18620.000000
19560.000000,50986.000000,7674.000000,18502.000000
19500.000000,50919.000000,7580.000000,18406.000000
19455.000000,50876.000000,7508.000000,18343.000000
19397.000000,50817.000000,7415.000000,18253.000000
19320.000000,50736.000000,7298.000000,18130.000000
19259.000000,50675.000000,7206.000000,18041.000000
19219.000000,50639.000000,7142.000000,17980.000000
19166.000000,50584.000000,7058.000000,17879.000000
19094.000000,50508.000000,6950.000000,17742.000000
19036.000000,50453.000000,6864.000000,17645.000000
18990.000000,50418.000000,6798.000000,17583.000000
18930.000000,50361.000000,6704.000000,17486.000000
18863.000000,50290.000000,6592.000000,17370.000000
18822.000000,50249.000000,6512.000000,17302.000000
18798.000000,50228.000000,6455.000000,17257.000000
18756.000000,50183.000000,6376.000000,17164.000000
18706.000000,50122.000000,6285.000000,17057.000000
18679.000000,50086.000000,6226.000000,17004.000000
18662.000000,50066.000000,6180.000000,16971.000000
18622.000000,50021.000000,6103.000000,16895.000000
18573.000000,49967.000000,6016.000000,16811.000000
18547.000000,49942.000000,5963.000000,16772.000000
18525.000000,49925.000000,5920.000000,16738.000000
18481.000000,49876.000000,5847.000000,16656.000000
18431.000000,49818.000000,5768.000000,16568.000000
18399.000000,49787.000000,5718.000000,16519.000000
18367.000000,49758.000000,5668.000000,16460.000000
18316.000000,49702.000000,5585.000000,16349.000000
18268.000000,49649.000000,5503.000000,16240.000000
18247.000000,49629.000000,5455.000000,16178.000000
18226.000000,49607.000000,5410.000000,16112.000000
18186.000000,49558.000000,5345.000000,16009.000000
18157.000000,49524.000000,5301.000000,15940.000000
18159.000000,49534.000000,5307.000000,15954.000000
18173.000000,49558.000000,5333.000000,15993.000000
18193.000000,49576.000000,5371.000000,16027.000000
18246.000000,49629.000000,5468.000000,16120.000000
18340.000000,49735.000000,5639.000000,16298.000000
18448.000000,49858.000000,5842.000000,16505.000000
18560.000000,49982.000000,6062.000000,16725.000000
18708.000000,50142.000000,6339.000000,17018.000000
18893.000000,50346.000000,6677.000000,17383.000000
19081.000000,50551.000000,7023.000000,17739.000000
19260.000000,50745.000000,7362.000000,18073.000000
19455.000000,50964.000000,7728.000000,18446.000000
19663.000000,51206.000000,8113.000000,18849.000000
19852.000000,51426.000000,8467.000000,19210.000000
20025.000000,51617.000000,8782.000000,19530.000000
20207.000000,51818.000000,9100.000000,19868.000000
20390.000000,52024.000000,9416.000000,20211.000000
20540.000000,52190.000000,9683.000000,20487.000000
20658.000000,52316.000000,9902.000000,20705.000000
20774.000000,52445.000000,10114.000000,20928.000000
20881.000000,52568.000000,10307.000000,21140.000000
20952.000000,52646.000000,10436.000000,21277.000000
21000.000000,52693.000000,10522.000000,21360.000000
21056.000000,52755.000000,10611.000000,21454.000000
21105.000000,52814.000000,10690.000000,21541.000000
21117.000000,52824.000000,10711.000000,21563.000000
21106.000000,52801.000000,10693.000000,21548.000000
21103.000000,52790.000000,10686.000000,21556.000000
21098.000000,52782.000000,10674.000000,21551.000000
21066.000000,52744.000000,10619.000000,21480.000000
21024.000000,52693.000000,10547.000000,21388.000000
20999.000000,52666.000000,10497.000000,21337.000000
20972.000000,52637.000000,10443.000000,21291.000000
20919.000000,52572.000000,10351.000000,21201.000000
20860.000000,52499.000000,10255.000000,21108.000000
20820.000000,52450.000000,10184.000000,21051.000000
20776.000000,52400.000000,10106.000000,20985.000000
20707.000000,52325.000000,9992.000000,20866.000000
20637.000000,52249.000000,9876.000000,20745.000000
20583.000000,52196.000000,9780.000000,20658.000000
20523.000000,52132.000000,9669.000000,20551.000000
20441.000000,52035.000000,9522.000000,20402.000000
20364.000000,51946.000000,9379.000000,20270.000000
20310.000000,51886.000000,9266.000000,20180.000000
20251.000000,51820.000000,9147.000000,20070.000000
20173.000000,51731.000000,9008.000000,19918.000000
20105.000000,51657.000000,8889.000000,19792.000000
20057.000000,51612.000000,8800.000000,19711.000000
20003.000000,51557.000000,8702.000000,19608.000000
19942.000000,51482.000000,8588.000000,19474.000000
19902.000000,51431.000000,8501.000000,19376.000000
19884.000000,51409.000000,8452.000000,19324.000000
19859.000000,51379.000000,8400.000000,19254.000000
19824.000000,51338.000000,8343.000000,19170.000000
19810.000000,51326.000000,8321.000000,19139.000000
19816.000000,51344.000000,8334.000000,19157.000000
19814.000000,51352.000000,8337.000000,19155.000000
19806.000000,51344.000000,8328.000000,19138.000000
19823.000000,51364.000000,8355.000000,19170.000000
19859.000000,51409.000000,8412.000000,19238.000000
19877.000000,51434.000000,8449.000000,19272.000000
19884.000000,51444.000000,8469.000000,19279.000000
19907.000000,51477.000000,8513.000000,19323.000000
19936.000000,51519.000000,8567.000000,19390.000000
19943.000000,51531.000000,8589.000000,19417.000000
19940.000000,51527.000000,8598.000000,19422.000000
19958.000000,51547.000000,8635.000000,19463.000000
19983.000000,51573.000000,8680.000000,19506.000000
19984.000000,51568.000000,8688.000000,19493.000000
19973.000000,51548.000000,8677.000000,19463.000000
19978.000000,51552.000000,8688.000000,19474.000000
19982.000000,51557.000000,8698.000000,19491.000000
19961.000000,51528.000000,8665.000000,19464.000000
19931.000000,51490.000000,8622.000000,19427.000000
19918.000000,51477.000000,8603.000000,19425.000000
19901.000000,51463.000000,8575.000000,19416.000000
19860.000000,51416.000000,8506.000000,19352.000000
19814.000000,51363.000000,8433.000000,19280.000000
19782.000000,51333.000000,8385.000000,19246.000000
19747.000000,51300.000000,8332.000000,19199.000000
19693.000000,51241.000000,8247.000000,19099.000000
19646.000000,51186.000000,8164.000000,19003.000000
19622.000000,51159.000000,8107.000000,18946.000000
19592.000000,51122.000000,8040.000000,18868.000000
19538.000000,51053.000000,7945.000000,18745.000000
19490.000000,50994.000000,7861.000000,18646.000000
19462.000000,50964.000000,7799.000000,18595.000000
19421.000000,50921.000000,7720.000000,18523.000000
19359.000000,50849.000000,7615.000000,18410.000000
19310.000000,50793.000000,7531.000000,18327.000000
19280.000000,50764.000000,7476.000000,18287.000000
19236.000000,50717.000000,7400.000000,18220.000000
19170.000000,50644.000000,7298.000000,18118.000000
19118.000000,50590.000000,7215.000000,18051.000000
19087.000000,50562.000000,7157.000000,18022.000000
19043.000000,50516.000000,7078.000000,17956.000000
18982.000000,50447.000000,6979.000000,17855.000000
18937.000000,50401.000000,6906.000000,17785.000000
18905.000000,50375.000000,6853.000000,17732.000000
18852.000000,50325.000000,6773.000000,17628.000000
18780.000000,50253.000000,6669.000000,17496.000000
18727.000000,50203.000000,6590.000000,17407.000000
18691.000000,50167.000000,6528.000000,17342.000000
18639.000000,50101.000000,6437.000000,17238.000000
18580.000000,50019.000000,6331.000000,17120.000000
18542.000000,49966.000000,6257.000000,17051.000000
18512.000000,49934.000000,6197.000000,17005.000000
18464.000000,49881.000000,6109.000000,16917.000000
18413.000000,49821.000000,6013.000000,16813.000000
18383.000000,49788.000000,5948.000000,16752.000000
18356.000000,49763.000000,5892.000000,16700.000000
18303.000000,49711.000000,5804.000000,16600.000000
18240.000000,49652.000000,5708.000000,16492.000000
18196.000000,49620.000000,5642.000000,16428.000000
18156.000000,49592.000000,5583.000000,16362.000000
18102.000000,49536.000000,5499.000000,16250.000000
18049.000000,49480.000000,5416.000000,16136.000000
18018.000000,49454.000000,5363.000000,16062.000000
17987.000000,49430.000000,5310.000000,15985.000000
17939.000000,49383.000000,5235.000000,15878.000000
17904.000000,49350.000000,5184.000000,15810.000000
17906.000000,49362.000000,5192.000000,15824.000000
17924.000000,49390.000000,5231.000000,15867.000000
17947.000000,49420.000000,5287.000000,15917.000000
18011.000000,49491.000000,5405.000000,16043.000000
18128.000000,49622.000000,5608.000000,16272.000000
18265.000000,49773.000000,5856.000000,16533.000000
18406.000000,49924.000000,6127.000000,16800.000000
18579.000000,50114.000000,6453.000000,17135.000000
18791.000000,50355.000000,6840.000000,17547.000000
19006.000000,50596.000000,7230.000000,17957.000000
19208.000000,50818.000000,7601.000000,18338.000000
19424.000000,51055.000000,7992.000000,18750.000000
19651.000000,51310.000000,8406.000000,19186.000000
19855.000000,51538.000000,8787.000000,19567.000000
20032.000000,51729.000000,9119.000000,19885.000000
20207.000000,51921.000000,9440.000000,20207.000000
20377.000000,52113.000000,9750.000000,20527.000000
20513.000000,52259.000000,10003.000000,20773.000000
20618.000000,52362.000000,10199.000000,20957.000000
20718.000000,52464.000000,10383.000000,21142.000000
20808.000000,52565.000000,10548.000000,21318.000000
20859.000000,52624.000000,10654.000000,21421.000000
20884.000000,52649.000000,10717.000000,21476.000000
20919.000000,52684.000000,10783.000000,21547.000000
20957.000000,52722.000000,10840.000000,21612.000000
20966.000000,52724.000000,10848.000000,21613.000000
20955.000000,52705.000000,10829.000000,21579.000000
20954.000000,52705.000000,10826.000000,21573.000000
20952.000000,52707.000000,10819.000000,21570.000000
20923.000000,52676.000000,10770.000000,21519.000000
20886.000000,52633.000000,10702.000000,21453.000000
20870.000000,52618.000000,10658.000000,21428.000000
20856.000000,52609.000000,10615.000000,21409.000000
20816.000000,52567.000000,10541.000000,21347.000000
20768.000000,52517.000000,10464.000000,21282.000000
20737.000000,52492.000000,10414.000000,21251.000000
20705.000000,52466.000000,10361.000000,21206.000000
20653.000000,52405.000000,10271.000000,21111.000000
20601.000000,52341.000000,10178.000000,21025.000000
20567.000000,52303.000000,10110.000000,20979.000000
20527.000000,52257.000000,10029.000000,20913.000000
20462.000000,52179.000000,9911.000000,20789.000000
20397.000000,52101.000000,9797.000000,20667.000000
20345.000000,52045.000000,9709.000000,20578.000000
20284.000000,51978.000000,9608.000000,20462.000000
20208.000000,51886.000000,9476.000000,20306.000000
20145.000000,51810.000000,9355.000000,20179.000000
20104.000000,51768.000000,9264.000000,20105.000000
20054.000000,51720.000000,9166.000000,20020.000000
19989.000000,51652.000000,9052.000000,19910.000000
19943.000000,51602.000000,8968.000000,19838.000000
19922.000000,51586.000000,8923.000000,19804.000000
19895.000000,51564.000000,8875.000000,19742.000000
19861.000000,51528.000000,8818.000000,19657.000000
19850.000000,51520.000000,8796.000000,19622.000000
19861.000000,51544.000000,8811.000000,19642.000000
19862.000000,51553.000000,8814.000000,19646.000000
19853.000000,51541.000000,8805.000000,19630.000000
19866.000000,51555.000000,8829.000000,19658.000000
19898.000000,51596.000000,8876.000000,19721.000000
19913.000000,51617.000000,8900.000000,19747.000000
19917.000000,51619.000000,8912.000000,19752.000000
19944.000000,51645.000000,8955.000000,19804.000000
19984.000000,51690.000000,9017.000000,19874.000000
20003.000000,51704.000000,9047.000000,19890.000000
20005.000000,51696.000000,9054.000000,19874.000000
20019.000000,51710.000000,9081.000000,19893.000000
20038.000000,51737.000000,9111.000000,19927.000000
20033.000000,51732.000000,9101.000000,19917.000000
20016.000000,51707.000000,9073.000000,19888.000000
20013.000000,51703.000000,9066.000000,19893.000000
20010.000000,51700.000000,9059.000000,19901.000000
19979.000000,51663.000000,9012.000000,19857.000000
19940.000000,51617.000000,8955.000000,19802.000000
19922.000000,51600.000000,8926.000000,19784.000000
19905.000000,51585.000000,8895.000000,19759.000000
19864.000000,51538.000000,8828.000000,19681.000000
19819.000000,51483.000000,8755.000000,19605.000000
19794.000000,51455.000000,8712.000000,19569.000000
19767.000000,51427.000000,8665.000000,19517.000000
19717.000000,51370.000000,8583.000000,19416.000000
19669.000000,51321.000000,8506.000000,19328.000000
19644.000000,51305.000000,8464.000000,19287.000000
19614.000000,51279.000000,8414.000000,19235.000000
19559.000000,51217.000000,8328.000000,19139.000000
19510.000000,51160.000000,8249.000000,19058.000000
19482.000000,51132.000000,8197.000000,19018.000000
19447.000000,51097.000000,8131.000000,18957.000000
19394.000000,51038.000000,8034.000000,18854.000000
19351.000000,50993.000000,7951.000000,18773.000000
19324.000000,50974.000000,7893.000000,18729.000000
19282.000000,50937.000000,7814.000000,18656.000000
19220.000000,50871.000000,7705.000000,18539.000000
19165.000000,50816.000000,7613.000000,18442.000000
19123.000000,50776.000000,7545.000000,18375.000000
19066.000000,50713.000000,7455.000000,18278.000000
18993.000000,50628.000000,7341.000000,18148.000000
18934.000000,50563.000000,7246.000000,18052.000000
18888.000000,50512.000000,7166.000000,17984.000000
18825.000000,50439.000000,7056.000000,17877.000000
18751.000000,50352.000000,6928.000000,17743.000000
18696.000000,50295.000000,6831.000000,17657.000000
18656.000000,50256.000000,6758.000000,17592.000000
18600.000000,50192.000000,6663.000000,17477.000000
18537.000000,50114.000000,6555.000000,17345.000000
18497.000000,50066.000000,6482.000000,17268.000000
18470.000000,50038.000000,6430.000000,17216.000000
18423.000000,49986.000000,6351.000000,17122.000000
18369.000000,49921.000000,6260.000000,17013.000000
18341.000000,49882.000000,6197.000000,16953.000000
18322.000000,49850.000000,6146.000000,16912.000000
18279.000000,49790.000000,6068.000000,16828.000000
18227.000000,49723.000000,5981.000000,16735.000000
18191.000000,49690.000000,5920.000000,16686.000000
18155.000000,49668.000000,5864.000000,16632.000000
18099.000000,49619.000000,5778.000000,16523.000000
18039.000000,49565.000000,5689.000000,16414.000000
18001.000000,49536.000000,5631.000000,16355.000000
17962.000000,49506.000000,5573.000000,16297.000000
17901.000000,49449.000000,5488.000000,16203.000000
17849.000000,49399.000000,5419.000000,16133.000000
17829.000000,49394.000000,5398.000000,16129.000000
17820.000000,49402.000000,5395.000000,16134.000000
17813.000000,49403.000000,5397.000000,16118.000000
17841.000000,49439.000000,5449.000000,16159.000000
17917.000000,49537.000000,5582.000000,16299.000000
18016.000000,49660.000000,5760.000000,16479.000000
18128.000000,49790.000000,5967.000000,16672.000000
18280.000000,49960.000000,6241.000000,16942.000000
18477.000000,50184.000000,6594.000000,17303.000000
18688.000000,50416.000000,6974.000000,17676.000000
18898.000000,50635.000000,7353.000000,18032.000000
19129.000000,50876.000000,7763.000000,18429.000000
19378.000000,51147.000000,8201.000000,18878.000000
19609.000000,51396.000000,8610.000000,19312.000000
19814.000000,51611.000000,8976.000000,19707.000000
20023.000000,51831.000000,9339.000000,20115.000000
20235.000000,52059.000000,9702.000000,20529.000000
20416.000000,52254.000000,10016.000000,20875.000000
20563.000000,52409.000000,10276.000000,21147.000000
20707.000000,52564.000000,10525.000000,21414.000000
20845.000000,52714.000000,10758.000000,21661.000000
20943.000000,52815.000000,10929.000000,21820.000000
21003.000000,52878.000000,11048.000000,21919.000000
21061.000000,52947.000000,11163.000000,22034.000000
21116.000000,53014.000000,11265.000000,22141.000000
21136.000000,53035.000000,11310.000000,22177.000000
21134.000000,53023.000000,11314.000000,22164.000000
21140.000000,53024.000000,11323.000000,22168.000000
21142.000000,53028.000000,11324.000000,22174.000000
21115.000000,52996.000000,11280.000000,22127.000000
21075.000000,52948.000000,11217.000000,22058.000000
21050.000000,52923.000000,11178.000000,22026.000000
21027.000000,52904.000000,11143.000000,22001.000000
20983.000000,52854.000000,11075.000000,21928.000000
20936.000000,52797.000000,11002.000000,21849.000000
20910.000000,52770.000000,10958.000000,21817.000000
20890.000000,52750.000000,10917.000000,21788.000000
20852.000000,52703.000000,10845.000000,21715.000000
20813.000000,52651.000000,10770.000000,21640.000000
20792.000000,52623.000000,10720.000000,21597.000000
20764.000000,52588.000000,10657.000000,21530.000000
20708.000000,52516.000000,10551.000000,21405.000000
20650.000000,52440.000000,10437.000000,21287.000000
20606.000000,52387.000000,10343.000000,21208.000000
20546.000000,52321.000000,10235.000000,21105.000000
20456.000000,52222.000000,10094.000000,20950.000000
20367.000000,52130.000000,9960.000000,20808.000000
20298.000000,52066.000000,9853.000000,20712.000000
20221.000000,51993.000000,9733.000000,20604.000000
20133.000000,51900.000000,9590.000000,20464.000000
20066.000000,51827.000000,9474.000000,20357.000000
20030.000000,51789.000000,9401.000000,20298.000000
19988.000000,51745.000000,9325.000000,20221.000000
