660nm,730nm,850nm,940nm
24841.000000,28374.000000,16144.000000,36395.000000
24781.000000,28323.000000,16061.000000,36309.000000
24721.000000,28272.000000,15971.000000,36226.000000
24664.000000,28224.000000,15883.000000,36150.000000
24606.000000,28174.000000,15796.000000,36072.000000
24543.000000,28123.000000,15706.000000,35983.000000
24476.000000,28076.000000,15608.000000,35892.000000
24404.000000,28034.000000,15504.000000,35804.000000
24326.000000,27983.000000,15391.000000,35709.000000
24245.000000,27924.000000,15273.000000,35595.000000
24159.000000,27864.000000,15155.000000,35484.000000
24071.000000,27805.000000,15042.000000,35400.000000
23984.000000,27746.000000,14929.000000,35329.000000
23897.000000,27688.000000,14811.000000,35251.000000
23817.000000,27635.000000,14694.000000,35170.000000
23748.000000,27585.000000,14587.000000,35088.000000
23688.000000,27535.000000,14487.000000,35005.000000
23633.000000,27488.000000,14388.000000,34920.000000
23583.000000,27446.000000,14290.000000,34838.000000
23532.000000,27407.000000,14198.000000,34761.000000
23476.000000,27368.000000,14109.000000,34690.000000
23419.000000,27328.000000,14014.000000,34626.000000
23363.000000,27286.000000,13916.000000,34563.000000
23307.000000,27241.000000,13825.000000,34497.000000
23247.000000,27193.000000,13736.000000,34417.000000
23178.000000,27145.000000,13641.000000,34306.000000
23104.000000,27092.000000,13538.000000,34177.000000
23032.000000,27034.000000,13437.000000,34046.000000
22963.000000,26974.000000,13338.000000,33912.000000
22892.000000,26914.000000,13236.000000,33775.000000
22815.000000,26855.000000,13131.000000,33649.000000
22733.000000,26795.000000,13023.000000,33546.000000
22647.000000,26733.000000,12910.000000,33463.000000
22559.000000,26670.000000,12793.000000,33382.000000
22474.000000,26611.000000,12679.000000,33283.000000
22400.000000,26556.000000,12572.000000,33169.000000
22328.000000,26501.000000,12467.000000,33063.000000
22257.000000,26447.000000,12361.000000,32981.000000
22192.000000,26396.000000,12258.000000,32912.000000
22133.000000,26346.000000,12164.000000,32835.000000
22074.000000,26299.000000,12076.000000,32745.000000
22011.000000,26258.000000,11990.000000,32646.000000
21949.000000,26219.000000,11901.000000,32553.000000
21887.000000,26178.000000,11804.000000,32470.000000
21823.000000,26137.000000,11702.000000,32389.000000
21758.000000,26101.000000,11598.000000,32309.000000
21694.000000,26060.000000,11495.000000,32222.000000
21627.000000,26005.000000,11389.000000,32123.000000
21557.000000,25945.000000,11276.000000,32016.000000
21485.000000,25887.000000,11157.000000,31905.000000
21409.000000,25827.000000,11035.000000,31792.000000
21325.000000,25764.000000,10910.000000,31683.000000
21236.000000,25698.000000,10783.000000,31588.000000
21147.000000,25633.000000,10657.000000,31514.000000
21066.000000,25572.000000,10545.000000,31452.000000
20996.000000,25519.000000,10453.000000,31393.000000
20944.000000,25476.000000,10384.000000,31346.000000
20918.000000,25454.000000,10351.000000,31327.000000
20928.000000,25459.000000,10369.000000,31342.000000
20983.000000,25501.000000,10451.000000,31411.000000
21090.000000,25588.000000,10611.000000,31545.000000
21262.000000,25725.000000,10862.000000,31750.000000
21505.000000,25913.000000,11212.000000,32039.000000
21818.000000,26153.000000,11657.000000,32430.000000
22198.000000,26446.000000,12192.000000,32923.000000
22643.000000,26791.000000,12823.000000,33496.000000
23143.000000,27179.000000,13549.000000,34139.000000
23679.000000,27594.000000,14347.000000,34847.000000
24241.000000,28029.000000,15190.000000,35605.000000
24823.000000,28481.000000,16061.000000,36403.000000
25414.000000,28935.000000,16942.000000,37215.000000
25991.000000,29379.000000,17810.000000,38013.000000
26541.000000,29805.000000,18648.000000,38791.000000
27058.000000,30207.000000,19442.000000,39550.000000
27535.000000,30576.000000,20177.000000,40269.000000
27968.000000,30911.000000,20841.000000,40912.000000
28356.000000,31212.000000,21432.000000,41465.000000
28691.000000,31471.000000,21946.000000,41941.000000
28965.000000,31681.000000,22378.000000,42353.000000
29181.000000,31845.000000,22726.000000,42702.000000
29349.000000,31970.000000,22996.000000,42985.000000
29472.000000,32056.000000,23203.000000,43201.000000
29549.000000,32109.000000,23353.000000,43351.000000
29583.000000,32137.000000,23442.000000,43437.000000
29586.000000,32143.000000,23472.000000,43466.000000
29566.000000,32129.000000,23459.000000,43450.000000
29524.000000,32095.000000,23412.000000,43397.000000
29460.000000,32045.000000,23334.000000,43315.000000
29377.000000,31985.000000,23230.000000,43224.000000
29289.000000,31922.000000,23113.000000,43134.000000
29206.000000,31858.000000,22994.000000,43035.000000
29127.000000,31796.000000,22874.000000,42923.000000
29054.000000,31738.000000,22758.000000,42812.000000
28988.000000,31680.000000,22653.000000,42716.000000
28927.000000,31627.000000,22562.000000,42637.000000
28875.000000,31582.000000,22482.000000,42567.000000
28833.000000,31547.000000,22420.000000,42501.000000
28800.000000,31518.000000,22375.000000,42438.000000
28767.000000,31490.000000,22336.000000,42384.000000
28734.000000,31467.000000,22295.000000,42350.000000
28708.000000,31452.000000,22260.000000,42338.000000
28691.000000,31444.000000,22241.000000,42329.000000
28675.000000,31436.000000,22230.000000,42308.000000
28648.000000,31424.000000,22206.000000,42274.000000
28611.000000,31403.000000,22163.000000,42234.000000
28568.000000,31372.000000,22105.000000,42183.000000
28523.000000,31333.000000,22040.000000,42112.000000
28472.000000,31283.000000,21962.000000,42025.000000
28410.000000,31224.000000,21868.000000,41931.000000
28339.000000,31159.000000,21760.000000,41832.000000
28261.000000,31094.000000,21642.000000,41724.000000
28177.000000,31033.000000,21515.000000,41614.000000
28087.000000,30970.000000,21378.000000,41505.000000
27994.000000,30901.000000,21236.000000,41392.000000
27902.000000,30831.000000,21092.000000,41278.000000
27811.000000,30766.000000,20949.000000,41165.000000
27724.000000,30706.000000,20819.000000,41047.000000
27645.000000,30649.000000,20706.000000,40923.000000
27570.000000,30590.000000,20602.000000,40805.000000
27492.000000,30528.000000,20501.000000,40702.000000
27421.000000,30469.000000,20410.000000,40612.000000
27361.000000,30415.000000,20333.000000,40530.000000
27302.000000,30364.000000,20259.000000,40448.000000
27245.000000,30320.000000,20186.000000,40364.000000
27197.000000,30283.000000,20122.000000,40285.000000
27160.000000,30250.000000,20063.000000,40216.000000
27123.000000,30224.000000,20006.000000,40153.000000
27084.000000,30205.000000,19950.000000,40095.000000
27043.000000,30186.000000,19896.000000,40053.000000
27005.000000,30159.000000,19846.000000,40025.000000
26966.000000,30128.000000,19799.000000,40003.000000
26930.000000,30102.000000,19754.000000,39979.000000
26897.000000,30082.000000,19711.000000,39948.000000
26863.000000,30060.000000,19666.000000,39904.000000
26823.000000,30034.000000,19616.000000,39852.000000
26778.000000,30003.000000,19560.000000,39801.000000
26731.000000,29968.000000,19498.000000,39743.000000
26680.000000,29929.000000,19428.000000,39664.000000
26618.000000,29884.000000,19339.000000,39569.000000
26547.000000,29835.000000,19234.000000,39478.000000
26472.000000,29781.000000,19127.000000,39401.000000
26396.000000,29725.000000,19022.000000,39330.000000
26316.000000,29669.000000,18911.000000,39252.000000
26233.000000,29611.000000,18794.000000,39156.000000
26143.000000,29546.000000,18670.000000,39042.000000
26050.000000,29472.000000,18540.000000,38912.000000
25958.000000,29398.000000,18404.000000,38760.000000
25864.000000,29326.000000,18262.000000,38594.000000
25763.000000,29248.000000,18113.000000,38436.000000
25656.000000,29163.000000,17956.000000,38294.000000
25547.000000,29073.000000,17792.000000,38157.000000
25433.000000,28978.000000,17622.000000,38010.000000
25313.000000,28878.000000,17447.000000,37854.000000
25182.000000,28775.000000,17260.000000,37698.000000
25046.000000,28673.000000,17065.000000,37541.000000
24914.000000,28575.000000,16876.000000,37385.000000
24789.000000,28476.000000,16693.000000,37215.000000
24662.000000,28378.000000,16511.000000,37017.000000
24535.000000,28286.000000,16330.000000,36803.000000
24409.000000,28197.000000,16153.000000,36603.000000
24283.000000,28109.000000,15980.000000,36428.000000
24159.000000,28020.000000,15812.000000,36261.000000
24040.000000,27935.000000,15651.000000,36090.000000
23927.000000,27855.000000,15496.000000,35922.000000
23818.000000,27779.000000,15344.000000,35761.000000
23713.000000,27704.000000,15192.000000,35609.000000
23615.000000,27630.000000,15042.000000,35472.000000
23524.000000,27558.000000,14904.000000,35351.000000
23437.000000,27487.000000,14776.000000,35238.000000
23347.000000,27417.000000,14645.000000,35126.000000
23255.000000,27350.000000,14510.000000,35020.000000
23170.000000,27288.000000,14382.000000,34915.000000
23094.000000,27228.000000,14265.000000,34802.000000
23019.000000,27172.000000,14156.000000,34683.000000
22943.000000,27120.000000,14050.000000,34571.000000
22869.000000,27071.000000,13948.000000,34466.000000
22798.000000,27020.000000,13854.000000,34372.000000
22727.000000,26968.000000,13762.000000,34288.000000
22657.000000,26918.000000,13669.000000,34209.000000
22587.000000,26870.000000,13577.000000,34140.000000
22516.000000,26821.000000,13482.000000,34082.000000
22451.000000,26776.000000,13390.000000,34023.000000
22391.000000,26739.000000,13308.000000,33957.000000
22340.000000,26705.000000,13241.000000,33892.000000
22291.000000,26668.000000,13175.000000,33834.000000
22237.000000,26627.000000,13099.000000,33777.000000
22182.000000,26588.000000,13017.000000,33716.000000
22136.000000,26552.000000,12937.000000,33640.000000
22093.000000,26516.000000,12858.000000,33546.000000
22044.000000,26476.000000,12774.000000,33448.000000
21988.000000,26432.000000,12688.000000,33359.000000
21931.000000,26388.000000,12601.000000,33269.000000
21873.000000,26345.000000,12512.000000,33161.000000
21814.000000,26300.000000,12421.000000,33039.000000
21754.000000,26250.000000,12327.000000,32918.000000
21691.000000,26194.000000,12234.000000,32798.000000
21620.000000,26135.000000,12137.000000,32679.000000
21544.000000,26081.000000,12036.000000,32570.000000
21469.000000,26031.000000,11938.000000,32477.000000
21395.000000,25985.000000,11846.000000,32393.000000
21318.000000,25936.000000,11749.000000,32317.000000
21235.000000,25881.000000,11639.000000,32246.000000
21152.000000,25823.000000,11525.000000,32176.000000
21073.000000,25764.000000,11411.000000,32104.000000
20992.000000,25702.000000,11294.000000,32022.000000
20910.000000,25640.000000,11175.000000,31930.000000
20828.000000,25578.000000,11060.000000,31829.000000
20740.000000,25513.000000,10944.000000,31723.000000
20649.000000,25448.000000,10825.000000,31614.000000
20559.000000,25385.000000,10703.000000,31505.000000
20474.000000,25322.000000,10585.000000,31393.000000
20391.000000,25259.000000,10472.000000,31278.000000
20310.000000,25197.000000,10358.000000,31166.000000
20230.000000,25140.000000,10244.000000,31060.000000
20157.000000,25091.000000,10139.000000,30959.000000
20093.000000,25048.000000,10042.000000,30863.000000
20034.000000,25007.000000,9946.000000,30770.000000
19973.000000,24962.000000,9849.000000,30682.000000
19911.000000,24917.000000,9758.000000,30602.000000
19850.000000,24873.000000,9672.000000,30526.000000
19792.000000,24832.000000,9585.000000,30449.000000
19735.000000,24797.000000,9499.000000,30370.000000
19681.000000,24760.000000,9416.000000,30285.000000
19626.000000,24717.000000,9331.000000,30192.000000
19564.000000,24669.000000,9237.000000,30094.000000
19494.000000,24616.000000,9131.000000,30006.000000
19425.000000,24560.000000,9024.000000,29931.000000
19360.000000,24507.000000,8924.000000,29859.000000
19295.000000,24458.000000,8828.000000,29777.000000
19226.000000,24410.000000,8729.000000,29688.000000
19152.000000,24359.000000,8624.000000,29591.000000
19075.000000,24305.000000,8514.000000,29485.000000
18998.000000,24252.000000,8401.000000,29369.000000
18920.000000,24201.000000,8290.000000,29242.000000
18843.000000,24145.000000,8182.000000,29110.000000
18757.000000,24081.000000,8065.000000,28980.000000
18659.000000,24014.000000,7937.000000,28852.000000
18561.000000,23948.000000,7805.000000,28721.000000
18470.000000,23883.000000,7673.000000,28588.000000
18382.000000,23821.000000,7542.000000,28453.000000
18295.000000,23760.000000,7415.000000,28324.000000
18211.000000,23698.000000,7291.000000,28207.000000
18129.000000,23631.000000,7173.000000,28101.000000
18045.000000,23565.000000,7057.000000,27990.000000
17960.000000,23504.000000,6948.000000,27872.000000
17877.000000,23450.000000,6851.000000,27772.000000
17799.000000,23402.000000,6764.000000,27699.000000
17738.000000,23369.000000,6689.000000,27637.000000
17705.000000,23360.000000,6641.000000,27597.000000
17711.000000,23382.000000,6646.000000,27604.000000
17766.000000,23435.000000,6717.000000,27661.000000
17875.000000,23519.000000,6860.000000,27773.000000
18043.000000,23641.000000,7087.000000,27971.000000
18276.000000,23807.000000,7411.000000,28267.000000
18572.000000,24023.000000,7838.000000,28655.000000
18930.000000,24289.000000,8362.000000,29125.000000
19345.000000,24602.000000,8976.000000,29680.000000
19808.000000,24951.000000,9668.000000,30324.000000
20310.000000,25327.000000,10423.000000,31042.000000
20843.000000,25724.000000,11222.000000,31801.000000
21392.000000,26136.000000,12044.000000,32583.000000
21945.000000,26550.000000,12871.000000,33382.000000
22486.000000,26954.000000,13682.000000,34178.000000
23000.000000,27338.000000,14455.000000,34935.000000
23483.000000,27701.000000,15176.000000,35622.000000
23930.000000,28036.000000,15839.000000,36238.000000
24332.000000,28335.000000,16435.000000,36789.000000
24677.000000,28592.000000,16953.000000,37266.000000
24963.000000,28807.000000,17392.000000,37677.000000
25195.000000,28983.000000,17764.000000,38029.000000
25380.000000,29123.000000,18071.000000,38305.000000
25521.000000,29230.000000,18305.000000,38505.000000
25612.000000,29300.000000,18462.000000,38651.000000
25652.000000,29334.000000,18549.000000,38749.000000
25648.000000,29334.000000,18572.000000,38798.000000
25610.000000,29309.000000,18541.000000,38799.000000
25549.000000,29268.000000,18472.000000,38758.000000
25468.000000,29210.000000,18368.000000,38674.000000
25365.000000,29132.000000,18234.000000,38554.000000
25250.000000,29041.000000,18079.000000,38396.000000
25129.000000,28942.000000,17914.000000,38220.000000
25006.000000,28840.000000,17745.000000,38059.000000
24882.000000,28742.000000,17576.000000,37905.000000
24763.000000,28653.000000,17413.000000,37746.000000
24650.000000,28572.000000,17259.000000,37603.000000
24547.000000,28495.000000,17117.000000,37480.000000
24455.000000,28425.000000,16988.000000,37364.000000
24378.000000,28367.000000,16872.000000,37252.000000
24313.000000,28320.000000,16771.000000,37152.000000
24255.000000,28278.000000,16684.000000,37053.000000
24202.000000,28240.000000,16602.000000,36954.000000
24152.000000,28208.000000,16523.000000,36864.000000
24109.000000,28178.000000,16451.000000,36782.000000
24073.000000,28143.000000,16386.000000,36698.000000
24034.000000,28104.000000,16318.000000,36613.000000
23985.000000,28065.000000,16239.000000,36538.000000
23925.000000,28020.000000,16151.000000,36480.000000
23856.000000,27966.000000,16057.000000,36428.000000
23778.000000,27908.000000,15950.000000,36359.000000
23693.000000,27849.000000,15829.000000,36259.000000
23606.000000,27788.000000,15699.000000,36132.000000
23515.000000,27718.000000,15567.000000,35986.000000
23424.000000,27646.000000,15431.000000,35831.000000
23335.000000,27580.000000,15295.000000,35679.000000
23245.000000,27518.000000,15169.000000,35548.000000
23154.000000,27459.000000,15053.000000,35440.000000
23067.000000,27404.000000,14945.000000,35352.000000
22990.000000,27353.000000,14843.000000,35277.000000
22926.000000,27309.000000,14754.000000,35209.000000
22872.000000,27271.000000,14677.000000,35148.000000
22822.000000,27237.000000,14613.000000,35095.000000
22777.000000,27207.000000,14564.000000,35052.000000
22738.000000,27181.000000,14531.000000,35029.000000
22710.000000,27159.000000,14505.000000,35027.000000
22696.000000,27146.000000,14486.000000,35042.000000
22696.000000,27141.000000,14480.000000,35063.000000
22705.000000,27144.000000,14491.000000,35083.000000
22714.000000,27153.000000,14508.000000,35102.000000
22723.000000,27166.000000,14523.000000,35121.000000
22739.000000,27180.000000,14540.000000,35145.000000
22755.000000,27189.000000,14561.000000,35170.000000
22766.000000,27195.000000,14579.000000,35176.000000
22771.000000,27198.000000,14589.000000,35164.000000
22769.000000,27194.000000,14587.000000,35151.000000
22760.000000,27181.000000,14571.000000,35136.000000
22745.000000,27165.000000,14542.000000,35106.000000
22719.000000,27145.000000,14494.000000,35070.000000
22682.000000,27122.000000,14432.000000,35025.000000
22635.000000,27092.000000,14361.000000,34962.000000
22578.000000,27054.000000,14277.000000,34880.000000
22514.000000,27010.000000,14177.000000,34779.000000
22447.000000,26963.000000,14070.000000,34665.000000
22379.000000,26912.000000,13960.000000,34544.000000
22301.000000,26851.000000,13841.000000,34415.000000
22213.000000,26781.000000,13712.000000,34278.000000
22119.000000,26708.000000,13583.000000,34143.000000
22022.000000,26632.000000,13456.000000,34018.000000
21923.000000,26556.000000,13322.000000,33896.000000
21825.000000,26483.000000,13179.000000,33762.000000
21730.000000,26407.000000,13034.000000,33614.000000
21628.000000,26325.000000,12887.000000,33464.000000
21519.000000,26244.000000,12732.000000,33318.000000
21413.000000,26164.000000,12573.000000,33179.000000
21311.000000,26084.000000,12418.000000,33043.000000
21207.000000,26004.000000,12267.000000,32910.000000
21099.000000,25928.000000,12118.000000,32785.000000
20993.000000,25854.000000,11973.000000,32660.000000
20891.000000,25780.000000,11832.000000,32525.000000
20794.000000,25705.000000,11692.000000,32378.000000
20700.000000,25631.000000,11549.000000,32223.000000
20607.000000,25565.000000,11408.000000,32067.000000
20514.000000,25507.000000,11271.000000,31916.000000
20418.000000,25449.000000,11136.000000,31780.000000
20321.000000,25389.000000,10996.000000,31656.000000
20234.000000,25330.000000,10855.000000,31533.000000
20156.000000,25272.000000,10723.000000,31414.000000
20080.000000,25214.000000,10602.000000,31304.000000
20000.000000,25157.000000,10487.000000,31205.000000
19923.000000,25100.000000,10381.000000,31123.000000
19852.000000,25043.000000,10287.000000,31054.000000
19784.000000,24991.000000,10201.000000,30990.000000
19721.000000,24948.000000,10117.000000,30926.000000
19666.000000,24913.000000,10038.000000,30865.000000
19622.000000,24881.000000,9970.000000,30809.000000
19578.000000,24848.000000,9907.000000,30754.000000
19533.000000,24816.000000,9851.000000,30699.000000
19497.000000,24789.000000,9805.000000,30645.000000
19469.000000,24764.000000,9766.000000,30598.000000
19438.000000,24734.000000,9724.000000,30549.000000
19403.000000,24704.000000,9680.000000,30495.000000
19369.000000,24676.000000,9635.000000,30450.000000
19332.000000,24646.000000,9587.000000,30411.000000
19295.000000,24616.000000,9532.000000,30363.000000
19261.000000,24591.000000,9471.000000,30304.000000
19231.000000,24568.000000,9405.000000,30236.000000
19201.000000,24544.000000,9337.000000,30155.000000
19169.000000,24516.000000,9268.000000,30070.000000
19132.000000,24490.000000,9203.000000,30001.000000
19092.000000,24461.000000,9144.000000,29954.000000
19053.000000,24429.000000,9088.000000,29917.000000
19012.000000,24395.000000,9027.000000,29879.000000
18967.000000,24359.000000,8962.000000,29834.000000
18917.000000,24318.000000,8891.000000,29788.000000
18863.000000,24271.000000,8815.000000,29742.000000
18802.000000,24224.000000,8733.000000,29692.000000
18734.000000,24179.000000,8651.000000,29634.000000
18662.000000,24133.000000,8570.000000,29570.000000
18592.000000,24087.000000,8486.000000,29503.000000
18527.000000,24046.000000,8401.000000,29437.000000
18472.000000,24011.000000,8320.000000,29371.000000
18426.000000,23979.000000,8239.000000,29288.000000
18384.000000,23947.000000,8156.000000,29183.000000
18336.000000,23914.000000,8071.000000,29080.000000
18287.000000,23880.000000,7990.000000,29004.000000
18244.000000,23845.000000,7915.000000,28937.000000
18203.000000,23811.000000,7842.000000,28853.000000
18159.000000,23779.000000,7766.000000,28755.000000
18115.000000,23748.000000,7690.000000,28665.000000
18072.000000,23717.000000,7613.000000,28584.000000
18030.000000,23686.000000,7536.000000,28499.000000
17986.000000,23660.000000,7458.000000,28407.000000
17940.000000,23632.000000,7387.000000,28314.000000
17893.000000,23600.000000,7322.000000,28238.000000
17841.000000,23561.000000,7251.000000,28176.000000
17781.000000,23519.000000,7169.000000,28117.000000
17720.000000,23476.000000,7086.000000,28053.000000
17658.000000,23433.000000,6998.000000,27987.000000
17589.000000,23384.000000,6904.000000,27923.000000
17519.000000,23331.000000,6807.000000,27849.000000
17457.000000,23284.000000,6713.000000,27772.000000
17399.000000,23245.000000,6626.000000,27713.000000
17340.000000,23208.000000,6537.000000,27652.000000
17276.000000,23169.000000,6444.000000,27570.000000
17214.000000,23126.000000,6351.000000,27480.000000
17157.000000,23077.000000,6260.000000,27397.000000
17103.000000,23030.000000,6167.000000,27318.000000
17052.000000,22988.000000,6075.000000,27227.000000
17001.000000,22946.000000,5984.000000,27127.000000
16946.000000,22898.000000,5893.000000,27034.000000
16889.000000,22848.000000,5794.000000,26941.000000
16833.000000,22799.000000,5691.000000,26845.000000
16780.000000,22756.000000,5594.000000,26757.000000
16723.000000,22712.000000,5499.000000,26674.000000
16657.000000,22663.000000,5399.000000,26581.000000
16586.000000,22613.000000,5295.000000,26476.000000
16523.000000,22567.000000,5198.000000,26379.000000
16475.000000,22528.000000,5124.000000,26312.000000
16447.000000,22506.000000,5082.000000,26278.000000
16445.000000,22510.000000,5079.000000,26283.000000
16486.000000,22549.000000,5137.000000,26344.000000
16582.000000,22622.000000,5269.000000,26467.000000
16735.000000,22735.000000,5480.000000,26665.000000
16955.000000,22894.000000,5787.000000,26961.000000
17249.000000,23103.000000,6200.000000,27353.000000
17612.000000,23361.000000,6714.000000,27831.000000
18035.000000,23665.000000,7324.000000,28394.000000
18512.000000,24010.000000,8023.000000,29054.000000
19035.000000,24392.000000,8800.000000,29799.000000
19599.000000,24805.000000,9638.000000,30604.000000
20191.000000,25244.000000,10512.000000,31444.000000
20796.000000,25697.000000,11402.000000,32293.000000
21397.000000,26144.000000,12284.000000,33125.000000
21978.000000,26574.000000,13139.000000,33930.000000
22526.000000,26983.000000,13950.000000,34707.000000
23036.000000,27365.000000,14708.000000,35434.000000
23503.000000,27713.000000,15410.000000,36095.000000
23915.000000,28023.000000,16038.000000,36692.000000
24271.000000,28290.000000,16581.000000,37225.000000
24579.000000,28516.000000,17043.000000,37679.000000
24836.000000,28702.000000,17430.000000,38048.000000
25040.000000,28849.000000,17739.000000,38342.000000
25195.000000,28962.000000,17975.000000,38562.000000
25310.000000,29046.000000,18146.000000,38723.000000
25388.000000,29099.000000,18258.000000,38843.000000
25428.000000,29122.000000,18322.000000,38918.000000
25436.000000,29124.000000,18347.000000,38956.000000
25421.000000,29107.000000,18339.000000,38972.000000
25384.000000,29069.000000,18300.000000,38952.000000
25330.000000,29018.000000,18233.000000,38894.000000
25268.000000,28963.000000,18144.000000,38815.000000
25200.000000,28907.000000,18043.000000,38730.000000
25126.000000,28848.000000,17934.000000,38637.000000
25044.000000,28785.000000,17811.000000,38529.000000
24960.000000,28720.000000,17677.000000,38408.000000
24881.000000,28655.000000,17544.000000,38286.000000
24802.000000,28590.000000,17418.000000,38169.000000
24715.000000,28524.000000,17295.000000,38046.000000
24625.000000,28461.000000,17179.000000,37919.000000
24539.000000,28399.000000,17073.000000,37807.000000
24458.000000,28335.000000,16972.000000,37707.000000
24381.000000,28271.000000,16869.000000,37599.000000
24306.000000,28210.000000,16762.000000,37478.000000
24228.000000,28151.000000,16652.000000,37355.000000
24144.000000,28086.000000,16537.000000,37236.000000
24054.000000,28021.000000,16412.000000,37130.000000
23965.000000,27963.000000,16285.000000,37032.000000
23882.000000,27908.000000,16161.000000,36934.000000
23794.000000,27849.000000,16037.000000,36831.000000
23701.000000,27788.000000,15909.000000,36723.000000
23615.000000,27729.000000,15782.000000,36608.000000
23537.000000,27672.000000,15661.000000,36487.000000
23460.000000,27616.000000,15547.000000,36357.000000
23385.000000,27561.000000,15442.000000,36232.000000
23320.000000,27509.000000,15349.000000,36133.000000
23268.000000,27464.000000,15269.000000,36063.000000
23226.000000,27425.000000,15202.000000,36012.000000
23190.000000,27395.000000,15148.000000,35975.000000
23162.000000,27373.000000,15106.000000,35952.000000
23143.000000,27354.000000,15073.000000,35927.000000
23129.000000,27337.000000,15043.000000,35895.000000
23113.000000,27323.000000,15015.000000,35867.000000
23099.000000,27311.000000,14998.000000,35845.000000
23094.000000,27302.000000,14995.000000,35826.000000
23095.000000,27298.000000,15003.000000,35825.000000
23103.000000,27303.000000,15020.000000,35854.000000
23120.000000,27321.000000,15049.000000,35908.000000
23147.000000,27347.000000,15087.000000,35967.000000
23175.000000,27375.000000,15124.000000,36020.000000
23200.000000,27405.000000,15159.000000,36070.000000
23225.000000,27434.000000,15199.000000,36119.000000
23249.000000,27455.000000,15235.000000,36160.000000
23270.000000,27471.000000,15261.000000,36187.000000
23287.000000,27485.000000,15278.000000,36207.000000
23297.000000,27489.000000,15286.000000,36223.000000
23295.000000,27481.000000,15279.000000,36225.000000
23283.000000,27464.000000,15256.000000,36204.000000
23262.000000,27444.000000,15219.000000,36164.000000
23232.000000,27419.000000,15167.000000,36103.000000
23189.000000,27383.000000,15101.000000,36022.000000
23132.000000,27339.000000,15019.000000,35928.000000
23058.000000,27286.000000,14922.000000,35830.000000
22974.000000,27224.000000,14818.000000,35731.000000
22885.000000,27156.000000,14705.000000,35626.000000
22791.000000,27083.000000,14577.000000,35517.000000
22696.000000,27008.000000,14437.000000,35404.000000
22600.000000,26932.000000,14293.000000,35295.000000
22499.000000,26853.000000,14147.000000,35188.000000
22397.000000,26776.000000,13998.000000,35062.000000
22302.000000,26706.000000,13858.000000,34915.000000
22214.000000,26640.000000,13726.000000,34763.000000
22129.000000,26572.000000,13588.000000,34619.000000
22044.000000,26503.000000,13440.000000,34487.000000
21958.000000,26435.000000,13297.000000,34375.000000
21869.000000,26371.000000,13164.000000,34272.000000
21780.000000,26307.000000,13033.000000,34158.000000
21692.000000,26242.000000,12900.000000,34041.000000
21607.000000,26177.000000,12767.000000,33929.000000
21524.000000,26111.000000,12637.000000,33822.000000
21439.000000,26045.000000,12510.000000,33716.000000
21353.000000,25980.000000,12384.000000,33604.000000
21272.000000,25918.000000,12261.000000,33475.000000
21193.000000,25854.000000,12141.000000,33336.000000
21110.000000,25789.000000,12019.000000,33206.000000
21024.000000,25721.000000,11890.000000,33085.000000
20943.000000,25656.000000,11766.000000,32966.000000
20869.000000,25596.000000,11648.000000,32850.000000
20791.000000,25534.000000,11529.000000,32743.000000
20707.000000,25474.000000,11408.000000,32643.000000
20631.000000,25422.000000,11298.000000,32542.000000
20567.000000,25378.000000,11199.000000,32446.000000
20508.000000,25339.000000,11104.000000,32368.000000
20450.000000,25303.000000,11016.000000,32309.000000
20391.000000,25265.000000,10939.000000,32258.000000
20332.000000,25222.000000,10865.000000,32196.000000
20278.000000,25181.000000,10789.000000,32109.000000
20235.000000,25146.000000,10712.000000,32014.000000
20198.000000,25112.000000,10642.000000,31927.000000
20157.000000,25075.000000,10577.000000,31850.000000
20109.000000,25037.000000,10510.000000,31783.000000
20061.000000,25001.000000,10441.000000,31732.000000
20018.000000,24966.000000,10376.000000,31698.000000
19982.000000,24934.000000,10312.000000,31668.000000
19950.000000,24907.000000,10246.000000,31623.000000
19920.000000,24887.000000,10183.000000,31568.000000
19886.000000,24863.000000,10121.000000,31510.000000
19840.000000,24829.000000,10055.000000,31446.000000
19788.000000,24790.000000,9981.000000,31374.000000
19736.000000,24754.000000,9909.000000,31307.000000
19687.000000,24722.000000,9847.000000,31245.000000
19639.000000,24690.000000,9787.000000,31167.000000
19589.000000,24654.000000,9717.000000,31070.000000
19541.000000,24614.000000,9641.000000,30968.000000
19496.000000,24574.000000,9565.000000,30863.000000
19451.000000,24535.000000,9487.000000,30753.000000
19398.000000,24495.000000,9403.000000,30639.000000
19336.000000,24452.000000,9314.000000,30540.000000
19270.000000,24406.000000,9226.000000,30467.000000
19201.000000,24359.000000,9141.000000,30416.000000
19130.000000,24313.000000,9055.000000,30370.000000
19061.000000,24267.000000,8969.000000,30321.000000
18993.000000,24218.000000,8881.000000,30267.000000
18923.000000,24166.000000,8785.000000,30204.000000
18853.000000,24115.000000,8683.000000,30125.000000
18790.000000,24070.000000,8584.000000,30036.000000
18731.000000,24027.000000,8494.000000,29947.000000
18666.000000,23980.000000,8405.000000,29859.000000
18593.000000,23931.000000,8311.000000,29766.000000
18524.000000,23881.000000,8213.000000,29672.000000
18459.000000,23830.000000,8111.000000,29578.000000
18392.000000,23779.000000,8004.000000,29481.000000
18326.000000,23733.000000,7896.000000,29382.000000
18264.000000,23692.000000,7792.000000,29288.000000
18204.000000,23650.000000,7693.000000,29196.000000
18138.000000,23606.000000,7593.000000,29092.000000
18069.000000,23562.000000,7489.000000,28976.000000
18002.000000,23516.000000,7383.000000,28861.000000
17935.000000,23467.000000,7278.000000,28750.000000
17862.000000,23417.000000,7173.000000,28639.000000
17788.000000,23368.000000,7069.000000,28523.000000
17715.000000,23319.000000,6968.000000,28408.000000
17643.000000,23267.000000,6868.000000,28291.000000
17570.000000,23214.000000,6764.000000,28173.000000
17498.000000,23164.000000,6661.000000,28074.000000
17428.000000,23115.000000,6565.000000,28003.000000
17360.000000,23064.000000,6470.000000,27942.000000
17294.000000,23014.000000,6374.000000,27862.000000
17234.000000,22969.000000,6282.000000,27766.000000
17179.000000,22927.000000,6193.000000,27681.000000
17126.000000,22884.000000,6103.000000,27607.000000
17074.000000,22842.000000,6010.000000,27526.000000
17019.000000,22798.000000,5916.000000,27445.000000
16958.000000,22749.000000,5823.000000,27377.000000
16891.000000,22698.000000,5729.000000,27314.000000
16823.000000,22649.000000,5631.000000,27229.000000
16758.000000,22603.000000,5529.000000,27115.000000
16691.000000,22553.000000,5424.000000,26991.000000
16617.000000,22495.000000,5311.000000,26873.000000
16535.000000,22433.000000,5189.000000,26758.000000
16453.000000,22375.000000,5067.000000,26645.000000
16373.000000,22319.000000,4948.000000,26534.000000
16294.000000,22262.000000,4835.000000,26414.000000
16221.000000,22211.000000,4732.000000,26287.000000
16168.000000,22174.000000,4652.000000,26190.000000
16142.000000,22157.000000,4613.000000,26156.000000
16150.000000,22169.000000,4630.000000,26191.000000
16205.000000,22219.000000,4718.000000,26284.000000
16320.000000,22310.000000,4890.000000,26450.000000
16504.000000,22447.000000,5158.000000,26714.000000
16760.000000,22635.000000,5529.000000,27084.000000
17091.000000,22877.000000,6009.000000,27557.000000
17490.000000,23168.000000,6595.000000,28127.000000
17949.000000,23499.000000,7274.000000,28782.000000
18460.000000,23868.000000,8031.000000,29509.000000
19017.000000,24274.000000,8849.000000,30293.000000
19606.000000,24708.000000,9712.000000,31106.000000
20209.000000,25152.000000,10601.000000,31920.000000
20802.000000,25592.000000,11487.000000,32715.000000
21373.000000,26021.000000,12350.000000,33496.000000
21915.000000,26433.000000,13180.000000,34258.000000
22422.000000,26816.000000,13959.000000,34975.000000
22886.000000,27162.000000,14672.000000,35630.000000
23301.000000,27471.000000,15313.000000,36233.000000
23663.000000,27742.000000,15881.000000,36781.000000
23969.000000,27969.000000,16369.000000,37255.000000
24222.000000,28155.000000,16771.000000,37641.000000
24419.000000,28303.000000,17092.000000,37951.000000
24560.000000,28416.000000,17343.000000,38203.000000
24658.000000,28495.000000,17529.000000,38398.000000
24720.000000,28545.000000,17646.000000,38528.000000
24747.000000,28569.000000,17698.000000,38591.000000
24742.000000,28568.000000,17705.000000,38596.000000
24708.000000,28542.000000,17677.000000,38555.000000
24648.000000,28498.000000,17608.000000,38486.000000
24567.000000,28440.000000,17504.000000,38413.000000
24474.000000,28370.000000,17381.000000,38340.000000
24373.000000,28290.000000,17249.000000,38244.000000
24266.000000,28208.000000,17105.000000,38114.000000
24159.000000,28128.000000,16957.000000,37966.000000
24059.000000,28047.000000,16818.000000,37813.000000
23969.000000,27970.000000,16684.000000,37657.000000
23884.000000,27899.000000,16553.000000,37513.000000
23812.000000,27840.000000,16433.000000,37382.000000
23755.000000,27787.000000,16331.000000,37253.000000
23702.000000,27735.000000,16242.000000,37143.000000
23652.000000,27691.000000,16168.000000,37062.000000
23611.000000,27661.000000,16110.000000,37007.000000
23575.000000,27636.000000,16062.000000,36970.000000
23540.000000,27613.000000,16018.000000,36932.000000
23505.000000,27591.000000,15972.000000,36880.000000
23466.000000,27568.000000,15922.000000,36832.000000
23421.000000,27538.000000,15865.000000,36799.000000
23364.000000,27502.000000,15798.000000,36760.000000
23295.000000,27460.000000,15722.000000,36701.000000
23221.000000,27410.000000,15635.000000,36621.000000
23145.000000,27352.000000,15543.000000,36530.000000
23063.000000,27288.000000,15436.000000,36426.000000
22974.000000,27223.000000,15309.000000,36301.000000
22887.000000,27154.000000,15175.000000,36169.000000
22800.000000,27083.000000,15042.000000,36045.000000
22709.000000,27014.000000,14908.000000,35929.000000
22613.000000,26949.000000,14771.000000,35815.000000
22517.000000,26884.000000,14636.000000,35705.000000
22424.000000,26815.000000,14505.000000,35606.000000
22342.000000,26752.000000,14385.000000,35513.000000
22274.000000,26701.000000,14278.000000,35419.000000
22220.000000,26656.000000,14189.000000,35333.000000
22177.000000,26617.000000,14114.000000,35257.000000
22144.000000,26588.000000,14053.000000,35187.000000
22120.000000,26571.000000,14009.000000,35130.000000
22101.000000,26562.000000,13983.000000,35085.000000
22086.000000,26556.000000,13967.000000,35057.000000
22071.000000,26551.000000,13955.000000,35050.000000
22060.000000,26546.000000,13947.000000,35056.000000
22055.000000,26543.000000,13947.000000,35064.000000
22050.000000,26540.000000,13947.000000,35065.000000
22040.000000,26540.000000,13940.000000,35059.000000
22031.000000,26543.000000,13926.000000,35050.000000
22028.000000,26544.000000,13913.000000,35034.000000
22024.000000,26543.000000,13900.000000,35002.000000
22009.000000,26538.000000,13880.000000,34963.000000
21980.000000,26526.000000,13846.000000,34930.000000
21941.000000,26504.000000,13805.000000,34898.000000
21894.000000,26473.000000,13757.000000,34854.000000
21839.000000,26439.000000,13694.000000,34802.000000
21776.000000,26402.000000,13624.000000,34745.000000
21708.000000,26356.000000,13549.000000,34679.000000
21631.000000,26300.000000,13459.000000,34610.000000
21549.000000,26243.000000,13352.000000,34539.000000
21471.000000,26186.000000,13239.000000,34455.000000
21395.000000,26126.000000,13125.000000,34356.000000
21315.000000,26060.000000,13004.000000,34246.000000
21228.000000,25987.000000,12874.000000,34133.000000
21139.000000,25909.000000,12740.000000,34029.000000
21051.000000,25831.000000,12602.000000,33927.000000
20960.000000,25760.000000,12461.000000,33816.000000
20873.000000,25696.000000,12317.000000,33696.000000
20791.000000,25635.000000,12177.000000,33569.000000
20709.000000,25574.000000,12042.000000,33432.000000
20624.000000,25514.000000,11902.000000,33281.000000
20539.000000,25457.000000,11756.000000,33113.000000
20454.000000,25398.000000,11613.000000,32936.000000
20368.000000,25334.000000,11475.000000,32759.000000
20274.000000,25264.000000,11332.000000,32587.000000
20167.000000,25187.000000,11181.000000,32433.000000
20050.000000,25103.000000,11026.000000,32299.000000
19932.000000,25016.000000,10873.000000,32175.000000
19816.000000,24933.000000,10718.000000,32038.000000
19704.000000,24856.000000,10562.000000,31888.000000
19596.000000,24780.000000,10408.000000,31745.000000
19491.000000,24704.000000,10255.000000,31613.000000
19388.000000,24632.000000,10100.000000,31486.000000
19287.000000,24559.000000,9949.000000,31359.000000
19188.000000,24482.000000,9806.000000,31234.000000
19087.000000,24399.000000,9669.000000,31116.000000
18985.000000,24318.000000,9538.000000,31005.000000
18886.000000,24245.000000,9415.000000,30890.000000
18792.000000,24179.000000,9302.000000,30769.000000
18706.000000,24119.000000,9196.000000,30649.000000
18629.000000,24063.000000,9091.000000,30535.000000
18561.000000,24014.000000,8992.000000,30431.000000
18503.000000,23973.000000,8904.000000,30342.000000
18450.000000,23939.000000,8820.000000,30258.000000
18398.000000,23904.000000,8732.000000,30170.000000
18349.000000,23870.000000,8645.000000,30086.000000
18303.000000,23833.000000,8564.000000,30008.000000
18258.000000,23798.000000,8487.000000,29924.000000
18209.000000,23767.000000,8412.000000,29846.000000
18155.000000,23733.000000,8339.000000,29790.000000
18095.000000,23692.000000,8265.000000,29749.000000
18036.000000,23650.000000,8191.000000,29703.000000
17977.000000,23611.000000,8116.000000,29646.000000
17917.000000,23570.000000,8039.000000,29586.000000
17857.000000,23529.000000,7961.000000,29520.000000
17800.000000,23488.000000,7881.000000,29448.000000
17747.000000,23448.000000,7797.000000,29376.000000
17700.000000,23407.000000,7716.000000,29302.000000
17655.000000,23366.000000,7638.000000,29220.000000
17609.000000,23324.000000,7553.000000,29135.000000
17560.000000,23283.000000,7464.000000,29049.000000
17512.000000,23244.000000,7379.000000,28966.000000
17464.000000,23207.000000,7301.000000,28887.000000
17411.000000,23172.000000,7225.000000,28807.000000
17354.000000,23137.000000,7146.000000,28722.000000
17302.000000,23102.000000,7069.000000,28645.000000
17252.000000,23064.000000,6995.000000,28583.000000
17200.000000,23027.000000,6920.000000,28522.000000
17152.000000,22994.000000,6840.000000,28454.000000
17109.000000,22961.000000,6760.000000,28385.000000
17064.000000,22923.000000,6680.000000,28315.000000
17013.000000,22882.000000,6595.000000,28236.000000
16962.000000,22840.000000,6507.000000,28152.000000
16914.000000,22801.000000,6425.000000,28069.000000
16862.000000,22760.000000,6346.000000,27989.000000
16800.000000,22712.000000,6263.000000,27904.000000
16732.000000,22662.000000,6171.000000,27803.000000
16662.000000,22609.000000,6072.000000,27697.000000
16586.000000,22552.000000,5973.000000,27602.000000
16505.000000,22497.000000,5871.000000,27505.000000
16426.000000,22447.000000,5764.000000,27395.000000
16351.000000,22397.000000,5654.000000,27277.000000
16279.000000,22343.000000,5536.000000,27164.000000
16210.000000,22290.000000,5412.000000,27056.000000
16145.000000,22242.000000,5292.000000,26948.000000
16078.000000,22197.000000,5178.000000,26843.000000
16003.000000,22149.000000,5065.000000,26735.000000
15923.000000,22097.000000,4949.000000,26617.000000
15844.000000,22044.000000,4836.000000,26507.000000
15769.000000,21988.000000,4732.000000,26419.000000
15690.000000,21931.000000,4632.000000,26335.000000
15615.000000,21879.000000,4534.000000,26233.000000
15550.000000,21834.000000,4438.000000,26131.000000
15493.000000,21790.000000,4349.000000,26043.000000
15438.000000,21749.000000,4266.000000,25959.000000
15384.000000,21713.000000,4183.000000,25873.000000
15332.000000,21678.000000,4103.000000,25790.000000
15282.000000,21642.000000,4026.000000,25717.000000
15230.000000,21605.000000,3941.000000,25643.000000
15171.000000,21564.000000,3847.000000,25565.000000
15113.000000,21526.000000,3754.000000,25490.000000
15057.000000,21493.000000,3671.000000,25420.000000
14996.000000,21459.000000,3590.000000,25357.000000
14933.000000,21423.000000,3505.000000,25287.000000
14873.000000,21385.000000,3420.000000,25210.000000
14817.000000,21342.000000,3332.000000,25126.000000
14758.000000,21294.000000,3237.000000,25030.000000
14696.000000,21249.000000,3142.000000,24932.000000
14628.000000,21205.000000,3051.000000,24840.000000
14552.000000,21159.000000,2955.000000,24743.000000
14469.000000,21109.000000,2848.000000,24632.000000
14383.000000,21055.000000,2728.000000,24509.000000
14297.000000,20998.000000,2602.000000,24388.000000
14214.000000,20941.000000,2478.000000,24269.000000
14133.000000,20885.000000,2359.000000,24147.000000
14055.000000,20833.000000,2251.000000,24037.000000
13983.000000,20787.000000,2161.000000,23958.000000
13932.000000,20752.000000,2101.000000,23907.000000
13922.000000,20743.000000,2087.000000,23887.000000
13965.000000,20770.000000,2138.000000,23908.000000
14060.000000,20833.000000,2269.000000,24002.000000
14212.000000,20936.000000,2491.000000,24206.000000
14432.000000,21089.000000,2810.000000,24514.000000
14729.000000,21300.000000,3235.000000,24921.000000
15102.000000,21566.000000,3772.000000,25429.000000
15538.000000,21878.000000,4409.000000,26029.000000
16025.000000,22230.000000,5128.000000,26707.000000
16561.000000,22616.000000,5915.000000,27457.000000
17136.000000,23029.000000,6759.000000,28265.000000
17735.000000,23460.000000,7644.000000,29104.000000
18340.000000,23898.000000,8544.000000,29956.000000
18934.000000,24329.000000,9434.000000,30804.000000
19507.000000,24744.000000,10289.000000,31620.000000
20050.000000,25138.000000,11095.000000,32375.000000
20552.000000,25505.000000,11840.000000,33072.000000
21000.000000,25835.000000,12521.000000,33727.000000
21393.000000,26124.000000,13131.000000,34326.000000
21734.000000,26377.000000,13663.000000,34859.000000
22028.000000,26596.000000,14115.000000,35324.000000
22275.000000,26780.000000,14492.000000,35703.000000
22470.000000,26926.000000,14796.000000,35995.000000
22612.000000,27030.000000,15021.000000,36211.000000
22707.000000,27098.000000,15174.000000,36361.000000
22767.000000,27139.000000,15273.000000,36458.000000
22795.000000,27160.000000,15328.000000,36518.000000
22789.000000,27158.000000,15337.000000,36537.000000
22752.000000,27134.000000,15309.000000,36513.000000
22693.000000,27095.000000,15254.000000,36467.000000
22620.000000,27042.000000,15173.000000,36401.000000
22535.000000,26981.000000,15062.000000,36301.000000
22443.000000,26918.000000,14932.000000,36174.000000
22347.000000,26850.000000,14797.000000,36041.000000
22248.000000,26773.000000,14661.000000,35903.000000
22149.000000,26696.000000,14520.000000,35765.000000
22055.000000,26621.000000,14379.000000,35640.000000
21970.000000,26553.000000,14246.000000,35522.000000
21894.000000,26493.000000,14125.000000,35397.000000
21824.000000,26438.000000,14014.000000,35282.000000
21762.000000,26391.000000,13919.000000,35201.000000
21710.000000,26353.000000,13841.000000,35146.000000
21670.000000,26325.000000,13780.000000,35102.000000
21637.000000,26303.000000,13729.000000,35060.000000
21606.000000,26283.000000,13687.000000,35010.000000
21576.000000,26257.000000,13653.000000,34958.000000
21545.000000,26226.000000,13616.000000,34906.000000
21514.000000,26197.000000,13571.000000,34852.000000
21483.000000,26168.000000,13521.000000,34795.000000
21445.000000,26134.000000,13467.000000,34741.000000
21393.000000,26093.000000,13401.000000,34695.000000
21331.000000,26048.000000,13320.000000,34647.000000
21269.000000,26003.000000,13234.000000,34582.000000
21212.000000,25960.000000,13150.000000,34493.000000
21156.000000,25918.000000,13062.000000,34382.000000
21093.000000,25873.000000,12963.000000,34265.000000
21025.000000,25821.000000,12859.000000,34165.000000
20958.000000,25766.000000,12757.000000,34078.000000
20897.000000,25717.000000,12664.000000,33987.000000
20846.000000,25680.000000,12579.000000,33896.000000
20801.000000,25651.000000,12503.000000,33817.000000
20760.000000,25622.000000,12438.000000,33754.000000
20720.000000,25593.000000,12378.000000,33708.000000
20683.000000,25568.000000,12319.000000,33674.000000
20652.000000,25548.000000,12268.000000,33641.000000
20627.000000,25528.000000,12227.000000,33612.000000
20601.000000,25506.000000,12193.000000,33591.000000
20574.000000,25486.000000,12164.000000,33579.000000
20553.000000,25473.000000,12146.000000,33570.000000
20542.000000,25466.000000,12136.000000,33561.000000
20537.000000,25463.000000,12127.000000,33546.000000
20534.000000,25464.000000,12117.000000,33526.000000
20530.000000,25465.000000,12105.000000,33500.000000
20520.000000,25462.000000,12083.000000,33470.000000
20503.000000,25452.000000,12051.000000,33447.000000
20485.000000,25438.000000,12017.000000,33438.000000
20464.000000,25423.000000,11989.000000,33437.000000
20438.000000,25407.000000,11963.000000,33422.000000
20407.000000,25388.000000,11932.000000,33385.000000
20376.000000,25368.000000,11891.000000,33329.000000
20344.000000,25340.000000,11843.000000,33263.000000
20306.000000,25306.000000,11785.000000,33187.000000
20260.000000,25269.000000,11713.000000,33105.000000
20206.000000,25232.000000,11630.000000,33029.000000
20148.000000,25191.000000,11543.000000,32961.000000
20086.000000,25145.000000,11451.000000,32883.000000
20022.000000,25095.000000,11346.000000,32780.000000
19955.000000,25042.000000,11229.000000,32652.000000
19886.000000,24982.000000,11110.000000,32515.000000
19811.000000,24917.000000,10989.000000,32371.000000
19727.000000,24849.000000,10858.000000,32230.000000
19640.000000,24782.000000,10717.000000,32108.000000
19553.000000,24712.000000,10572.000000,32002.000000
19464.000000,24645.000000,10424.000000,31897.000000
19369.000000,24581.000000,10271.000000,31780.000000
19271.000000,24513.000000,10111.000000,31650.000000
19171.000000,24439.000000,9947.000000,31505.000000
19068.000000,24362.000000,9784.000000,31352.000000
18959.000000,24284.000000,9622.000000,31201.000000
18851.000000,24206.000000,9467.000000,31048.000000
18747.000000,24129.000000,9320.000000,30891.000000
18640.000000,24053.000000,9174.000000,30736.000000
18527.000000,23978.000000,9025.000000,30583.000000
18416.000000,23907.000000,8882.000000,30430.000000
18318.000000,23839.000000,8745.000000,30279.000000
18226.000000,23773.000000,8611.000000,30134.000000
18142.000000,23714.000000,8487.000000,30000.000000
18067.000000,23661.000000,8375.000000,29884.000000
17995.000000,23607.000000,8269.000000,29786.000000
17927.000000,23553.000000,8164.000000,29690.000000
17865.000000,23506.000000,8059.000000,29592.000000
17804.000000,23457.000000,7957.000000,29496.000000
17739.000000,23406.000000,7857.000000,29404.000000
17668.000000,23356.000000,7759.000000,29317.000000
17597.000000,23310.000000,7664.000000,29235.000000
17530.000000,23264.000000,7574.000000,29166.000000
17465.000000,23218.000000,7490.000000,29104.000000
17401.000000,23173.000000,7409.000000,29034.000000
17336.000000,23126.000000,7326.000000,28957.000000
17272.000000,23075.000000,7243.000000,28878.000000
17209.000000,23022.000000,7157.000000,28806.000000
17147.000000,22972.000000,7068.000000,28733.000000
17089.000000,22931.000000,6978.000000,28647.000000
17032.000000,22896.000000,6888.000000,28554.000000
16971.000000,22860.000000,6796.000000,28462.000000
16909.000000,22825.000000,6703.000000,28383.000000
16852.000000,22793.000000,6612.000000,28322.000000
16799.000000,22761.000000,6525.000000,28267.000000
16748.000000,22726.000000,6445.000000,28209.000000
16695.000000,22693.000000,6367.000000,28142.000000
16641.000000,22659.000000,6290.000000,28079.000000
16588.000000,22621.000000,6215.000000,28023.000000
16538.000000,22581.000000,6142.000000,27967.000000
16489.000000,22543.000000,6067.000000,27892.000000
16442.000000,22502.000000,5990.000000,27787.000000
16395.000000,22459.000000,5908.000000,27676.000000
16345.000000,22416.000000,5824.000000,27582.000000
16293.000000,22376.000000,5737.000000,27497.000000
16244.000000,22342.000000,5648.000000,27403.000000
16198.000000,22311.000000,5559.000000,27299.000000
16152.000000,22276.000000,5466.000000,27188.000000
16100.000000,22240.000000,5369.000000,27084.000000
16042.000000,22204.000000,5273.000000,27003.000000
15979.000000,22164.000000,5182.000000,26934.000000
15916.000000,22122.000000,5090.000000,26845.000000
15852.000000,22077.000000,4994.000000,26733.000000
15778.000000,22025.000000,4894.000000,26622.000000
15692.000000,21966.000000,4786.000000,26521.000000
15603.000000,21904.000000,4674.000000,26418.000000
15517.000000,21848.000000,4563.000000,26314.000000
15437.000000,21799.000000,4460.000000,26219.000000
15360.000000,21753.000000,4362.000000,26126.000000
15284.000000,21706.000000,4260.000000,26031.000000
15213.000000,21660.000000,4155.000000,25939.000000
15149.000000,21615.000000,4059.000000,25851.000000
15086.000000,21573.000000,3976.000000,25769.000000
15020.000000,21531.000000,3896.000000,25681.000000
14954.000000,21488.000000,3810.000000,25578.000000
14895.000000,21444.000000,3720.000000,25465.000000
14840.000000,21397.000000,3629.000000,25353.000000
14789.000000,21349.000000,3537.000000,25233.000000
14738.000000,21303.000000,3447.000000,25115.000000
14683.000000,21257.000000,3359.000000,25018.000000
14622.000000,21207.000000,3271.000000,24933.000000
14554.000000,21160.000000,3179.000000,24852.000000
14482.000000,21117.000000,3085.000000,24781.000000
14412.000000,21076.000000,2994.000000,24719.000000
14344.000000,21034.000000,2899.000000,24645.000000
14270.000000,20988.000000,2794.000000,24547.000000
14193.000000,20939.000000,2680.000000,24436.000000
14116.000000,20890.000000,2568.000000,24328.000000
14043.000000,20844.000000,2459.000000,24222.000000
13970.000000,20797.000000,2353.000000,24111.000000
13896.000000,20747.000000,2249.000000,24000.000000
13819.000000,20691.000000,2144.000000,23900.000000
13738.000000,20631.000000,2035.000000,23809.000000
13658.000000,20575.000000,1920.000000,23725.000000
13580.000000,20527.000000,1806.000000,23640.000000
13501.000000,20476.000000,1692.000000,23546.000000
13415.000000,20419.000000,1568.000000,23427.000000
13323.000000,20360.000000,1431.000000,23275.000000
13236.000000,20302.000000,1292.000000,23106.000000
13158.000000,20246.000000,1155.000000,22940.000000
13084.000000,20192.000000,1021.000000,22777.000000
13009.000000,20140.000000,893.000000,22624.000000
12936.000000,20090.000000,780.000000,22494.000000
12869.000000,20043.000000,680.000000,22382.000000
12815.000000,20002.000000,595.000000,22287.000000
12779.000000,19977.000000,536.000000,22229.000000
12772.000000,19977.000000,524.000000,22225.000000
12808.000000,20012.000000,576.000000,22286.000000
12893.000000,20087.000000,701.000000,22429.000000
13031.000000,20200.000000,909.000000,22675.000000
13230.000000,20353.000000,1211.000000,23014.000000
13496.000000,20545.000000,1609.000000,23422.000000
13828.000000,20780.000000,2101.000000,23907.000000
14223.000000,21060.000000,2684.000000,24477.000000
14679.000000,21377.000000,3352.000000,25119.000000
15186.000000,21725.000000,4087.000000,25813.000000
15726.000000,22100.000000,4868.000000,26548.000000
16285.000000,22495.000000,5681.000000,27312.000000
16850.000000,22897.000000,6511.000000,28085.000000
17408.000000,23296.000000,7342.000000,28852.000000
17947.000000,23684.000000,8151.000000,29596.000000
18458.000000,24051.000000,8917.000000,30297.000000
18938.000000,24391.000000,9632.000000,30951.000000
19384.000000,24703.000000,10294.000000,31554.000000
19786.000000,24988.000000,10895.000000,32101.000000
20137.000000,25240.000000,11424.000000,32595.000000
20431.000000,25454.000000,11878.000000,33040.000000
20664.000000,25627.000000,12249.000000,33427.000000
20847.000000,25765.000000,12542.000000,33744.000000
20992.000000,25876.000000,12774.000000,33981.000000
21099.000000,25959.000000,12954.000000,34141.000000
21161.000000,26010.000000,13070.000000,34241.000000
21184.000000,26031.000000,13124.000000,34293.000000
21179.000000,26032.000000,13129.000000,34308.000000
21152.000000,26017.000000,13100.000000,34296.000000
21106.000000,25988.000000,13044.000000,34261.000000
21041.000000,25944.000000,12963.000000,34197.000000
20963.000000,25886.000000,12862.000000,34110.000000
20875.000000,25816.000000,12748.000000,34012.000000
20786.000000,25742.000000,12625.000000,33899.000000
20700.000000,25669.000000,12495.000000,33779.000000
20619.000000,25599.000000,12366.000000,33655.000000
20543.000000,25535.000000,12243.000000,33521.000000
20469.000000,25473.000000,12122.000000,33391.000000
20393.000000,25415.000000,12000.000000,33279.000000
20320.000000,25363.000000,11879.000000,33172.000000
20253.000000,25314.000000,11767.000000,33068.000000
20187.000000,25267.000000,11665.000000,32967.000000
20120.000000,25227.000000,11570.000000,32874.000000
20056.000000,25190.000000,11487.000000,32802.000000
19995.000000,25152.000000,11411.000000,32741.000000
19934.000000,25113.000000,11336.000000,32677.000000
19871.000000,25077.000000,11257.000000,32618.000000
19806.000000,25038.000000,11176.000000,32568.000000
19742.000000,24994.000000,11087.000000,32510.000000
19671.000000,24942.000000,10987.000000,32435.000000
19593.000000,24884.000000,10875.000000,32354.000000
19515.000000,24825.000000,10761.000000,32270.000000
19443.000000,24767.000000,10648.000000,32170.000000
19373.000000,24710.000000,10535.000000,32053.000000
19304.000000,24654.000000,10425.000000,31933.000000
19243.000000,24602.000000,10327.000000,31827.000000
19193.000000,24552.000000,10243.000000,31738.000000
19158.000000,24509.000000,10172.000000,31658.000000
19136.000000,24480.000000,10116.000000,31589.000000
19125.000000,24465.000000,10080.000000,31527.000000
19116.000000,24458.000000,10060.000000,31481.000000
19110.000000,24458.000000,10050.000000,31456.000000
19112.000000,24463.000000,10050.000000,31455.000000
19126.000000,24473.000000,10067.000000,31482.000000
19148.000000,24488.000000,10100.000000,31523.000000
19179.000000,24510.000000,10140.000000,31562.000000
19218.000000,24536.000000,10188.000000,31598.000000
19262.000000,24563.000000,10245.000000,31637.000000
19304.000000,24589.000000,10305.000000,31693.000000
19346.000000,24615.000000,10363.000000,31767.000000
19391.000000,24646.000000,10421.000000,31838.000000
19438.000000,24677.000000,10478.000000,31892.000000
19476.000000,24703.000000,10525.000000,31938.000000
19501.000000,24724.000000,10554.000000,31988.000000
19515.000000,24742.000000,10574.000000,32038.000000
19519.000000,24751.000000,10586.000000,32068.000000
19510.000000,24751.000000,10589.000000,32063.000000
19491.000000,24744.000000,10575.000000,32024.000000
19463.000000,24728.000000,10545.000000,31974.000000
19427.000000,24701.000000,10501.000000,31927.000000
19383.000000,24670.000000,10442.000000,31880.000000
19333.000000,24636.000000,10372.000000,31831.000000
19278.000000,24598.000000,10296.000000,31779.000000
19222.000000,24558.000000,10219.000000,31722.000000
19161.000000,24514.000000,10133.000000,31652.000000
19093.000000,24467.000000,10032.000000,31566.000000
19021.000000,24419.000000,9925.000000,31471.000000
18947.000000,24366.000000,9816.000000,31365.000000
18866.000000,24306.000000,9698.000000,31233.000000
18781.000000,24240.000000,9569.000000,31082.000000
18694.000000,24169.000000,9433.000000,30931.000000
18604.000000,24099.000000,9295.000000,30787.000000
18508.000000,24031.000000,9156.000000,30652.000000
18412.000000,23965.000000,9018.000000,30516.000000
18320.000000,23900.000000,8885.000000,30380.000000
18227.000000,23830.000000,8760.000000,30256.000000
18133.000000,23760.000000,8637.000000,30143.000000
18044.000000,23696.000000,8514.000000,30029.000000
17960.000000,23638.000000,8393.000000,29905.000000
17878.000000,23579.000000,8275.000000,29775.000000
17794.000000,23524.000000,8157.000000,29642.000000
17711.000000,23472.000000,8038.000000,29511.000000
17631.000000,23423.000000,7920.000000,29396.000000
17553.000000,23371.000000,7802.000000,29303.000000
17478.000000,23321.000000,7686.000000,29221.000000
17413.000000,23275.000000,7581.000000,29135.000000
17359.000000,23230.000000,7486.000000,29042.000000
17307.000000,23187.000000,7394.000000,28950.000000
17256.000000,23145.000000,7300.000000,28861.000000
17210.000000,23109.000000,7213.000000,28777.000000
17171.000000,23079.000000,7138.000000,28701.000000
17130.000000,23051.000000,7068.000000,28625.000000
17084.000000,23022.000000,6994.000000,28544.000000
17037.000000,22994.000000,6920.000000,28470.000000
16992.000000,22964.000000,6848.000000,28405.000000
16945.000000,22929.000000,6778.000000,28336.000000
16894.000000,22893.000000,6711.000000,28264.000000
16840.000000,22854.000000,6644.000000,28200.000000
16788.000000,22810.000000,6576.000000,28145.000000
16743.000000,22767.000000,6505.000000,28095.000000
16700.000000,22726.000000,6430.000000,28046.000000
16658.000000,22687.000000,6356.000000,27993.000000
16619.000000,22650.000000,6289.000000,27936.000000
16585.000000,22619.000000,6227.000000,27887.000000
16556.000000,22597.000000,6172.000000,27853.000000
16532.000000,22579.000000,6126.000000,27824.000000
16509.000000,22560.000000,6086.000000,27787.000000
16484.000000,22538.000000,6041.000000,27727.000000
16457.000000,22517.000000,5988.000000,27650.000000
16431.000000,22498.000000,5934.000000,27576.000000
16409.000000,22478.000000,5882.000000,27510.000000
16382.000000,22458.000000,5827.000000,27438.000000
16349.000000,22437.000000,5769.000000,27364.000000
16319.000000,22415.000000,5711.000000,27302.000000
16291.000000,22392.000000,5651.000000,27247.000000
16260.000000,22367.000000,5586.000000,27190.000000
16223.000000,22339.000000,5518.000000,27132.000000
16181.000000,22307.000000,5449.000000,27067.000000
16131.000000,22270.000000,5373.000000,26988.000000
16074.000000,22230.000000,5291.000000,26903.000000
16017.000000,22192.000000,5212.000000,26836.000000
15960.000000,22157.000000,5140.000000,26790.000000
15901.000000,22124.000000,5069.000000,26748.000000
15834.000000,22088.000000,4993.000000,26703.000000
15765.000000,22052.000000,4913.000000,26654.000000
15702.000000,22016.000000,4837.000000,26599.000000
15637.000000,21979.000000,4765.000000,26535.000000
15570.000000,21941.000000,4691.000000,26461.000000
15505.000000,21905.000000,4614.000000,26386.000000
15442.000000,21862.000000,4532.000000,26310.000000
15379.000000,21815.000000,4439.000000,26227.000000
15316.000000,21770.000000,4339.000000,26132.000000
15253.000000,21729.000000,4237.000000,26033.000000
15189.000000,21686.000000,4135.000000,25939.000000
15120.000000,21633.000000,4027.000000,25848.000000
15051.000000,21578.000000,3914.000000,25747.000000
14990.000000,21527.000000,3807.000000,25644.000000
14935.000000,21479.000000,3709.000000,25548.000000
14875.000000,21427.000000,3611.000000,25444.000000
14812.000000,21375.000000,3511.000000,25323.000000
14749.000000,21328.000000,3410.000000,25211.000000
14689.000000,21281.000000,3311.000000,25118.000000
14631.000000,21233.000000,3215.000000,25027.000000
14571.000000,21191.000000,3125.000000,24942.000000
14508.000000,21151.000000,3042.000000,24872.000000
14442.000000,21105.000000,2960.000000,24808.000000
14378.000000,21057.000000,2875.000000,24744.000000
14316.000000,21012.000000,2788.000000,24684.000000
14253.000000,20970.000000,2703.000000,24620.000000
14190.000000,20930.000000,2617.000000,24534.000000
14124.000000,20890.000000,2523.000000,24429.000000
14053.000000,20849.000000,2418.000000,24315.000000
13985.000000,20803.000000,2311.000000,24195.000000
13925.000000,20756.000000,2204.000000,24068.000000
13866.000000,20711.000000,2098.000000,23943.000000
13801.000000,20670.000000,1994.000000,23830.000000
13743.000000,20633.000000,1896.000000,23727.000000
13701.000000,20605.000000,1812.000000,23642.000000
13681.000000,20591.000000,1757.000000,23583.000000
13689.000000,20598.000000,1745.000000,23559.000000
13730.000000,20629.000000,1787.000000,23589.000000
13811.000000,20686.000000,1894.000000,23691.000000
13945.000000,20780.000000,2081.000000,23879.000000
14140.000000,20919.000000,2364.000000,24175.000000
14401.000000,21105.000000,2749.000000,24576.000000
14723.000000,21335.000000,3232.000000,25065.000000
15103.000000,21608.000000,3804.000000,25628.000000
15539.000000,21921.000000,4455.000000,26254.000000
16032.000000,22270.000000,5175.000000,26928.000000
16569.000000,22649.000000,5952.000000,27641.000000
17132.000000,23051.000000,6771.000000,28397.000000
17705.000000,23465.000000,7613.000000,29186.000000
18280.000000,23879.000000,8462.000000,29988.000000
18842.000000,24283.000000,9299.000000,30783.000000
19375.000000,24670.000000,10104.000000,31552.000000
19876.000000,25035.000000,10863.000000,32277.000000
20338.000000,25368.000000,11562.000000,32939.000000
20752.000000,25665.000000,12183.000000,33521.000000
21113.000000,25927.000000,12719.000000,34018.000000
21423.000000,26155.000000,13180.000000,34431.000000
21686.000000,26351.000000,13577.000000,34773.000000
21895.000000,26512.000000,13904.000000,35065.000000
22049.000000,26641.000000,14158.000000,35309.000000
22162.000000,26740.000000,14348.000000,35509.000000
22237.000000,26805.000000,14483.000000,35668.000000
22275.000000,26838.000000,14566.000000,35776.000000
22279.000000,26844.000000,14598.000000,35828.000000
22254.000000,26829.000000,14584.000000,35839.000000
22205.000000,26790.000000,14535.000000,35815.000000
22141.000000,26735.000000,14457.000000,35741.000000
22069.000000,26674.000000,14360.000000,35633.000000
21991.000000,26609.000000,14251.000000,35523.000000
21904.000000,26539.000000,14136.000000,35420.000000
21808.000000,26463.000000,14014.000000,35315.000000
21711.000000,26389.000000,13884.000000,35205.000000
21618.000000,26317.000000,13754.000000,35089.000000
21532.000000,26248.000000,13631.000000,34963.000000
21453.000000,26185.000000,13513.000000,34841.000000
21381.000000,26133.000000,13402.000000,34735.000000
21318.000000,26087.000000,13306.000000,34636.000000
21263.000000,26043.000000,13223.000000,34547.000000
21210.000000,26005.000000,13147.000000,34469.000000
21157.000000,25972.000000,13073.000000,34388.000000
21105.000000,25940.000000,13001.000000,34313.000000
21056.000000,25904.000000,12932.000000,34250.000000
21004.000000,25867.000000,12861.000000,34185.000000
20946.000000,25826.000000,12781.000000,34110.000000
20881.000000,25777.000000,12690.000000,34028.000000
20813.000000,25718.000000,12587.000000,33937.000000
20749.000000,25658.000000,12474.000000,33830.000000
20690.000000,25606.000000,12360.000000,33716.000000
20631.000000,25555.000000,12254.000000,33616.000000
20564.000000,25502.000000,12153.000000,33538.000000
20495.000000,25454.000000,12052.000000,33474.000000
20437.000000,25418.000000,11956.000000,33400.000000
20389.000000,25388.000000,11876.000000,33316.000000
20348.000000,25357.000000,11809.000000,33230.000000
20310.000000,25331.000000,11749.000000,33160.000000
20279.000000,25315.000000,11703.000000,33120.000000
20263.000000,25306.000000,11676.000000,33102.000000
20263.000000,25305.000000,11669.000000,33096.000000
20275.000000,25317.000000,11683.000000,33106.000000
20296.000000,25341.000000,11717.000000,33138.000000
20326.000000,25371.000000,11766.000000,33188.000000
20364.000000,25403.000000,11823.000000,33245.000000
20408.000000,25434.000000,11875.000000,33305.000000
20454.000000,25465.000000,11927.000000,33376.000000
20503.000000,25493.000000,11984.000000,33440.000000
20551.000000,25514.000000,12036.000000,33488.000000
20590.000000,25530.000000,12077.000000,33534.000000
20623.000000,25547.000000,12117.000000,33587.000000
20654.000000,25566.000000,12160.000000,33640.000000
20672.000000,25580.000000,12196.000000,33673.000000
20677.000000,25586.000000,12220.000000,33679.000000
20672.000000,25584.000000,12230.000000,33672.000000
20654.000000,25572.000000,12221.000000,33657.000000
20624.000000,25552.000000,12189.000000,33617.000000
20590.000000,25529.000000,12139.000000,33551.000000
20554.000000,25498.000000,12077.000000,33471.000000
20510.000000,25457.000000,12005.000000,33389.000000
20459.000000,25411.000000,11923.000000,33308.000000
20407.000000,25367.000000,11835.000000,33219.000000
20354.000000,25321.000000,11748.000000,33121.000000
20292.000000,25273.000000,11658.000000,33018.000000
20221.000000,25224.000000,11555.000000,32906.000000
20141.000000,25170.000000,11437.000000,32794.000000
20057.000000,25106.000000,11313.000000,32692.000000
19970.000000,25037.000000,11186.000000,32597.000000
19879.000000,24971.000000,11058.000000,32504.000000
19782.000000,24906.000000,10924.000000,32405.000000
19683.000000,24835.000000,10788.000000,32305.000000
19584.000000,24763.000000,10650.000000,32204.000000
19488.000000,24698.000000,10509.000000,32088.000000
19396.000000,24638.000000,10367.000000,31953.000000
19302.000000,24572.000000,10228.000000,31812.000000
19202.000000,24500.000000,10089.000000,31681.000000
19101.000000,24428.000000,9946.000000,31560.000000
19004.000000,24359.000000,9803.000000,31449.000000
18914.000000,24293.000000,9669.000000,31343.000000
18827.000000,24227.000000,9539.000000,31230.000000
18742.000000,24163.000000,9413.000000,31110.000000
18659.000000,24102.000000,9294.000000,31000.000000
18578.000000,24042.000000,9180.000000,30898.000000
18501.000000,23983.000000,9069.000000,30779.000000
18431.000000,23933.000000,8964.000000,30639.000000
18370.000000,23892.000000,8867.000000,30505.000000
18315.000000,23853.000000,8777.000000,30389.000000
18264.000000,23815.000000,8690.000000,30287.000000
18217.000000,23780.000000,8605.000000,30193.000000
18172.000000,23747.000000,8521.000000,30100.000000
18129.000000,23712.000000,8440.000000,30003.000000
18087.000000,23676.000000,8359.000000,29906.000000
18046.000000,23638.000000,8280.000000,29818.000000
18011.000000,23599.000000,8209.000000,29747.000000
17979.000000,23562.000000,8145.000000,29683.000000
17941.000000,23527.000000,8081.000000,29617.000000
17895.000000,23493.000000,8012.000000,29552.000000
17848.000000,23461.000000,7941.000000,29494.000000
17801.000000,23430.000000,7872.000000,29442.000000
17749.000000,23399.000000,7805.000000,29394.000000
17693.000000,23367.000000,7737.000000,29341.000000
17639.000000,23334.000000,7666.000000,29275.000000
17585.000000,23296.000000,7591.000000,29197.000000
17530.000000,23258.000000,7510.000000,29107.000000
17475.000000,23224.000000,7426.000000,29016.000000
17424.000000,23192.000000,7345.000000,28937.000000
17380.000000,23160.000000,7268.000000,28860.000000
17337.000000,23130.000000,7193.000000,28782.000000
17292.000000,23099.000000,7118.000000,28711.000000
17247.000000,23067.000000,7044.000000,28648.000000
17204.000000,23036.000000,6972.000000,28590.000000
17158.000000,23004.000000,6902.000000,28533.000000
17107.000000,22971.000000,6836.000000,28468.000000
17057.000000,22936.000000,6770.000000,28393.000000
17006.000000,22897.000000,6698.000000,28322.000000
16954.000000,22859.000000,6623.000000,28260.000000
16907.000000,22823.000000,6551.000000,28206.000000
16863.000000,22787.000000,6480.000000,28154.000000
16813.000000,22747.000000,6401.000000,28093.000000
16760.000000,22704.000000,6315.000000,28020.000000
16710.000000,22664.000000,6224.000000,27937.000000
16663.000000,22623.000000,6131.000000,27852.000000
16610.000000,22579.000000,6042.000000,27767.000000
16546.000000,22534.000000,5953.000000,27678.000000
16478.000000,22489.000000,5862.000000,27582.000000
16410.000000,22440.000000,5768.000000,27481.000000
16340.000000,22390.000000,5672.000000,27375.000000
16270.000000,22344.000000,5580.000000,27278.000000
16198.000000,22299.000000,5488.000000,27202.000000
16122.000000,22251.000000,5395.000000,27142.000000
16049.000000,22204.000000,5303.000000,27086.000000
15981.000000,22162.000000,5216.000000,27028.000000
15921.000000,22126.000000,5137.000000,26968.000000
15866.000000,22094.000000,5062.000000,26906.000000
15809.000000,22059.000000,4985.000000,26846.000000
15753.000000,22019.000000,4905.000000,26795.000000
15703.000000,21979.000000,4824.000000,26741.000000
15657.000000,21936.000000,4743.000000,26666.000000
15609.000000,21890.000000,4657.000000,26571.000000
15554.000000,21844.000000,4559.000000,26461.000000
15495.000000,21799.000000,4455.000000,26352.000000
15438.000000,21754.000000,4352.000000,26249.000000
15386.000000,21712.000000,4248.000000,26131.000000
15337.000000,21673.000000,4146.000000,26005.000000
15287.000000,21636.000000,4053.000000,25895.000000
15236.000000,21598.000000,3965.000000,25799.000000
15176.000000,21561.000000,3872.000000,25708.000000
15108.000000,21525.000000,3777.000000,25625.000000
15042.000000,21490.000000,3692.000000,25549.000000
14980.000000,21452.000000,3610.000000,25465.000000
14917.000000,21409.000000,3520.000000,25365.000000
14856.000000,21360.000000,3423.000000,25268.000000
14800.000000,21312.000000,3332.000000,25184.000000
14746.000000,21266.000000,3250.000000,25098.000000
14691.000000,21224.000000,3172.000000,25007.000000
14635.000000,21187.000000,3091.000000,24934.000000
14577.000000,21150.000000,3012.000000,24875.000000
14520.000000,21110.000000,2931.000000,24806.000000
14465.000000,21073.000000,2844.000000,24713.000000
14411.000000,21038.000000,2760.000000,24612.000000
14361.000000,21005.000000,2686.000000,24531.000000
14322.000000,20978.000000,2629.000000,24489.000000
14301.000000,20966.000000,2597.000000,24485.000000
14312.000000,20973.000000,2605.000000,24512.000000
14364.000000,21009.000000,2669.000000,24592.000000
14459.000000,21079.000000,2801.000000,24743.000000
14607.000000,21188.000000,3010.000000,24955.000000
14817.000000,21341.000000,3311.000000,25232.000000
15090.000000,21540.000000,3712.000000,25600.000000
15422.000000,21781.000000,4207.000000,26072.000000
15818.000000,22065.000000,4789.000000,26638.000000
16282.000000,22393.000000,5459.000000,27276.000000
16806.000000,22760.000000,6208.000000,27974.000000
17368.000000,23156.000000,7015.000000,28731.000000
17956.000000,23576.000000,7861.000000,29528.000000
18558.000000,24010.000000,8730.000000,30336.000000
19156.000000,24444.000000,9602.000000,31146.000000
19737.000000,24871.000000,10465.000000,31949.000000
20291.000000,25287.000000,11301.000000,32723.000000
20813.000000,25681.000000,12091.000000,33449.000000
21290.000000,26043.000000,12824.000000,34124.000000
21719.000000,26372.000000,13490.000000,34743.000000
22104.000000,26669.000000,14082.000000,35296.000000
22442.000000,26929.000000,14600.000000,35780.000000
22727.000000,27146.000000,15046.000000,36198.000000
22964.000000,27323.000000,15417.000000,36559.000000
23161.000000,27468.000000,15719.000000,36863.000000
23315.000000,27581.000000,15962.000000,37110.000000
23420.000000,27658.000000,16147.000000,37301.000000
23481.000000,27704.000000,16270.000000,37439.000000
23512.000000,27727.000000,16338.000000,37533.000000
23523.000000,27732.000000,16372.000000,37576.000000
23512.000000,27720.000000,16375.000000,37565.000000
23478.000000,27692.000000,16343.000000,37515.000000
23430.000000,27652.000000,16283.000000,37444.000000
23375.000000,27605.000000,16210.000000,37363.000000
23313.000000,27559.000000,16129.000000,37280.000000
23245.000000,27517.000000,16040.000000,37188.000000
23175.000000,27476.000000,15948.000000,37081.000000
23107.000000,27432.000000,15855.000000,36969.000000
23042.000000,27382.000000,15760.000000,36868.000000
22981.000000,27333.000000,15670.000000,36786.000000
22927.000000,27291.000000,15594.000000,36725.000000
22881.000000,27254.000000,15534.000000,36685.000000
22843.000000,27219.000000,15482.000000,36661.000000
22816.000000,27190.000000,15435.000000,36634.000000
22804.000000,27171.000000,15402.000000,36590.000000
22799.000000,27156.000000,15382.000000,36541.000000
22790.000000,27142.000000,15365.000000,36509.000000
22772.000000,27132.000000,15345.000000,36501.000000
22753.000000,27124.000000,15323.000000,36501.000000
22733.000000,27112.000000,15299.000000,36494.000000
22702.000000,27094.000000,15264.000000,36479.000000
22663.000000,27068.000000,15212.000000,36443.000000
22621.000000,27034.000000,15145.000000,36384.000000
22571.000000,26992.000000,15070.000000,36316.000000
22512.000000,26950.000000,14986.000000,36244.000000
22451.000000,26910.000000,14891.000000,36165.000000
22388.000000,26867.000000,14790.000000,36082.000000
22325.000000,26817.000000,14685.000000,35991.000000
22268.000000,26766.000000,14582.000000,35881.000000
22220.000000,26722.000000,14486.000000,35766.000000
22174.000000,26684.000000,14402.000000,35669.000000
22125.000000,26646.000000,14330.000000,35589.000000
22078.000000,26612.000000,14265.000000,35525.000000
22042.000000,26588.000000,14207.000000,35474.000000
22024.000000,26571.000000,14162.000000,35431.000000
22019.000000,26559.000000,14128.000000,35387.000000
22019.000000,26551.000000,14098.000000,35344.000000
22021.000000,26549.000000,14075.000000,35319.000000
22023.000000,26549.000000,14066.000000,35317.000000
22027.000000,26550.000000,14072.000000,35340.000000
22036.000000,26558.000000,14089.000000,35371.000000
22053.000000,26576.000000,14113.000000,35394.000000
22072.000000,26594.000000,14141.000000,35413.000000
22090.000000,26607.000000,14171.000000,35430.000000
22107.000000,26620.000000,14196.000000,35434.000000
22121.000000,26632.000000,14217.000000,35436.000000
22131.000000,26638.000000,14236.000000,35448.000000
22135.000000,26632.000000,14244.000000,35454.000000
22134.000000,26621.000000,14237.000000,35440.000000
22130.000000,26611.000000,14218.000000,35413.000000
22114.000000,26599.000000,14187.000000,35381.000000
22080.000000,26577.000000,14141.000000,35349.000000
22033.000000,26548.000000,14080.000000,35315.000000
21984.000000,26514.000000,14007.000000,35263.000000
21932.000000,26471.000000,13926.000000,35186.000000
21868.000000,26417.000000,13834.000000,35096.000000
21790.000000,26357.000000,13721.000000,34991.000000
21711.000000,26296.000000,13600.000000,34876.000000
21631.000000,26234.000000,13481.000000,34762.000000
21546.000000,26171.000000,13358.000000,34645.000000
21458.000000,26108.000000,13227.000000,34521.000000
21372.000000,26042.000000,13093.000000,34398.000000
21284.000000,25971.000000,12955.000000,34280.000000
21186.000000,25895.000000,12809.000000,34153.000000
21081.000000,25820.000000,12657.000000,34015.000000
20973.000000,25748.000000,12507.000000,33891.000000
20866.000000,25674.000000,12364.000000,33780.000000
20766.000000,25602.000000,12230.000000,33658.000000
20679.000000,25538.000000,12101.000000,33527.000000
20601.000000,25480.000000,11977.000000,33409.000000
20523.000000,25419.000000,11856.000000,33300.000000
20440.000000,25357.000000,11734.000000,33196.000000
20358.000000,25302.000000,11612.000000,33100.000000
20285.000000,25251.000000,11494.000000,32996.000000
20221.000000,25199.000000,11381.000000,32875.000000
20157.000000,25148.000000,11267.000000,32755.000000
20088.000000,25098.000000,11154.000000,32645.000000
20018.000000,25048.000000,11047.000000,32547.000000
19948.000000,24997.000000,10947.000000,32453.000000
19879.000000,24944.000000,10852.000000,32357.000000
19817.000000,24893.000000,10762.000000,32260.000000
19764.000000,24846.000000,10678.000000,32176.000000
19709.000000,24800.000000,10594.000000,32106.000000
19654.000000,24757.000000,10508.000000,32029.000000
19601.000000,24717.000000,10420.000000,31937.000000
19550.000000,24678.000000,10335.000000,31841.000000
19497.000000,24639.000000,10254.000000,31750.000000
19440.000000,24601.000000,10172.000000,31671.000000
19382.000000,24566.000000,10088.000000,31600.000000
19324.000000,24528.000000,10004.000000,31524.000000
19264.000000,24485.000000,9920.000000,31451.000000
19203.000000,24443.000000,9836.000000,31384.000000
19154.000000,24409.000000,9761.000000,31319.000000
19112.000000,24378.000000,9696.000000,31262.000000
19067.000000,24344.000000,9633.000000,31205.000000
19023.000000,24311.000000,9568.000000,31135.000000
18983.000000,24284.000000,9505.000000,31062.000000
18945.000000,24253.000000,9444.000000,30997.000000
18900.000000,24217.000000,9379.000000,30928.000000
18855.000000,24181.000000,9310.000000,30849.000000
18818.000000,24148.000000,9243.000000,30769.000000
18788.000000,24115.000000,9178.000000,30696.000000
18751.000000,24079.000000,9112.000000,30617.000000
18707.000000,24046.000000,9042.000000,30524.000000
18659.000000,24016.000000,8972.000000,30436.000000
18607.000000,23983.000000,8901.000000,30371.000000
18546.000000,23946.000000,8827.000000,30318.000000
18483.000000,23910.000000,8751.000000,30252.000000
18422.000000,23874.000000,8676.000000,30186.000000
18361.000000,23833.000000,8599.000000,30136.000000
18299.000000,23790.000000,8517.000000,30081.000000
18240.000000,23751.000000,8430.000000,30009.000000
18179.000000,23715.000000,8341.000000,29939.000000
18114.000000,23674.000000,8251.000000,29881.000000
18047.000000,23629.000000,8161.000000,29826.000000
17982.000000,23584.000000,8071.000000,29767.000000
17924.000000,23541.000000,7987.000000,29708.000000
17869.000000,23499.000000,7904.000000,29636.000000
17815.000000,23455.000000,7812.000000,29536.000000
17761.000000,23412.000000,7711.000000,29416.000000
17710.000000,23373.000000,7612.000000,29298.000000
17656.000000,23336.000000,7522.000000,29194.000000
17593.000000,23296.000000,7437.000000,29101.000000
17528.000000,23254.000000,7352.000000,29020.000000
17461.000000,23210.000000,7268.000000,28957.000000
17394.000000,23163.000000,7180.000000,28895.000000
17328.000000,23115.000000,7091.000000,28815.000000
17268.000000,23069.000000,7006.000000,28726.000000
17212.000000,23023.000000,6923.000000,28632.000000
17157.000000,22974.000000,6835.000000,28539.000000
17096.000000,22924.000000,6739.000000,28448.000000
17032.000000,22874.000000,6637.000000,28354.000000
16966.000000,22827.000000,6533.000000,28253.000000
16898.000000,22781.000000,6428.000000,28142.000000
16824.000000,22735.000000,6318.000000,28022.000000
16746.000000,22689.000000,6208.000000,27912.000000
16669.000000,22640.000000,6099.000000,27825.000000
16595.000000,22587.000000,5992.000000,27737.000000
16521.000000,22536.000000,5884.000000,27647.000000
16446.000000,22489.000000,5777.000000,27571.000000
16372.000000,22441.000000,5673.000000,27495.000000
16305.000000,22392.000000,5565.000000,27397.000000
16242.000000,22346.000000,5454.000000,27282.000000
16179.000000,22301.000000,5346.000000,27164.000000
16115.000000,22252.000000,5244.000000,27040.000000
16052.000000,22201.000000,5143.000000,26920.000000
15988.000000,22151.000000,5042.000000,26815.000000
15921.000000,22103.000000,4940.000000,26721.000000
15852.000000,22054.000000,4839.000000,26626.000000
15782.000000,22003.000000,4734.000000,26524.000000
15710.000000,21954.000000,4628.000000,26431.000000
15640.000000,21906.000000,4526.000000,26351.000000
15573.000000,21855.000000,4427.000000,26269.000000
15499.000000,21798.000000,4323.000000,26177.000000
15421.000000,21740.000000,4215.000000,26077.000000
15347.000000,21688.000000,4116.000000,25974.000000
15287.000000,21647.000000,4034.000000,25876.000000
15241.000000,21620.000000,3973.000000,25793.000000
15217.000000,21613.000000,3946.000000,25754.000000
15226.000000,21629.000000,3972.000000,25776.000000
15283.000000,21675.000000,4063.000000,25871.000000
15394.000000,21761.000000,4234.000000,26047.000000
15570.000000,21895.000000,4498.000000,26316.000000
15818.000000,22080.000000,4866.000000,26676.000000
16139.000000,22311.000000,5336.000000,27127.000000
16524.000000,22586.000000,5899.000000,27666.000000
16970.000000,22904.000000,6547.000000,28279.000000
17474.000000,23264.000000,7276.000000,28954.000000
18022.000000,23655.000000,8068.000000,29675.000000
18594.000000,24066.000000,8898.000000,30426.000000
19169.000000,24487.000000,9746.000000,31204.000000
19740.000000,24908.000000,10592.000000,31987.000000
20303.000000,25322.000000,11419.000000,32745.000000
20847.000000,25725.000000,12217.000000,33476.000000
21359.000000,26109.000000,12976.000000,34181.000000
21827.000000,26464.000000,13683.000000,34845.000000
22246.000000,26785.000000,14323.000000,35457.000000
22618.000000,27073.000000,14893.000000,36006.000000
22948.000000,27331.000000,15396.000000,36478.000000
23231.000000,27554.000000,15836.000000,36869.000000
23460.000000,27735.000000,16201.000000,37191.000000
23641.000000,27875.000000,16488.000000,37459.000000
23782.000000,27982.000000,16712.000000,37670.000000
23887.000000,28054.000000,16882.000000,37820.000000
23950.000000,28094.000000,16994.000000,37904.000000
23972.000000,28108.000000,17046.000000,37934.000000
23965.000000,28101.000000,17051.000000,37935.000000
23935.000000,28073.000000,17020.000000,37925.000000
23882.000000,28028.000000,16958.000000,37894.000000
23811.000000,27976.000000,16872.000000,37835.000000
23732.000000,27919.000000,16772.000000,37775.000000
23655.000000,27857.000000,16666.000000,37720.000000
23583.000000,27795.000000,16558.000000,37652.000000
23515.000000,27740.000000,16453.000000,37566.000000
23452.000000,27695.000000,16363.000000,37476.000000
23393.000000,27655.000000,16292.000000,37398.000000
23342.000000,27626.000000,16235.000000,37343.000000
23300.000000,27609.000000,16188.000000,37306.000000
23271.000000,27598.000000,16152.000000,37283.000000
23254.000000,27589.000000,16127.000000,37266.000000
23243.000000,27580.000000,16107.000000,37241.000000
23231.000000,27571.000000,16091.000000,37211.000000
23219.000000,27563.000000,16077.000000,37179.000000
23204.000000,27551.000000,16056.000000,37140.000000
23180.000000,27530.000000,16016.000000,37088.000000
23150.000000,27501.000000,15959.000000,37023.000000
23113.000000,27469.000000,15892.000000,36948.000000
23063.000000,27431.000000,15814.000000,36870.000000
23002.000000,27390.000000,15720.000000,36787.000000
22935.000000,27345.000000,15616.000000,36698.000000
22866.000000,27291.000000,15512.000000,36602.000000
22791.000000,27227.000000,15405.000000,36498.000000
22710.000000,27159.000000,15291.000000,36389.000000
22626.000000,27093.000000,15170.000000,36281.000000
22549.000000,27032.000000,15054.000000,36173.000000
22481.000000,26973.000000,14945.000000,36054.000000
22418.000000,26919.000000,14841.000000,35926.000000
22359.000000,26873.000000,14744.000000,35802.000000
22303.000000,26828.000000,14652.000000,35698.000000
22249.000000,26783.000000,14568.000000,35616.000000
22203.000000,26746.000000,14498.000000,35560.000000
22167.000000,26720.000000,14446.000000,35521.000000
22139.000000,26704.000000,14415.000000,35494.000000
22116.000000,26694.000000,14396.000000,35483.000000
22098.000000,26687.000000,14384.000000,35491.000000
22089.000000,26685.000000,14384.000000,35516.000000
22090.000000,26687.000000,14396.000000,35551.000000
22092.000000,26692.000000,14409.000000,35583.000000
22098.000000,26699.000000,14421.000000,35609.000000
22111.000000,26709.000000,14436.000000,35625.000000
22125.000000,26717.000000,14452.000000,35636.000000
22133.000000,26722.000000,14461.000000,35648.000000
22138.000000,26725.000000,14463.000000,35655.000000
22144.000000,26725.000000,14461.000000,35651.000000
22144.000000,26717.000000,14454.000000,35632.000000
22134.000000,26707.000000,14434.000000,35591.000000
22115.000000,26695.000000,14394.000000,35530.000000
22086.000000,26675.000000,14343.000000,35467.000000
22043.000000,26645.000000,14285.000000,35404.000000
21987.000000,26605.000000,14210.000000,35331.000000
21920.000000,26557.000000,14116.000000,35254.000000
21847.000000,26502.000000,14014.000000,35179.000000
21772.000000,26439.000000,13911.000000,35094.000000
21691.000000,26374.000000,13799.000000,34992.000000
21606.000000,26313.000000,13680.000000,34882.000000
21519.000000,26252.000000,13559.000000,34767.000000
21433.000000,26188.000000,13435.000000,34635.000000
21342.000000,26126.000000,13304.000000,34486.000000
21247.000000,26066.000000,13164.000000,34330.000000
21151.000000,26000.000000,13021.000000,34186.000000
21053.000000,25925.000000,12882.000000,34056.000000
20960.000000,25853.000000,12750.000000,33932.000000
20873.000000,25791.000000,12622.000000,33808.000000
20790.000000,25736.000000,12498.000000,33688.000000
20709.000000,25681.000000,12372.000000,33570.000000
20629.000000,25624.000000,12240.000000,33451.000000
20554.000000,25567.000000,12106.000000,33338.000000
20483.000000,25507.000000,11981.000000,33230.000000
20406.000000,25442.000000,11858.000000,33114.000000
20322.000000,25376.000000,11733.000000,32989.000000
20237.000000,25312.000000,11610.000000,32874.000000
20158.000000,25251.000000,11493.000000,32772.000000
20084.000000,25192.000000,11382.000000,32663.000000
20008.000000,25136.000000,11277.000000,32539.000000
19928.000000,25077.000000,11172.000000,32419.000000
19846.000000,25014.000000,11064.000000,32321.000000
19769.000000,24952.000000,10956.000000,32240.000000
19698.000000,24897.000000,10848.000000,32161.000000
19633.000000,24848.000000,10745.000000,32086.000000
19576.000000,24803.000000,10653.000000,32015.000000
19525.000000,24763.000000,10569.000000,31943.000000
19481.000000,24733.000000,10487.000000,31871.000000
19442.000000,24707.000000,10415.000000,31797.000000
19401.000000,24680.000000,10353.000000,31721.000000
19355.000000,24653.000000,10292.000000,31654.000000
19305.000000,24626.000000,10226.000000,31601.000000
19255.000000,24598.000000,10161.000000,31560.000000
19208.000000,24566.000000,10101.000000,31523.000000
19162.000000,24535.000000,10037.000000,31479.000000
19117.000000,24508.000000,9968.000000,31419.000000
19075.000000,24483.000000,9902.000000,31348.000000
19033.000000,24456.000000,9839.000000,31268.000000
18990.000000,24425.000000,9775.000000,31174.000000
18949.000000,24394.000000,9713.000000,31082.000000
18906.000000,24359.000000,9654.000000,31008.000000
18856.000000,24318.000000,9594.000000,30948.000000
18803.000000,24276.000000,9528.000000,30890.000000
18753.000000,24239.000000,9462.000000,30836.000000
18708.000000,24206.000000,9401.000000,30787.000000
18666.000000,24173.000000,9344.000000,30731.000000
18623.000000,24141.000000,9282.000000,30664.000000
18581.000000,24112.000000,9217.000000,30593.000000
18542.000000,24084.000000,9155.000000,30527.000000
18505.000000,24060.000000,9099.000000,30471.000000
18468.000000,24041.000000,9048.000000,30413.000000
18436.000000,24023.000000,8995.000000,30348.000000
18411.000000,24004.000000,8942.000000,30284.000000
18388.000000,23980.000000,8885.000000,30225.000000
18362.000000,23954.000000,8819.000000,30158.000000
18330.000000,23929.000000,8754.000000,30088.000000
18292.000000,23901.000000,8695.000000,30036.000000
18245.000000,23871.000000,8636.000000,30000.000000
18195.000000,23839.000000,8568.000000,29958.000000
18147.000000,23807.000000,8494.000000,29906.000000
18100.000000,23775.000000,8420.000000,29849.000000
18056.000000,23742.000000,8346.000000,29777.000000
18016.000000,23709.000000,8268.000000,29693.000000
17979.000000,23677.000000,8192.000000,29621.000000
17939.000000,23640.000000,8121.000000,29570.000000
17896.000000,23602.000000,8050.000000,29516.000000
17848.000000,23564.000000,7978.000000,29453.000000
17794.000000,23525.000000,7905.000000,29399.000000
17737.000000,23486.000000,7834.000000,29361.000000
17681.000000,23445.000000,7763.000000,29324.000000
17623.000000,23404.000000,7689.000000,29282.000000
17568.000000,23367.000000,7614.000000,29225.000000
17523.000000,23334.000000,7539.000000,29142.000000
17477.000000,23297.000000,7454.000000,29030.000000
17424.000000,23258.000000,7359.000000,28903.000000
17374.000000,23222.000000,7264.000000,28781.000000
17327.000000,23186.000000,7173.000000,28672.000000
17278.000000,23150.000000,7085.000000,28570.000000
17227.000000,23118.000000,6998.000000,28465.000000
17175.000000,23081.000000,6913.000000,28364.000000
17117.000000,23036.000000,6826.000000,28266.000000
17055.000000,22988.000000,6737.000000,28172.000000
16995.000000,22946.000000,6648.000000,28092.000000
16938.000000,22904.000000,6558.000000,28028.000000
16877.000000,22858.000000,6462.000000,27957.000000
16807.000000,22806.000000,6356.000000,27864.000000
16731.000000,22753.000000,6246.000000,27757.000000
16651.000000,22695.000000,6139.000000,27653.000000
16567.000000,22636.000000,6032.000000,27552.000000
16480.000000,22579.000000,5922.000000,27446.000000
16394.000000,22525.000000,5808.000000,27349.000000
16309.000000,22470.000000,5693.000000,27264.000000
16225.000000,22414.000000,5580.000000,27180.000000
16141.000000,22361.000000,5467.000000,27086.000000
16056.000000,22310.000000,5355.000000,26983.000000
15970.000000,22254.000000,5246.000000,26885.000000
15881.000000,22197.000000,5141.000000,26797.000000
15804.000000,22148.000000,5053.000000,26723.000000
15756.000000,22121.000000,4995.000000,26676.000000
15744.000000,22117.000000,4983.000000,26671.000000
15773.000000,22139.000000,5027.000000,26722.000000
15852.000000,22199.000000,5140.000000,26833.000000
15997.000000,22308.000000,5341.000000,27009.000000
16215.000000,22464.000000,5642.000000,27263.000000
16499.000000,22669.000000,6042.000000,27605.000000
16851.000000,22923.000000,6537.000000,28038.000000
17269.000000,23225.000000,7127.000000,28564.000000
17746.000000,23567.000000,7804.000000,29182.000000
18266.000000,23940.000000,8554.000000,29880.000000
18815.000000,24340.000000,9357.000000,30631.000000
19382.000000,24756.000000,10192.000000,31410.000000
19957.000000,25178.000000,11036.000000,32187.000000
20527.000000,25598.000000,11866.000000,32939.000000
21084.000000,26009.000000,12669.000000,33665.000000
21613.000000,26400.000000,13431.000000,34370.000000
22097.000000,26759.000000,14136.000000,35044.000000
22531.000000,27085.000000,14774.000000,35666.000000
22913.000000,27378.000000,15341.000000,36214.000000
23242.000000,27631.000000,15834.000000,36677.000000
23514.000000,27840.000000,16253.000000,37064.000000
23728.000000,28005.000000,16596.000000,37375.000000
23891.000000,28133.000000,16863.000000,37602.000000
24013.000000,28225.000000,17067.000000,37757.000000
24092.000000,28281.000000,17214.000000,37856.000000
24125.000000,28305.000000,17303.000000,37911.000000
24122.000000,28304.000000,17339.000000,37935.000000
24093.000000,28284.000000,17335.000000,37928.000000
24045.000000,28247.000000,17295.000000,37892.000000
23975.000000,28198.000000,17223.000000,37836.000000
23890.000000,28145.000000,17128.000000,37760.000000
23807.000000,28092.000000,17025.000000,37672.000000
23733.000000,28038.000000,16923.000000,37579.000000
23660.000000,27982.000000,16817.000000,37478.000000
23589.000000,27926.000000,16711.000000,37376.000000
23520.000000,27868.000000,16612.000000,37286.000000
23451.000000,27810.000000,16518.000000,37204.000000
23386.000000,27760.000000,16430.000000,37133.000000
23331.000000,27725.000000,16357.000000,37082.000000
23286.000000,27701.000000,16298.000000,37042.000000
23245.000000,27677.000000,16239.000000,36994.000000
23203.000000,27654.000000,16179.000000,36946.000000
23164.000000,27632.000000,16121.000000,36910.000000
23127.000000,27608.000000,16071.000000,36873.000000
23091.000000,27579.000000,16019.000000,36814.000000
23052.000000,27547.000000,15955.000000,36734.000000
23009.000000,27509.000000,15879.000000,36655.000000
22965.000000,27464.000000,15795.000000,36573.000000
22916.000000,27418.000000,15705.000000,36475.000000
22857.000000,27373.000000,15605.000000,36363.000000
22791.000000,27326.000000,15500.000000,36257.000000
22720.000000,27271.000000,15396.000000,36158.000000
22651.000000,27216.000000,15291.000000,36049.000000
22586.000000,27165.000000,15187.000000,35938.000000
22523.000000,27116.000000,15090.000000,35837.000000
22461.000000,27067.000000,15004.000000,35745.000000
22406.000000,27025.000000,14925.000000,35661.000000
22360.000000,26992.000000,14854.000000,35592.000000
22328.000000,26970.000000,14804.000000,35538.000000
22311.000000,26956.000000,14779.000000,35501.000000
22302.000000,26948.000000,14767.000000,35492.000000
22300.000000,26950.000000,14761.000000,35506.000000
22313.000000,26960.000000,14774.000000,35533.000000
22340.000000,26975.000000,14803.000000,35568.000000
22371.000000,26995.000000,14835.000000,35598.000000
22406.000000,27017.000000,14868.000000,35624.000000
22444.000000,27044.000000,14908.000000,35660.000000
22476.000000,27075.000000,14959.000000,35709.000000
22504.000000,27103.000000,15010.000000,35755.000000
22529.000000,27125.000000,15060.000000,35791.000000
22550.000000,27141.000000,15108.000000,35824.000000
22569.000000,27149.000000,15145.000000,35852.000000
22587.000000,27155.000000,15171.000000,35880.000000
22601.000000,27166.000000,15192.000000,35911.000000
22610.000000,27178.000000,15211.000000,35936.000000
22616.000000,27184.000000,15223.000000,35956.000000
22620.000000,27186.000000,15222.000000,35970.000000
22618.000000,27186.000000,15210.000000,35974.000000
22612.000000,27179.000000,15192.000000,35962.000000
22598.000000,27165.000000,15165.000000,35938.000000
22573.000000,27144.000000,15120.000000,35896.000000
22541.000000,27116.000000,15054.000000,35830.000000
22505.000000,27081.000000,14975.000000,35747.000000
22457.000000,27037.000000,14882.000000,35648.000000
22394.000000,26988.000000,14773.000000,35540.000000
22323.000000,26933.000000,14654.000000,35447.000000
22247.000000,26872.000000,14534.000000,35366.000000
22167.000000,26812.000000,14416.000000,35286.000000
22081.000000,26757.000000,14295.000000,35205.000000
21988.000000,26700.000000,14168.000000,35123.000000
21891.000000,26633.000000,14034.000000,35028.000000
21797.000000,26560.000000,13901.000000,34915.000000
21709.000000,26492.000000,13772.000000,34792.000000
21624.000000,26427.000000,13645.000000,34672.000000
21543.000000,26361.000000,13521.000000,34549.000000
21466.000000,26298.000000,13399.000000,34425.000000
21392.000000,26237.000000,13277.000000,34304.000000
21320.000000,26176.000000,13157.000000,34173.000000
21250.000000,26117.000000,13043.000000,34034.000000
21177.000000,26058.000000,12927.000000,33906.000000
21102.000000,25999.000000,12805.000000,33789.000000
21032.000000,25944.000000,12687.000000,33675.000000
20972.000000,25895.000000,12578.000000,33559.000000
20918.000000,25854.000000,12479.000000,33452.000000
20867.000000,25820.000000,12389.000000,33362.000000
20820.000000,25789.000000,12316.000000,33293.000000
20775.000000,25758.000000,12259.000000,33249.000000
20726.000000,25729.000000,12209.000000,33220.000000
20675.000000,25702.000000,12156.000000,33185.000000
20629.000000,25672.000000,12104.000000,33149.000000
20587.000000,25638.000000,12054.000000,33122.000000
20546.000000,25604.000000,12002.000000,33095.000000
20511.000000,25573.000000,11952.000000,33074.000000
20485.000000,25549.000000,11906.000000,33050.000000
20460.000000,25527.000000,11859.000000,33002.000000
20432.000000,25508.000000,11807.000000,32936.000000
20408.000000,25491.000000,11754.000000,32860.000000
20389.000000,25474.000000,11705.000000,32779.000000
20367.000000,25453.000000,11654.000000,32695.000000
20336.000000,25426.000000,11591.000000,32619.000000
20302.000000,25397.000000,11520.000000,32560.000000
20272.000000,25371.000000,11453.000000,32507.000000
20247.000000,25349.000000,11394.000000,32447.000000
20218.000000,25328.000000,11337.000000,32384.000000
20181.000000,25304.000000,11275.000000,32322.000000
20143.000000,25273.000000,11211.000000,32259.000000
20103.000000,25238.000000,11148.000000,32192.000000
20059.000000,25207.000000,11083.000000,32128.000000
20015.000000,25178.000000,11020.000000,32078.000000
19974.000000,25149.000000,10962.000000,32039.000000
19935.000000,25121.000000,10907.000000,32008.000000
19898.000000,25100.000000,10849.000000,31979.000000
19865.000000,25084.000000,10794.000000,31944.000000
19833.000000,25065.000000,10745.000000,31894.000000
19797.000000,25038.000000,10691.000000,31840.000000
19757.000000,25006.000000,10628.000000,31794.000000
19720.000000,24972.000000,10563.000000,31737.000000
19682.000000,24935.000000,10500.000000,31663.000000
19636.000000,24893.000000,10431.000000,31589.000000
19587.000000,24849.000000,10358.000000,31513.000000
19543.000000,24809.000000,10289.000000,31442.000000
19499.000000,24773.000000,10223.000000,31374.000000
19449.000000,24734.000000,10152.000000,31295.000000
19397.000000,24693.000000,10075.000000,31208.000000
19346.000000,24657.000000,10001.000000,31131.000000
19294.000000,24626.000000,9933.000000,31067.000000
19243.000000,24599.000000,9864.000000,31001.000000
19198.000000,24571.000000,9795.000000,30931.000000
19153.000000,24539.000000,9725.000000,30859.000000
19105.000000,24500.000000,9652.000000,30778.000000
19054.000000,24455.000000,9575.000000,30690.000000
19003.000000,24413.000000,9496.000000,30603.000000
18953.000000,24371.000000,9420.000000,30530.000000
18903.000000,24329.000000,9346.000000,30475.000000
18849.000000,24289.000000,9269.000000,30427.000000
18790.000000,24253.000000,9189.000000,30384.000000
18732.000000,24218.000000,9108.000000,30337.000000
18675.000000,24182.000000,9021.000000,30274.000000
18622.000000,24146.000000,8930.000000,30197.000000
18570.000000,24111.000000,8842.000000,30124.000000
18518.000000,24074.000000,8756.000000,30059.000000
18462.000000,24032.000000,8667.000000,29981.000000
18405.000000,23987.000000,8575.000000,29877.000000
18349.000000,23945.000000,8484.000000,29756.000000
18292.000000,23899.000000,8395.000000,29646.000000
18227.000000,23847.000000,8305.000000,29556.000000
18157.000000,23795.000000,8213.000000,29473.000000
18091.000000,23749.000000,8120.000000,29387.000000
18024.000000,23704.000000,8023.000000,29304.000000
17952.000000,23653.000000,7922.000000,29223.000000
17878.000000,23602.000000,7818.000000,29144.000000
17814.000000,23558.000000,7719.000000,29069.000000
17761.000000,23517.000000,7625.000000,28990.000000
17710.000000,23481.000000,7539.000000,28910.000000
17663.000000,23451.000000,7473.000000,28840.000000
17631.000000,23431.000000,7432.000000,28790.000000
17625.000000,23428.000000,7429.000000,28775.000000
17663.000000,23454.000000,7481.000000,28815.000000
17749.000000,23516.000000,7597.000000,28919.000000
17888.000000,23621.000000,7789.000000,29094.000000
18089.000000,23770.000000,8077.000000,29355.000000
18353.000000,23964.000000,8461.000000,29711.000000
18678.000000,24206.000000,8938.000000,30171.000000
19066.000000,24498.000000,9510.000000,30723.000000
19515.000000,24834.000000,10166.000000,31336.000000
20007.000000,25202.000000,10881.000000,31982.000000
20531.000000,25590.000000,11640.000000,32658.000000
21078.000000,25992.000000,12436.000000,33368.000000
21636.000000,26401.000000,13250.000000,34101.000000
22191.000000,26811.000000,14062.000000,34840.000000
22733.000000,27219.000000,14855.000000,35573.000000
23248.000000,27612.000000,15612.000000,36275.000000
23728.000000,27978.000000,16321.000000,36929.000000
24164.000000,28316.000000,16970.000000,37522.000000
24554.000000,28625.000000,17552.000000,38051.000000
24894.000000,28898.000000,18072.000000,38524.000000
25182.000000,29129.000000,18525.000000,38937.000000
25416.000000,29321.000000,18900.000000,39283.000000
25600.000000,29473.000000,19202.000000,39572.000000
25743.000000,29585.000000,19443.000000,39800.000000
25848.000000,29662.000000,19624.000000,39964.000000
25918.000000,29712.000000,19750.000000,40072.000000
25957.000000,29737.000000,19828.000000,40129.000000
25969.000000,29739.000000,19864.000000,40144.000000
25957.000000,29721.000000,19859.000000,40137.000000
25928.000000,29691.000000,19823.000000,40116.000000
25890.000000,29654.000000,19770.000000,40080.000000
25844.000000,29609.000000,19706.000000,40030.000000
25788.000000,29556.000000,19631.000000,39967.000000
25722.000000,29504.000000,19547.000000,39903.000000
25657.000000,29457.000000,19464.000000,39837.000000
25598.000000,29411.000000,19385.000000,39765.000000
25543.000000,29365.000000,19306.000000,39686.000000
25491.000000,29324.000000,19226.000000,39614.000000
25449.000000,29291.000000,19158.000000,39571.000000
25415.000000,29264.000000,19108.000000,39553.000000
25383.000000,29242.000000,19073.000000,39537.000000
25354.000000,29225.000000,19043.000000,39514.000000
25330.000000,29212.000000,19015.000000,39500.000000
25306.000000,29199.000000,18986.000000,39501.000000
25283.000000,29185.000000,18952.000000,39498.000000
25265.000000,29170.000000,18911.000000,39487.000000
25248.000000,29155.000000,18866.000000,39475.000000
25226.000000,29134.000000,18812.000000,39446.000000
25196.000000,29106.000000,18742.000000,39396.000000
25157.000000,29071.000000,18657.000000,39327.000000
25111.000000,29034.000000,18565.000000,39237.000000
25061.000000,28995.000000,18471.000000,39136.000000
25001.000000,28950.000000,18374.000000,39038.000000
24931.000000,28899.000000,18275.000000,38948.000000
24866.000000,28848.000000,18185.000000,38861.000000
24812.000000,28803.000000,18104.000000,38765.000000
24769.000000,28764.000000,18027.000000,38664.000000
24735.000000,28736.000000,17953.000000,38576.000000
24714.000000,28713.000000,17895.000000,38517.000000
24705.000000,28695.000000,17858.000000,38490.000000
24701.000000,28687.000000,17838.000000,38483.000000
24699.000000,28691.000000,17831.000000,38481.000000
24702.000000,28699.000000,17835.000000,38478.000000
24709.000000,28707.000000,17850.000000,38483.000000
24720.000000,28717.000000,17867.000000,38495.000000
24738.000000,28734.000000,17888.000000,38515.000000
24768.000000,28756.000000,17923.000000,38545.000000
24806.000000,28778.000000,17967.000000,38572.000000
24844.000000,28796.000000,18004.000000,38586.000000
24882.000000,28816.000000,18033.000000,38595.000000
24923.000000,28837.000000,18063.000000,38605.000000
24964.000000,28855.000000,18089.000000,38609.000000
24993.000000,28864.000000,18105.000000,38613.000000
25004.000000,28865.000000,18111.000000,38627.000000
25000.000000,28859.000000,18108.000000,38648.000000
24989.000000,28852.000000,18096.000000,38670.000000
24974.000000,28846.000000,18074.000000,38684.000000
24960.000000,28838.000000,18049.000000,38677.000000
24943.000000,28825.000000,18021.000000,38655.000000
24915.000000,28804.000000,17982.000000,38629.000000
24878.000000,28772.000000,17926.000000,38588.000000
24841.000000,28734.000000,17863.000000,38516.000000
24797.000000,28691.000000,17794.000000,38411.000000
24739.000000,28642.000000,17707.000000,38293.000000
24669.000000,28588.000000,17601.000000,38180.000000
24595.000000,28532.000000,17486.000000,38073.000000
24520.000000,28475.000000,17368.000000,37976.000000
24440.000000,28416.000000,17242.000000,37884.000000
24355.000000,28353.000000,17110.000000,37783.000000
24268.000000,28286.000000,16977.000000,37673.000000
24179.000000,28214.000000,16843.000000,37552.000000
24092.000000,28141.000000,16703.000000,37404.000000
24006.000000,28070.000000,16558.000000,37236.000000
23919.000000,27997.000000,16410.000000,37075.000000
23821.000000,27918.000000,16259.000000,36932.000000
23720.000000,27838.000000,16103.000000,36801.000000
23627.000000,27761.000000,15950.000000,36677.000000
23540.000000,27690.000000,15809.000000,36553.000000
23453.000000,27622.000000,15678.000000,36432.000000
23365.000000,27560.000000,15545.000000,36324.000000
23283.000000,27504.000000,15415.000000,36232.000000
23210.000000,27453.000000,15300.000000,36141.000000
23142.000000,27406.000000,15198.000000,36036.000000
23072.000000,27361.000000,15097.000000,35921.000000
22998.000000,27314.000000,14991.000000,35812.000000
22924.000000,27263.000000,14884.000000,35711.000000
22856.000000,27207.000000,14780.000000,35613.000000
22792.000000,27154.000000,14681.000000,35511.000000
22734.000000,27112.000000,14590.000000,35408.000000
22683.000000,27077.000000,14507.000000,35319.000000
22631.000000,27040.000000,14425.000000,35253.000000
22577.000000,27001.000000,14341.000000,35197.000000
22526.000000,26960.000000,14260.000000,35138.000000
22475.000000,26917.000000,14187.000000,35080.000000
22416.000000,26872.000000,14117.000000,35019.000000
22351.000000,26824.000000,14039.000000,34952.000000
22290.000000,26776.000000,13952.000000,34881.000000
22240.000000,26729.000000,13867.000000,34806.000000
22195.000000,26687.000000,13785.000000,34728.000000
22145.000000,26652.000000,13701.000000,34649.000000
22093.000000,26620.000000,13617.000000,34568.000000
22048.000000,26589.000000,13539.000000,34483.000000
22009.000000,26556.000000,13466.000000,34397.000000
21971.000000,26528.000000,13396.000000,34321.000000
21934.000000,26509.000000,13332.000000,34255.000000
21894.000000,26494.000000,13272.000000,34196.000000
21848.000000,26473.000000,13213.000000,34159.000000
21799.000000,26451.000000,13155.000000,34142.000000
21758.000000,26428.000000,13101.000000,34117.000000
21725.000000,26401.000000,13050.000000,34070.000000
21692.000000,26367.000000,12999.000000,34007.000000
21655.000000,26331.000000,12944.000000,33930.000000
21617.000000,26296.000000,12883.000000,33849.000000
21576.000000,26257.000000,12816.000000,33781.000000
21531.000000,26215.000000,12739.000000,33715.000000
21485.000000,26171.000000,12659.000000,33641.000000
21441.000000,26125.000000,12582.000000,33563.000000
21398.000000,26076.000000,12502.000000,33476.000000
21351.000000,26029.000000,12414.000000,33384.000000
21298.000000,25987.000000,12325.000000,33314.000000
21242.000000,25945.000000,12239.000000,33267.000000
21180.000000,25900.000000,12151.000000,33216.000000
21113.000000,25854.000000,12059.000000,33147.000000
21045.000000,25809.000000,11962.000000,33075.000000
20979.000000,25766.000000,11866.000000,33005.000000
20912.000000,25722.000000,11776.000000,32931.000000
20846.000000,25676.000000,11685.000000,32847.000000
20789.000000,25633.000000,11595.000000,32755.000000
20740.000000,25594.000000,11511.000000,32662.000000
20694.000000,25555.000000,11432.000000,32572.000000
20643.000000,25516.000000,11353.000000,32484.000000
20592.000000,25480.000000,11277.000000,32402.000000
20541.000000,25444.000000,11202.000000,32317.000000
20487.000000,25404.000000,11116.000000,32222.000000
20430.000000,25362.000000,11019.000000,32120.000000
20373.000000,25317.000000,10923.000000,32016.000000
20316.000000,25270.000000,10835.000000,31917.000000
20255.000000,25220.000000,10750.000000,31829.000000
20187.000000,25174.000000,10659.000000,31756.000000
20119.000000,25134.000000,10566.000000,31693.000000
20054.000000,25093.000000,10474.000000,31621.000000
19983.000000,25046.000000,10377.000000,31523.000000
19904.000000,24995.000000,10270.000000,31411.000000
19826.000000,24942.000000,10161.000000,31316.000000
19753.000000,24887.000000,10053.000000,31240.000000
19683.000000,24830.000000,9948.000000,31160.000000
19617.000000,24776.000000,9846.000000,31068.000000
19555.000000,24726.000000,9750.000000,30981.000000
19493.000000,24677.000000,9660.000000,30898.000000
19434.000000,24627.000000,9575.000000,30806.000000
19378.000000,24581.000000,9493.000000,30704.000000
19324.000000,24538.000000,9413.000000,30598.000000
19268.000000,24494.000000,9331.000000,30491.000000
19211.000000,24446.000000,9245.000000,30386.000000
19152.000000,24401.000000,9154.000000,30291.000000
19095.000000,24357.000000,9064.000000,30212.000000
19038.000000,24312.000000,8973.000000,30136.000000
18981.000000,24264.000000,8876.000000,30045.000000
18923.000000,24216.000000,8776.000000,29951.000000
18870.000000,24173.000000,8684.000000,29876.000000
18825.000000,24138.000000,8610.000000,29819.000000
18787.000000,24114.000000,8553.000000,29775.000000
18765.000000,24105.000000,8524.000000,29760.000000
18774.000000,24120.000000,8540.000000,29789.000000
18820.000000,24160.000000,8613.000000,29871.000000
18911.000000,24235.000000,8753.000000,30011.000000
19062.000000,24355.000000,8976.000000,30221.000000
19282.000000,24522.000000,9294.000000,30516.000000
19570.000000,24738.000000,9709.000000,30905.000000
19926.000000,25006.000000,10220.000000,31382.000000
20344.000000,25326.000000,10825.000000,31932.000000
20819.000000,25691.000000,11515.000000,32543.000000
21337.000000,26090.000000,12270.000000,33201.000000
21882.000000,26510.000000,13064.000000,33904.000000
22448.000000,26943.000000,13883.000000,34648.000000
23027.000000,27381.000000,14719.000000,35405.000000
23596.000000,27813.000000,15557.000000,36151.000000
24136.000000,28230.000000,16369.000000,36886.000000
24644.000000,28626.000000,17133.000000,37604.000000
25122.000000,28996.000000,17848.000000,38290.000000
25562.000000,29333.000000,18510.000000,38923.000000
25953.000000,29632.000000,19106.000000,39492.000000
26293.000000,29890.000000,19627.000000,40001.000000
26583.000000,30106.000000,20078.000000,40433.000000
26823.000000,30288.000000,20455.000000,40771.000000
27017.000000,30439.000000,20759.000000,41032.000000
27166.000000,30556.000000,20995.000000,41233.000000
27276.000000,30637.000000,21172.000000,41369.000000
27349.000000,30690.000000,21291.000000,41451.000000
27388.000000,30722.000000,21361.000000,41501.000000
27398.000000,30739.000000,21400.000000,41527.000000
27387.000000,30738.000000,21415.000000,41535.000000
27356.000000,30720.000000,21405.000000,41541.000000
27308.000000,30694.000000,21371.000000,41540.000000
27257.000000,30666.000000,21324.000000,41519.000000
27210.000000,30633.000000,21274.000000,41479.000000
27164.000000,30597.000000,21219.000000,41419.000000
27120.000000,30564.000000,21163.000000,41355.000000
27087.000000,30538.000000,21116.000000,41302.000000
27064.000000,30516.000000,21079.000000,41264.000000
27048.000000,30497.000000,21047.000000,41241.000000
27039.000000,30486.000000,21023.000000,41229.000000
27038.000000,30481.000000,21013.000000,41223.000000
27041.000000,30477.000000,21018.000000,41227.000000
27048.000000,30477.000000,21033.000000,41237.000000
27061.000000,30484.000000,21055.000000,41247.000000
27077.000000,30493.000000,21079.000000,41254.000000
27093.000000,30502.000000,21101.000000,41260.000000
27106.000000,30505.000000,21111.000000,41254.000000
27113.000000,30507.000000,21107.000000,41232.000000
27111.000000,30504.000000,21096.000000,41202.000000
27098.000000,30493.000000,21072.000000,41162.000000
27069.000000,30473.000000,21024.000000,41109.000000
27034.000000,30448.000000,20955.000000,41049.000000
26998.000000,30419.000000,20880.000000,40987.000000
26957.000000,30382.000000,20797.000000,40908.000000
26904.000000,30337.000000,20697.000000,40815.000000
26842.000000,30283.000000,20582.000000,40732.000000
26775.000000,30223.000000,20462.000000,40651.000000
26702.000000,30158.000000,20341.000000,40563.000000
26619.000000,30094.000000,20216.000000,40473.000000
26533.000000,30033.000000,20093.000000,40382.000000
26452.000000,29973.000000,19988.000000,40296.000000
26380.000000,29913.000000,19897.000000,40217.000000
26316.000000,29861.000000,19810.000000,40140.000000
26262.000000,29818.000000,19730.000000,40058.000000
26213.000000,29782.000000,19661.000000,39981.000000
26166.000000,29749.000000,19601.000000,39927.000000
26127.000000,29720.000000,19544.000000,39890.000000
26096.000000,29698.000000,19494.000000,39854.000000
26072.000000,29683.000000,19453.000000,39819.000000
26051.000000,29668.000000,19414.000000,39783.000000
26037.000000,29656.000000,19375.000000,39743.000000
26032.000000,29651.000000,19350.000000,39705.000000
26032.000000,29648.000000,19341.000000,39680.000000
26031.000000,29641.000000,19335.000000,39673.000000
26028.000000,29633.000000,19328.000000,39674.000000
26027.000000,29628.000000,19326.000000,39670.000000
26025.000000,29623.000000,19321.000000,39661.000000
26019.000000,29614.000000,19303.000000,39653.000000
26010.000000,29604.000000,19274.000000,39640.000000
25995.000000,29588.000000,19240.000000,39620.000000
25967.000000,29564.000000,19198.000000,39589.000000
25932.000000,29534.000000,19143.000000,39531.000000
25892.000000,29501.000000,19080.000000,39451.000000
25846.000000,29463.000000,19008.000000,39375.000000
25788.000000,29417.000000,18923.000000,39302.000000
25721.000000,29368.000000,18819.000000,39220.000000
25651.000000,29320.000000,18703.000000,39124.000000
25578.000000,29269.000000,18586.000000,39015.000000
25498.000000,29210.000000,18468.000000,38902.000000
25408.000000,29144.000000,18344.000000,38784.000000
25311.000000,29078.000000,18210.000000,38658.000000
25213.000000,29009.000000,18072.000000,38521.000000
25114.000000,28934.000000,17931.000000,38383.000000
25011.000000,28853.000000,17781.000000,38246.000000
24910.000000,28775.000000,17628.000000,38108.000000
24817.000000,28702.000000,17483.000000,37975.000000
24729.000000,28632.000000,17351.000000,37844.000000
24640.000000,28562.000000,17219.000000,37711.000000
24552.000000,28494.000000,17082.000000,37592.000000
24470.000000,28427.000000,16947.000000,37479.000000
24393.000000,28361.000000,16814.000000,37357.000000
24314.000000,28300.000000,16682.000000,37226.000000
24233.000000,28239.000000,16556.000000,37103.000000
24153.000000,28177.000000,16443.000000,37005.000000
24075.000000,28116.000000,16338.000000,36920.000000
23998.000000,28060.000000,16237.000000,36837.000000
23925.000000,28011.000000,16143.000000,36759.000000
23859.000000,27965.000000,16060.000000,36686.000000
23800.000000,27920.000000,15980.000000,36618.000000
23746.000000,27875.000000,15897.000000,36551.000000
23699.000000,27835.000000,15813.000000,36478.000000
23658.000000,27798.000000,15735.000000,36401.000000
23616.000000,27761.000000,15658.000000,36323.000000
23571.000000,27726.000000,15578.000000,36249.000000
23530.000000,27696.000000,15502.000000,36171.000000
23497.000000,27669.000000,15434.000000,36080.000000
23459.000000,27635.000000,15365.000000,35986.000000
23410.000000,27599.000000,15288.000000,35898.000000
23364.000000,27565.000000,15209.000000,35808.000000
23320.000000,27528.000000,15132.000000,35716.000000
23270.000000,27487.000000,15054.000000,35641.000000
23210.000000,27444.000000,14974.000000,35581.000000
23148.000000,27403.000000,14896.000000,35526.000000
23089.000000,27357.000000,14819.000000,35479.000000
23032.000000,27310.000000,14736.000000,35435.000000
22977.000000,27267.000000,14650.000000,35382.000000
22928.000000,27230.000000,14566.000000,35318.000000
22883.000000,27191.000000,14487.000000,35248.000000
22836.000000,27153.000000,14413.000000,35183.000000
22786.000000,27120.000000,14346.000000,35125.000000
22740.000000,27092.000000,14287.000000,35068.000000
22694.000000,27060.000000,14226.000000,35008.000000
22646.000000,27024.000000,14151.000000,34946.000000
22591.000000,26986.000000,14065.000000,34881.000000
22528.000000,26945.000000,13980.000000,34809.000000
22462.000000,26898.000000,13896.000000,34727.000000
22398.000000,26849.000000,13808.000000,34639.000000
22338.000000,26803.000000,13716.000000,34553.000000
22281.000000,26757.000000,13627.000000,34463.000000
22217.000000,26707.000000,13535.000000,34358.000000
22143.000000,26653.000000,13434.000000,34246.000000
22068.000000,26599.000000,13327.000000,34138.000000
22002.000000,26549.000000,13226.000000,34033.000000
21943.000000,26502.000000,13129.000000,33919.000000
21880.000000,26458.000000,13030.000000,33802.000000
21813.000000,26413.000000,12928.000000,33703.000000
21749.000000,26365.000000,12833.000000,33629.000000
21691.000000,26317.000000,12745.000000,33562.000000
21637.000000,26276.000000,12660.000000,33488.000000
21584.000000,26240.000000,12576.000000,33415.000000
21531.000000,26202.000000,12493.000000,33340.000000
21479.000000,26161.000000,12411.000000,33268.000000
21425.000000,26118.000000,12324.000000,33210.000000
21370.000000,26075.000000,12241.000000,33161.000000
21315.000000,26030.000000,12165.000000,33109.000000
21257.000000,25983.000000,12088.000000,33056.000000
21195.000000,25934.000000,12006.000000,33001.000000
21130.000000,25889.000000,11925.000000,32929.000000
21066.000000,25846.000000,11845.000000,32839.000000
20996.000000,25801.000000,11757.000000,32740.000000
20922.000000,25754.000000,11658.000000,32634.000000
20847.000000,25707.000000,11556.000000,32529.000000
20775.000000,25661.000000,11456.000000,32424.000000
20704.000000,25614.000000,11353.000000,32310.000000
20638.000000,25567.000000,11251.000000,32190.000000
20579.000000,25520.000000,11158.000000,32070.000000
20525.000000,25476.000000,11074.000000,31959.000000
20474.000000,25434.000000,10992.000000,31875.000000
20427.000000,25392.000000,10910.000000,31813.000000
20383.000000,25347.000000,10827.000000,31755.000000
20343.000000,25302.000000,10745.000000,31694.000000
20301.000000,25260.000000,10658.000000,31633.000000
20256.000000,25222.000000,10570.000000,31559.000000
20205.000000,25184.000000,10481.000000,31472.000000
20149.000000,25142.000000,10390.000000,31385.000000
20090.000000,25096.000000,10291.000000,31292.000000
20027.000000,25050.000000,10185.000000,31193.000000
19963.000000,25003.000000,10079.000000,31093.000000
19895.000000,24952.000000,9974.000000,30996.000000
19820.000000,24895.000000,9862.000000,30905.000000
19740.000000,24837.000000,9747.000000,30823.000000
19662.000000,24782.000000,9638.000000,30739.000000
19584.000000,24727.000000,9533.000000,30636.000000
19506.000000,24675.000000,9431.000000,30517.000000
19432.000000,24628.000000,9341.000000,30404.000000
19371.000000,24590.000000,9275.000000,30323.000000
19333.000000,24567.000000,9240.000000,30281.000000
19328.000000,24572.000000,9254.000000,30290.000000
19368.000000,24613.000000,9335.000000,30364.000000
19469.000000,24694.000000,9497.000000,30505.000000
19634.000000,24821.000000,9744.000000,30729.000000
19866.000000,25001.000000,10084.000000,31046.000000
20168.000000,25238.000000,10525.000000,31453.000000
20540.000000,25526.000000,11065.000000,31946.000000
20969.000000,25855.000000,11681.000000,32524.000000
21446.000000,26221.000000,12362.000000,33177.000000
21968.000000,26621.000000,13105.000000,33891.000000
22526.000000,27045.000000,13902.000000,34651.000000
23099.000000,27477.000000,14728.000000,35429.000000
23670.000000,27911.000000,15562.000000,36204.000000
24226.000000,28333.000000,16382.000000,36967.000000
24757.000000,28732.000000,17172.000000,37695.000000
25253.000000,29108.000000,17913.000000,38360.000000
25709.000000,29460.000000,18594.000000,38957.000000
26115.000000,29775.000000,19207.000000,39499.000000
26468.000000,30044.000000,19750.000000,39992.000000
26770.000000,30274.000000,20217.000000,40434.000000
27026.000000,30473.000000,20609.000000,40824.000000
27231.000000,30639.000000,20929.000000,41151.000000
27388.000000,30767.000000,21181.000000,41407.000000
27502.000000,30861.000000,21370.000000,41594.000000
27581.000000,30928.000000,21505.000000,41729.000000
27630.000000,30973.000000,21597.000000,41818.000000
27654.000000,30995.000000,21646.000000,41852.000000
27655.000000,30996.000000,21655.000000,41834.000000
27635.000000,30981.000000,21632.000000,41787.000000
27597.000000,30953.000000,21589.000000,41732.000000
27543.000000,30916.000000,21529.000000,41676.000000
27477.000000,30874.000000,21451.000000,41614.000000
27407.000000,30829.000000,21365.000000,41539.000000
27338.000000,30777.000000,21280.000000,41463.000000
27272.000000,30722.000000,21199.000000,41392.000000
27212.000000,30673.000000,21123.000000,41322.000000
27162.000000,30632.000000,21060.000000,41265.000000
27126.000000,30598.000000,21014.000000,41223.000000
27093.000000,30567.000000,20976.000000,41190.000000
27058.000000,30540.000000,20938.000000,41164.000000
27026.000000,30519.000000,20904.000000,41150.000000
27007.000000,30504.000000,20882.000000,41135.000000
26999.000000,30491.000000,20866.000000,41105.000000
26988.000000,30479.000000,20847.000000,41064.000000
26967.000000,30465.000000,20823.000000,41030.000000
26942.000000,30451.000000,20795.000000,41004.000000
26918.000000,30437.000000,20760.000000,40965.000000
26889.000000,30417.000000,20710.000000,40903.000000
