660nm,730nm,850nm,940nm
48922.000000,53808.000000,43683.000000,42555.000000
48903.000000,53794.000000,43650.000000,42513.000000
48881.000000,53779.000000,43617.000000,42475.000000
48858.000000,53761.000000,43582.000000,42434.000000
48831.000000,53738.000000,43544.000000,42394.000000
48804.000000,53715.000000,43506.000000,42359.000000
48779.000000,53694.000000,43468.000000,42329.000000
48760.000000,53678.000000,43431.000000,42305.000000
48743.000000,53667.000000,43395.000000,42283.000000
48724.000000,53658.000000,43356.000000,42259.000000
48705.000000,53649.000000,43314.000000,42231.000000
48688.000000,53637.000000,43272.000000,42199.000000
48668.000000,53623.000000,43231.000000,42168.000000
48647.000000,53607.000000,43192.000000,42136.000000
48625.000000,53587.000000,43153.000000,42100.000000
48599.000000,53563.000000,43110.000000,42059.000000
48570.000000,53537.000000,43065.000000,42015.000000
48539.000000,53510.000000,43020.000000,41967.000000
48510.000000,53484.000000,42977.000000,41915.000000
48480.000000,53458.000000,42933.000000,41862.000000
48447.000000,53429.000000,42887.000000,41811.000000
48411.000000,53399.000000,42839.000000,41762.000000
48379.000000,53372.000000,42790.000000,41719.000000
48349.000000,53346.000000,42743.000000,41680.000000
48322.000000,53319.000000,42698.000000,41642.000000
48296.000000,53293.000000,42655.000000,41605.000000
48276.000000,53271.000000,42616.000000,41573.000000
48261.000000,53254.000000,42578.000000,41543.000000
48247.000000,53240.000000,42540.000000,41514.000000
48234.000000,53230.000000,42506.000000,41490.000000
48225.000000,53224.000000,42481.000000,41471.000000
48222.000000,53222.000000,42471.000000,41461.000000
48226.000000,53226.000000,42476.000000,41464.000000
48240.000000,53243.000000,42502.000000,41488.000000
48271.000000,53275.000000,42554.000000,41536.000000
48321.000000,53326.000000,42641.000000,41614.000000
48396.000000,53399.000000,42771.000000,41733.000000
48507.000000,53501.000000,42959.000000,41901.000000
48656.000000,53638.000000,43217.000000,42127.000000
48845.000000,53815.000000,43545.000000,42422.000000
49072.000000,54025.000000,43938.000000,42786.000000
49337.000000,54267.000000,44388.000000,43216.000000
49639.000000,54538.000000,44890.000000,43703.000000
49968.000000,54831.000000,45432.000000,44230.000000
50309.000000,55135.000000,45996.000000,44771.000000
50653.000000,55444.000000,46559.000000,45307.000000
50992.000000,55747.000000,47106.000000,45824.000000
51314.000000,56034.000000,47623.000000,46308.000000
51612.000000,56302.000000,48099.000000,46751.000000
51884.000000,56544.000000,48528.000000,47150.000000
52124.000000,56759.000000,48909.000000,47502.000000
52331.000000,56946.000000,49243.000000,47810.000000
52506.000000,57106.000000,49527.000000,48076.000000
52656.000000,57241.000000,49762.000000,48297.000000
52778.000000,57350.000000,49951.000000,48477.000000
52868.000000,57436.000000,50096.000000,48618.000000
52932.000000,57496.000000,50201.000000,48718.000000
52975.000000,57534.000000,50272.000000,48783.000000
52998.000000,57556.000000,50314.000000,48822.000000
53002.000000,57562.000000,50334.000000,48842.000000
52993.000000,57552.000000,50329.000000,48843.000000
52972.000000,57529.000000,50305.000000,48826.000000
52939.000000,57498.000000,50266.000000,48793.000000
52897.000000,57458.000000,50212.000000,48749.000000
52847.000000,57411.000000,50142.000000,48692.000000
52796.000000,57358.000000,50060.000000,48625.000000
52743.000000,57298.000000,49967.000000,48557.000000
52689.000000,57235.000000,49868.000000,48483.000000
52632.000000,57171.000000,49765.000000,48398.000000
52574.000000,57109.000000,49659.000000,48303.000000
52511.000000,57047.000000,49550.000000,48203.000000
52438.000000,56982.000000,49434.000000,48098.000000
52358.000000,56912.000000,49312.000000,47987.000000
52276.000000,56840.000000,49188.000000,47868.000000
52191.000000,56764.000000,49058.000000,47743.000000
52097.000000,56684.000000,48920.000000,47614.000000
51996.000000,56600.000000,48770.000000,47478.000000
51891.000000,56511.000000,48606.000000,47329.000000
51782.000000,56416.000000,48431.000000,47168.000000
51672.000000,56317.000000,48252.000000,46995.000000
51564.000000,56218.000000,48076.000000,46820.000000
51462.000000,56124.000000,47907.000000,46653.000000
51365.000000,56035.000000,47744.000000,46501.000000
51276.000000,55954.000000,47590.000000,46363.000000
51198.000000,55883.000000,47450.000000,46241.000000
51132.000000,55821.000000,47328.000000,46142.000000
51080.000000,55769.000000,47229.000000,46063.000000
51041.000000,55726.000000,47152.000000,46003.000000
51014.000000,55696.000000,47095.000000,45961.000000
51001.000000,55679.000000,47060.000000,45935.000000
50999.000000,55675.000000,47048.000000,45926.000000
51008.000000,55681.000000,47059.000000,45934.000000
51029.000000,55699.000000,47093.000000,45962.000000
51061.000000,55730.000000,47147.000000,46008.000000
51103.000000,55773.000000,47221.000000,46071.000000
51151.000000,55822.000000,47310.000000,46145.000000
51205.000000,55876.000000,47407.000000,46224.000000
51264.000000,55933.000000,47509.000000,46312.000000
51325.000000,55993.000000,47618.000000,46408.000000
51389.000000,56052.000000,47729.000000,46507.000000
51453.000000,56110.000000,47841.000000,46604.000000
51515.000000,56165.000000,47950.000000,46702.000000
51571.000000,56214.000000,48052.000000,46797.000000
51622.000000,56256.000000,48142.000000,46887.000000
51669.000000,56291.000000,48214.000000,46966.000000
51707.000000,56320.000000,48267.000000,47030.000000
51731.000000,56342.000000,48303.000000,47076.000000
51741.000000,56352.000000,48321.000000,47104.000000
51742.000000,56352.000000,48324.000000,47117.000000
51733.000000,56341.000000,48312.000000,47113.000000
51715.000000,56323.000000,48284.000000,47093.000000
51689.000000,56299.000000,48243.000000,47057.000000
51659.000000,56271.000000,48190.000000,47008.000000
51621.000000,56238.000000,48124.000000,46945.000000
51574.000000,56197.000000,48045.000000,46869.000000
51523.000000,56149.000000,47954.000000,46775.000000
51472.000000,56096.000000,47856.000000,46669.000000
51415.000000,56037.000000,47752.000000,46557.000000
51349.000000,55971.000000,47644.000000,46440.000000
51277.000000,55904.000000,47533.000000,46319.000000
51200.000000,55835.000000,47416.000000,46196.000000
51117.000000,55765.000000,47295.000000,46073.000000
51031.000000,55695.000000,47171.000000,45944.000000
50948.000000,55628.000000,47041.000000,45809.000000
50871.000000,55563.000000,46909.000000,45672.000000
50794.000000,55500.000000,46778.000000,45539.000000
50714.000000,55435.000000,46649.000000,45416.000000
50637.000000,55371.000000,46521.000000,45303.000000
50562.000000,55306.000000,46396.000000,45200.000000
50489.000000,55244.000000,46274.000000,45099.000000
50418.000000,55186.000000,46158.000000,45001.000000
50350.000000,55132.000000,46047.000000,44904.000000
50286.000000,55078.000000,45941.000000,44809.000000
50226.000000,55025.000000,45840.000000,44722.000000
50171.000000,54974.000000,45742.000000,44642.000000
50121.000000,54927.000000,45650.000000,44567.000000
50077.000000,54886.000000,45567.000000,44496.000000
50039.000000,54850.000000,45488.000000,44426.000000
50004.000000,54815.000000,45411.000000,44355.000000
49973.000000,54781.000000,45339.000000,44287.000000
49943.000000,54751.000000,45275.000000,44221.000000
49914.000000,54722.000000,45220.000000,44149.000000
49887.000000,54693.000000,45166.000000,44075.000000
49864.000000,54665.000000,45115.000000,44004.000000
49844.000000,54640.000000,45066.000000,43941.000000
49821.000000,54617.000000,45018.000000,43882.000000
49796.000000,54594.000000,44973.000000,43828.000000
49772.000000,54571.000000,44930.000000,43781.000000
49747.000000,54548.000000,44889.000000,43743.000000
49719.000000,54523.000000,44847.000000,43707.000000
49687.000000,54495.000000,44803.000000,43674.000000
49658.000000,54465.000000,44760.000000,43643.000000
49630.000000,54437.000000,44722.000000,43611.000000
49603.000000,54415.000000,44684.000000,43576.000000
49580.000000,54398.000000,44646.000000,43545.000000
49565.000000,54386.000000,44613.000000,43517.000000
49554.000000,54378.000000,44583.000000,43495.000000
49545.000000,54370.000000,44555.000000,43476.000000
49540.000000,54364.000000,44528.000000,43456.000000
49536.000000,54360.000000,44502.000000,43433.000000
49529.000000,54358.000000,44478.000000,43407.000000
49519.000000,54354.000000,44458.000000,43380.000000
49507.000000,54347.000000,44437.000000,43352.000000
49495.000000,54337.000000,44418.000000,43325.000000
49478.000000,54323.000000,44399.000000,43299.000000
49455.000000,54305.000000,44379.000000,43272.000000
49429.000000,54285.000000,44356.000000,43242.000000
49403.000000,54263.000000,44331.000000,43212.000000
49377.000000,54241.000000,44303.000000,43182.000000
49351.000000,54218.000000,44275.000000,43156.000000
49326.000000,54197.000000,44248.000000,43130.000000
49305.000000,54178.000000,44218.000000,43101.000000
49285.000000,54160.000000,44183.000000,43067.000000
49264.000000,54141.000000,44147.000000,43032.000000
49247.000000,54124.000000,44111.000000,43002.000000
49235.000000,54110.000000,44075.000000,42976.000000
49224.000000,54098.000000,44039.000000,42951.000000
49212.000000,54089.000000,44006.000000,42925.000000
49204.000000,54081.000000,43974.000000,42899.000000
49195.000000,54077.000000,43947.000000,42875.000000
49184.000000,54071.000000,43922.000000,42855.000000
49172.000000,54063.000000,43900.000000,42838.000000
49159.000000,54052.000000,43874.000000,42820.000000
49142.000000,54040.000000,43844.000000,42800.000000
49120.000000,54027.000000,43810.000000,42774.000000
49096.000000,54015.000000,43775.000000,42744.000000
49073.000000,54003.000000,43740.000000,42708.000000
49050.000000,53987.000000,43705.000000,42668.000000
49028.000000,53968.000000,43670.000000,42626.000000
49004.000000,53946.000000,43633.000000,42584.000000
48978.000000,53922.000000,43594.000000,42544.000000
48949.000000,53894.000000,43551.000000,42506.000000
48917.000000,53861.000000,43506.000000,42468.000000
48887.000000,53827.000000,43460.000000,42428.000000
48861.000000,53798.000000,43416.000000,42390.000000
48836.000000,53773.000000,43375.000000,42351.000000
48811.000000,53751.000000,43333.000000,42311.000000
48789.000000,53731.000000,43289.000000,42271.000000
48771.000000,53711.000000,43246.000000,42230.000000
48758.000000,53691.000000,43205.000000,42193.000000
48743.000000,53669.000000,43161.000000,42158.000000
48726.000000,53647.000000,43113.000000,42123.000000
48704.000000,53628.000000,43067.000000,42088.000000
48679.000000,53612.000000,43025.000000,42053.000000
48653.000000,53594.000000,42985.000000,42013.000000
48628.000000,53576.000000,42945.000000,41968.000000
48604.000000,53558.000000,42904.000000,41922.000000
48577.000000,53539.000000,42863.000000,41877.000000
48545.000000,53516.000000,42819.000000,41830.000000
48511.000000,53490.000000,42768.000000,41779.000000
48478.000000,53463.000000,42713.000000,41728.000000
48441.000000,53432.000000,42659.000000,41681.000000
48403.000000,53398.000000,42605.000000,41640.000000
48369.000000,53369.000000,42553.000000,41606.000000
48340.000000,53346.000000,42509.000000,41581.000000
48319.000000,53331.000000,42483.000000,41572.000000
48309.000000,53327.000000,42478.000000,41579.000000
48319.000000,53342.000000,42500.000000,41608.000000
48355.000000,53379.000000,42561.000000,41668.000000
48424.000000,53441.000000,42671.000000,41768.000000
48530.000000,53534.000000,42840.000000,41921.000000
48681.000000,53667.000000,43078.000000,42138.000000
48878.000000,53840.000000,43397.000000,42426.000000
49118.000000,54053.000000,43797.000000,42786.000000
49398.000000,54304.000000,44270.000000,43214.000000
49717.000000,54589.000000,44806.000000,43695.000000
50062.000000,54901.000000,45391.000000,44220.000000
50421.000000,55228.000000,46004.000000,44776.000000
50783.000000,55558.000000,46623.000000,45348.000000
51141.000000,55882.000000,47226.000000,45917.000000
51484.000000,56194.000000,47800.000000,46463.000000
51804.000000,56488.000000,48335.000000,46973.000000
52095.000000,56757.000000,48821.000000,47439.000000
52359.000000,56996.000000,49252.000000,47860.000000
52594.000000,57207.000000,49627.000000,48232.000000
52794.000000,57386.000000,49943.000000,48552.000000
52963.000000,57534.000000,50204.000000,48817.000000
53107.000000,57657.000000,50420.000000,49034.000000
53225.000000,57757.000000,50597.000000,49211.000000
53318.000000,57834.000000,50734.000000,49351.000000
53388.000000,57888.000000,50834.000000,49452.000000
53436.000000,57923.000000,50903.000000,49520.000000
53462.000000,57942.000000,50945.000000,49564.000000
53470.000000,57949.000000,50962.000000,49586.000000
53465.000000,57943.000000,50957.000000,49587.000000
53450.000000,57926.000000,50936.000000,49570.000000
53430.000000,57900.000000,50902.000000,49536.000000
53404.000000,57868.000000,50858.000000,49492.000000
53370.000000,57833.000000,50805.000000,49439.000000
53329.000000,57797.000000,50746.000000,49380.000000
53283.000000,57758.000000,50680.000000,49315.000000
53229.000000,57714.000000,50606.000000,49248.000000
53170.000000,57663.000000,50526.000000,49181.000000
53108.000000,57605.000000,50439.000000,49116.000000
53043.000000,57545.000000,50350.000000,49049.000000
52975.000000,57486.000000,50258.000000,48975.000000
52911.000000,57429.000000,50164.000000,48893.000000
52852.000000,57374.000000,50068.000000,48807.000000
52793.000000,57315.000000,49971.000000,48721.000000
52732.000000,57251.000000,49870.000000,48631.000000
52669.000000,57183.000000,49763.000000,48534.000000
52605.000000,57116.000000,49651.000000,48430.000000
52535.000000,57051.000000,49532.000000,48317.000000
52459.000000,56985.000000,49408.000000,48197.000000
52381.000000,56919.000000,49280.000000,48075.000000
52299.000000,56851.000000,49151.000000,47955.000000
52215.000000,56782.000000,49024.000000,47833.000000
52133.000000,56714.000000,48898.000000,47710.000000
52055.000000,56647.000000,48775.000000,47589.000000
51981.000000,56582.000000,48661.000000,47474.000000
51911.000000,56524.000000,48562.000000,47367.000000
51853.000000,56476.000000,48478.000000,47275.000000
51811.000000,56440.000000,48411.000000,47205.000000
51785.000000,56415.000000,48363.000000,47159.000000
51769.000000,56399.000000,48332.000000,47135.000000
51761.000000,56389.000000,48318.000000,47128.000000
51761.000000,56384.000000,48321.000000,47132.000000
51770.000000,56388.000000,48340.000000,47150.000000
51786.000000,56401.000000,48374.000000,47186.000000
51813.000000,56422.000000,48423.000000,47234.000000
51851.000000,56449.000000,48484.000000,47296.000000
51897.000000,56483.000000,48559.000000,47373.000000
51946.000000,56522.000000,48643.000000,47463.000000
51998.000000,56567.000000,48731.000000,47553.000000
52051.000000,56615.000000,48818.000000,47643.000000
52107.000000,56667.000000,48903.000000,47732.000000
52163.000000,56717.000000,48984.000000,47818.000000
52218.000000,56762.000000,49056.000000,47896.000000
52269.000000,56801.000000,49121.000000,47963.000000
52314.000000,56835.000000,49178.000000,48018.000000
52349.000000,56862.000000,49223.000000,48052.000000
52370.000000,56882.000000,49255.000000,48066.000000
52381.000000,56896.000000,49274.000000,48071.000000
52380.000000,56905.000000,49280.000000,48068.000000
52370.000000,56906.000000,49273.000000,48050.000000
52354.000000,56897.000000,49251.000000,48018.000000
52334.000000,56881.000000,49216.000000,47979.000000
52305.000000,56857.000000,49169.000000,47934.000000
52267.000000,56825.000000,49108.000000,47881.000000
52223.000000,56783.000000,49035.000000,47820.000000
52172.000000,56734.000000,48951.000000,47750.000000
52113.000000,56678.000000,48859.000000,47666.000000
52045.000000,56619.000000,48760.000000,47571.000000
51975.000000,56557.000000,48656.000000,47467.000000
51906.000000,56494.000000,48547.000000,47362.000000
51833.000000,56427.000000,48431.000000,47258.000000
51755.000000,56356.000000,48308.000000,47151.000000
51676.000000,56284.000000,48180.000000,47037.000000
51595.000000,56213.000000,48052.000000,46919.000000
51512.000000,56141.000000,47923.000000,46797.000000
51431.000000,56068.000000,47789.000000,46671.000000
51354.000000,55995.000000,47651.000000,46542.000000
51278.000000,55924.000000,47514.000000,46413.000000
51202.000000,55855.000000,47381.000000,46288.000000
51127.000000,55787.000000,47251.000000,46170.000000
51055.000000,55723.000000,47126.000000,46055.000000
50987.000000,55662.000000,47009.000000,45942.000000
50919.000000,55603.000000,46899.000000,45835.000000
50854.000000,55546.000000,46795.000000,45732.000000
50795.000000,55491.000000,46695.000000,45632.000000
50739.000000,55439.000000,46600.000000,45536.000000
50687.000000,55390.000000,46511.000000,45445.000000
50641.000000,55345.000000,46425.000000,45357.000000
50598.000000,55306.000000,46342.000000,45268.000000
50554.000000,55270.000000,46262.000000,45180.000000
50509.000000,55234.000000,46186.000000,45091.000000
50466.000000,55197.000000,46115.000000,45008.000000
50425.000000,55162.000000,46047.000000,44934.000000
50382.000000,55126.000000,45982.000000,44868.000000
50337.000000,55090.000000,45919.000000,44806.000000
50295.000000,55055.000000,45856.000000,44747.000000
50257.000000,55025.000000,45797.000000,44692.000000
50219.000000,54999.000000,45743.000000,44643.000000
50182.000000,54976.000000,45696.000000,44601.000000
50149.000000,54951.000000,45650.000000,44562.000000
50118.000000,54921.000000,45601.000000,44524.000000
50086.000000,54889.000000,45550.000000,44484.000000
50055.000000,54857.000000,45498.000000,44442.000000
50029.000000,54828.000000,45445.000000,44401.000000
50007.000000,54802.000000,45392.000000,44360.000000
49982.000000,54775.000000,45339.000000,44315.000000
49953.000000,54746.000000,45285.000000,44269.000000
49924.000000,54718.000000,45234.000000,44220.000000
49895.000000,54694.000000,45188.000000,44171.000000
49864.000000,54673.000000,45146.000000,44124.000000
49835.000000,54654.000000,45108.000000,44079.000000
49810.000000,54636.000000,45070.000000,44036.000000
49786.000000,54619.000000,45032.000000,43995.000000
49761.000000,54598.000000,44992.000000,43953.000000
49735.000000,54574.000000,44948.000000,43907.000000
49711.000000,54551.000000,44903.000000,43859.000000
49688.000000,54532.000000,44859.000000,43813.000000
49664.000000,54516.000000,44815.000000,43769.000000
49638.000000,54498.000000,44771.000000,43723.000000
49609.000000,54475.000000,44725.000000,43673.000000
49577.000000,54445.000000,44678.000000,43624.000000
49540.000000,54411.000000,44628.000000,43574.000000
49502.000000,54374.000000,44574.000000,43525.000000
49465.000000,54338.000000,44520.000000,43476.000000
49427.000000,54304.000000,44467.000000,43431.000000
49386.000000,54271.000000,44416.000000,43389.000000
49345.000000,54239.000000,44363.000000,43348.000000
49308.000000,54209.000000,44311.000000,43305.000000
49274.000000,54183.000000,44262.000000,43264.000000
49240.000000,54161.000000,44214.000000,43225.000000
49211.000000,54137.000000,44165.000000,43187.000000
49187.000000,54113.000000,44117.000000,43149.000000
49166.000000,54087.000000,44073.000000,43112.000000
49146.000000,54060.000000,44032.000000,43072.000000
49130.000000,54036.000000,43990.000000,43030.000000
49118.000000,54014.000000,43948.000000,42988.000000
49105.000000,53993.000000,43908.000000,42947.000000
49089.000000,53972.000000,43868.000000,42900.000000
49070.000000,53950.000000,43823.000000,42848.000000
49051.000000,53927.000000,43775.000000,42792.000000
49028.000000,53904.000000,43728.000000,42730.000000
48999.000000,53879.000000,43679.000000,42665.000000
48966.000000,53853.000000,43628.000000,42600.000000
48930.000000,53825.000000,43576.000000,42539.000000
48891.000000,53794.000000,43523.000000,42481.000000
48852.000000,53763.000000,43467.000000,42425.000000
48814.000000,53733.000000,43405.000000,42370.000000
48777.000000,53703.000000,43344.000000,42321.000000
48739.000000,53669.000000,43284.000000,42273.000000
48700.000000,53632.000000,43220.000000,42221.000000
48662.000000,53593.000000,43152.000000,42165.000000
48626.000000,53551.000000,43086.000000,42108.000000
48587.000000,53507.000000,43021.000000,42049.000000
48547.000000,53464.000000,42956.000000,41985.000000
48510.000000,53425.000000,42893.000000,41923.000000
48476.000000,53392.000000,42831.000000,41870.000000
48440.000000,53360.000000,42770.000000,41818.000000
48401.000000,53328.000000,42707.000000,41761.000000
48364.000000,53299.000000,42642.000000,41703.000000
48330.000000,53270.000000,42580.000000,41649.000000
48297.000000,53240.000000,42524.000000,41600.000000
48268.000000,53212.000000,42472.000000,41553.000000
48243.000000,53187.000000,42427.000000,41507.000000
48221.000000,53167.000000,42390.000000,41465.000000
48200.000000,53153.000000,42363.000000,41429.000000
48188.000000,53147.000000,42353.000000,41410.000000
48190.000000,53151.000000,42365.000000,41414.000000
48208.000000,53171.000000,42408.000000,41446.000000
48246.000000,53210.000000,42486.000000,41514.000000
48312.000000,53278.000000,42610.000000,41626.000000
48410.000000,53378.000000,42791.000000,41789.000000
48543.000000,53510.000000,43039.000000,42009.000000
48717.000000,53677.000000,43359.000000,42292.000000
48937.000000,53881.000000,43749.000000,42643.000000
49203.000000,54124.000000,44208.000000,43068.000000
49505.000000,54399.000000,44727.000000,43553.000000
49833.000000,54695.000000,45288.000000,44079.000000
50179.000000,55006.000000,45871.000000,44631.000000
50529.000000,55323.000000,46457.000000,45190.000000
50870.000000,55634.000000,47025.000000,45735.000000
51193.000000,55929.000000,47559.000000,46249.000000
51494.000000,56202.000000,48050.000000,46724.000000
51771.000000,56449.000000,48493.000000,47158.000000
52021.000000,56670.000000,48888.000000,47545.000000
52238.000000,56859.000000,49232.000000,47876.000000
52423.000000,57017.000000,49522.000000,48151.000000
52578.000000,57150.000000,49760.000000,48377.000000
52704.000000,57260.000000,49950.000000,48557.000000
52803.000000,57345.000000,50096.000000,48693.000000
52877.000000,57409.000000,50203.000000,48787.000000
52930.000000,57455.000000,50279.000000,48849.000000
52963.000000,57485.000000,50328.000000,48886.000000
52977.000000,57497.000000,50350.000000,48902.000000
52976.000000,57492.000000,50348.000000,48899.000000
52965.000000,57475.000000,50327.000000,48876.000000
52942.000000,57447.000000,50289.000000,48833.000000
52903.000000,57410.000000,50233.000000,48773.000000
52852.000000,57365.000000,50160.000000,48699.000000
52791.000000,57311.000000,50074.000000,48614.000000
52720.000000,57251.000000,49976.000000,48520.000000
52642.000000,57186.000000,49868.000000,48417.000000
52561.000000,57118.000000,49754.000000,48311.000000
52480.000000,57046.000000,49635.000000,48204.000000
52398.000000,56971.000000,49513.000000,48098.000000
52314.000000,56893.000000,49386.000000,47986.000000
52232.000000,56811.000000,49257.000000,47867.000000
52148.000000,56729.000000,49125.000000,47739.000000
52059.000000,56644.000000,48984.000000,47605.000000
51964.000000,56557.000000,48832.000000,47463.000000
51865.000000,56467.000000,48674.000000,47315.000000
51763.000000,56376.000000,48512.000000,47164.000000
51659.000000,56284.000000,48346.000000,47011.000000
51557.000000,56191.000000,48175.000000,46852.000000
51458.000000,56100.000000,48003.000000,46692.000000
51360.000000,56010.000000,47835.000000,46537.000000
51263.000000,55925.000000,47677.000000,46387.000000
51170.000000,55846.000000,47529.000000,46245.000000
51085.000000,55772.000000,47390.000000,46113.000000
51008.000000,55704.000000,47262.000000,45995.000000
50942.000000,55646.000000,47150.000000,45890.000000
50889.000000,55600.000000,47056.000000,45800.000000
50850.000000,55566.000000,46984.000000,45731.000000
50821.000000,55537.000000,46934.000000,45686.000000
50802.000000,55513.000000,46906.000000,45667.000000
50796.000000,55503.000000,46899.000000,45674.000000
50802.000000,55509.000000,46909.000000,45701.000000
50820.000000,55528.000000,46938.000000,45741.000000
50850.000000,55558.000000,46985.000000,45795.000000
50893.000000,55598.000000,47049.000000,45859.000000
50949.000000,55650.000000,47130.000000,45933.000000
51008.000000,55709.000000,47222.000000,46014.000000
51067.000000,55769.000000,47321.000000,46095.000000
51128.000000,55824.000000,47422.000000,46174.000000
51189.000000,55878.000000,47522.000000,46255.000000
51248.000000,55932.000000,47623.000000,46336.000000
51303.000000,55981.000000,47720.000000,46414.000000
51354.000000,56025.000000,47807.000000,46489.000000
51400.000000,56060.000000,47882.000000,46556.000000
51435.000000,56086.000000,47945.000000,46612.000000
51460.000000,56105.000000,47992.000000,46652.000000
51473.000000,56117.000000,48023.000000,46674.000000
51477.000000,56121.000000,48037.000000,46680.000000
51472.000000,56116.000000,48033.000000,46675.000000
51459.000000,56102.000000,48013.000000,46656.000000
51439.000000,56079.000000,47976.000000,46624.000000
51411.000000,56047.000000,47922.000000,46583.000000
51372.000000,56008.000000,47855.000000,46533.000000
51324.000000,55964.000000,47777.000000,46473.000000
51274.000000,55916.000000,47689.000000,46402.000000
51219.000000,55865.000000,47592.000000,46322.000000
51159.000000,55811.000000,47489.000000,46235.000000
51096.000000,55753.000000,47379.000000,46137.000000
51031.000000,55692.000000,47264.000000,46029.000000
50963.000000,55630.000000,47146.000000,45916.000000
50890.000000,55564.000000,47027.000000,45801.000000
50815.000000,55493.000000,46905.000000,45684.000000
50741.000000,55423.000000,46782.000000,45563.000000
50669.000000,55356.000000,46658.000000,45436.000000
50594.000000,55290.000000,46532.000000,45303.000000
50517.000000,55224.000000,46408.000000,45168.000000
50443.000000,55155.000000,46289.000000,45037.000000
50372.000000,55086.000000,46177.000000,44916.000000
50302.000000,55019.000000,46067.000000,44802.000000
50238.000000,54957.000000,45960.000000,44695.000000
50178.000000,54900.000000,45856.000000,44594.000000
50119.000000,54846.000000,45755.000000,44498.000000
50061.000000,54794.000000,45655.000000,44405.000000
50004.000000,54742.000000,45554.000000,44319.000000
49949.000000,54692.000000,45455.000000,44239.000000
49894.000000,54647.000000,45359.000000,44162.000000
49839.000000,54609.000000,45268.000000,44091.000000
49788.000000,54574.000000,45183.000000,44025.000000
49742.000000,54541.000000,45105.000000,43964.000000
49700.000000,54507.000000,45034.000000,43904.000000
49663.000000,54474.000000,44968.000000,43845.000000
49633.000000,54442.000000,44905.000000,43788.000000
49607.000000,54412.000000,44846.000000,43734.000000
49581.000000,54383.000000,44788.000000,43683.000000
49551.000000,54355.000000,44733.000000,43633.000000
49519.000000,54327.000000,44682.000000,43585.000000
49486.000000,54301.000000,44636.000000,43540.000000
49452.000000,54277.000000,44596.000000,43498.000000
49421.000000,54256.000000,44558.000000,43460.000000
49398.000000,54238.000000,44524.000000,43428.000000
49377.000000,54222.000000,44494.000000,43401.000000
49358.000000,54206.000000,44467.000000,43372.000000
49340.000000,54190.000000,44440.000000,43337.000000
49326.000000,54176.000000,44415.000000,43296.000000
49315.000000,54162.000000,44391.000000,43255.000000
49302.000000,54151.000000,44368.000000,43219.000000
49290.000000,54143.000000,44345.000000,43191.000000
49280.000000,54134.000000,44321.000000,43168.000000
49269.000000,54125.000000,44295.000000,43146.000000
49253.000000,54115.000000,44268.000000,43122.000000
49237.000000,54101.000000,44240.000000,43099.000000
49222.000000,54085.000000,44213.000000,43084.000000
49205.000000,54068.000000,44189.000000,43074.000000
49185.000000,54049.000000,44166.000000,43062.000000
49163.000000,54030.000000,44142.000000,43044.000000
49145.000000,54013.000000,44114.000000,43024.000000
49130.000000,53999.000000,44083.000000,43005.000000
49120.000000,53989.000000,44054.000000,42984.000000
49111.000000,53978.000000,44026.000000,42965.000000
49104.000000,53968.000000,44003.000000,42951.000000
49098.000000,53960.000000,43982.000000,42937.000000
49089.000000,53953.000000,43963.000000,42921.000000
49081.000000,53947.000000,43943.000000,42903.000000
49075.000000,53943.000000,43922.000000,42882.000000
49071.000000,53938.000000,43903.000000,42857.000000
49065.000000,53934.000000,43884.000000,42828.000000
49058.000000,53932.000000,43865.000000,42797.000000
49047.000000,53929.000000,43845.000000,42765.000000
49034.000000,53921.000000,43821.000000,42735.000000
49020.000000,53907.000000,43797.000000,42705.000000
49009.000000,53892.000000,43773.000000,42678.000000
48998.000000,53876.000000,43748.000000,42656.000000
48982.000000,53857.000000,43719.000000,42634.000000
48960.000000,53833.000000,43686.000000,42607.000000
48935.000000,53807.000000,43650.000000,42578.000000
48909.000000,53782.000000,43612.000000,42550.000000
48880.000000,53755.000000,43572.000000,42522.000000
48852.000000,53731.000000,43529.000000,42493.000000
48827.000000,53711.000000,43483.000000,42460.000000
48804.000000,53693.000000,43436.000000,42423.000000
48779.000000,53671.000000,43389.000000,42384.000000
48753.000000,53647.000000,43341.000000,42340.000000
48731.000000,53625.000000,43290.000000,42299.000000
48714.000000,53606.000000,43238.000000,42265.000000
48695.000000,53589.000000,43188.000000,42232.000000
48676.000000,53573.000000,43140.000000,42191.000000
48660.000000,53558.000000,43095.000000,42142.000000
48645.000000,53542.000000,43052.000000,42097.000000
48628.000000,53526.000000,43012.000000,42061.000000
48613.000000,53511.000000,42975.000000,42029.000000
48601.000000,53498.000000,42942.000000,41996.000000
48591.000000,53488.000000,42918.000000,41964.000000
48587.000000,53485.000000,42911.000000,41943.000000
48593.000000,53492.000000,42923.000000,41943.000000
48613.000000,53512.000000,42958.000000,41970.000000
48652.000000,53549.000000,43026.000000,42032.000000
48711.000000,53607.000000,43137.000000,42133.000000
48803.000000,53691.000000,43298.000000,42284.000000
48934.000000,53808.000000,43523.000000,42495.000000
49107.000000,53963.000000,43817.000000,42774.000000
49323.000000,54157.000000,44184.000000,43121.000000
49585.000000,54388.000000,44621.000000,43537.000000
49886.000000,54655.000000,45118.000000,44016.000000
50219.000000,54950.000000,45662.000000,44539.000000
50570.000000,55265.000000,46234.000000,45086.000000
50927.000000,55588.000000,46814.000000,45633.000000
51282.000000,55910.000000,47381.000000,46168.000000
51624.000000,56222.000000,47921.000000,46683.000000
51943.000000,56512.000000,48426.000000,47166.000000
52236.000000,56778.000000,48887.000000,47611.000000
52500.000000,57017.000000,49300.000000,48010.000000
52731.000000,57226.000000,49661.000000,48358.000000
52929.000000,57404.000000,49971.000000,48652.000000
53093.000000,57550.000000,50230.000000,48894.000000
53225.000000,57666.000000,50442.000000,49089.000000
53326.000000,57757.000000,50609.000000,49240.000000
53401.000000,57826.000000,50732.000000,49349.000000
53456.000000,57873.000000,50814.000000,49422.000000
53490.000000,57899.000000,50864.000000,49462.000000
53503.000000,57909.000000,50887.000000,49475.000000
53500.000000,57905.000000,50889.000000,49468.000000
53487.000000,57891.000000,50873.000000,49443.000000
53465.000000,57868.000000,50845.000000,49404.000000
53432.000000,57839.000000,50806.000000,49359.000000
53390.000000,57803.000000,50752.000000,49309.000000
53344.000000,57760.000000,50686.000000,49255.000000
53294.000000,57714.000000,50608.000000,49200.000000
53238.000000,57664.000000,50520.000000,49142.000000
53181.000000,57611.000000,50426.000000,49079.000000
53127.000000,57561.000000,50329.000000,49016.000000
53072.000000,57512.000000,50229.000000,48950.000000
53014.000000,57458.000000,50122.000000,48874.000000
52952.000000,57397.000000,50007.000000,48785.000000
52889.000000,57330.000000,49885.000000,48682.000000
52820.000000,57260.000000,49755.000000,48564.000000
52741.000000,57182.000000,49613.000000,48433.000000
52652.000000,57098.000000,49456.000000,48290.000000
52555.000000,57008.000000,49287.000000,48134.000000
52452.000000,56913.000000,49114.000000,47970.000000
52342.000000,56814.000000,48935.000000,47797.000000
52231.000000,56712.000000,48752.000000,47616.000000
52125.000000,56615.000000,48571.000000,47436.000000
52025.000000,56524.000000,48400.000000,47263.000000
51930.000000,56438.000000,48241.000000,47098.000000
51842.000000,56359.000000,48098.000000,46945.000000
51766.000000,56290.000000,47974.000000,46811.000000
51700.000000,56230.000000,47868.000000,46700.000000
51645.000000,56179.000000,47782.000000,46614.000000
51606.000000,56141.000000,47717.000000,46560.000000
51584.000000,56116.000000,47677.000000,46536.000000
51576.000000,56106.000000,47663.000000,46539.000000
51578.000000,56109.000000,47672.000000,46561.000000
51595.000000,56124.000000,47703.000000,46602.000000
51626.000000,56154.000000,47758.000000,46667.000000
51667.000000,56195.000000,47834.000000,46751.000000
51718.000000,56244.000000,47928.000000,46846.000000
51779.000000,56303.000000,48037.000000,46951.000000
51851.000000,56369.000000,48155.000000,47064.000000
51926.000000,56437.000000,48279.000000,47181.000000
52001.000000,56505.000000,48405.000000,47297.000000
52074.000000,56570.000000,48528.000000,47414.000000
52147.000000,56632.000000,48645.000000,47528.000000
52215.000000,56688.000000,48750.000000,47636.000000
52275.000000,56736.000000,48843.000000,47732.000000
52329.000000,56776.000000,48923.000000,47813.000000
52374.000000,56810.000000,48989.000000,47878.000000
52406.000000,56838.000000,49038.000000,47925.000000
52427.000000,56860.000000,49068.000000,47958.000000
52442.000000,56874.000000,49081.000000,47981.000000
52450.000000,56879.000000,49079.000000,47990.000000
52446.000000,56870.000000,49062.000000,47978.000000
52431.000000,56852.000000,49031.000000,47941.000000
52407.000000,56825.000000,48985.000000,47886.000000
52373.000000,56791.000000,48925.000000,47819.000000
52329.000000,56750.000000,48851.000000,47740.000000
52278.000000,56703.000000,48768.000000,47654.000000
52223.000000,56651.000000,48677.000000,47568.000000
52162.000000,56597.000000,48579.000000,47481.000000
52092.000000,56540.000000,48474.000000,47388.000000
52018.000000,56479.000000,48358.000000,47285.000000
51943.000000,56415.000000,48236.000000,47174.000000
51865.000000,56347.000000,48113.000000,47057.000000
51785.000000,56278.000000,47989.000000,46933.000000
51707.000000,56207.000000,47861.000000,46801.000000
51632.000000,56137.000000,47729.000000,46661.000000
51558.000000,56067.000000,47597.000000,46519.000000
51483.000000,56000.000000,47466.000000,46379.000000
51411.000000,55935.000000,47341.000000,46246.000000
51343.000000,55873.000000,47223.000000,46121.000000
51273.000000,55813.000000,47108.000000,46002.000000
51203.000000,55754.000000,46999.000000,45893.000000
51137.000000,55694.000000,46895.000000,45789.000000
51075.000000,55635.000000,46794.000000,45691.000000
51016.000000,55577.000000,46696.000000,45604.000000
50959.000000,55523.000000,46603.000000,45524.000000
50906.000000,55476.000000,46513.000000,45447.000000
50857.000000,55435.000000,46427.000000,45373.000000
50810.000000,55396.000000,46346.000000,45300.000000
50760.000000,55356.000000,46266.000000,45226.000000
50712.000000,55318.000000,46187.000000,45152.000000
50669.000000,55281.000000,46109.000000,45084.000000
50629.000000,55244.000000,46032.000000,45018.000000
50592.000000,55209.000000,45955.000000,44954.000000
50558.000000,55176.000000,45881.000000,44893.000000
50526.000000,55144.000000,45813.000000,44839.000000
50491.000000,55111.000000,45750.000000,44790.000000
50455.000000,55080.000000,45691.000000,44740.000000
50422.000000,55051.000000,45637.000000,44685.000000
50393.000000,55026.000000,45586.000000,44633.000000
50365.000000,55002.000000,45537.000000,44586.000000
50339.000000,54978.000000,45489.000000,44547.000000
50315.000000,54956.000000,45441.000000,44515.000000
50291.000000,54935.000000,45395.000000,44489.000000
50264.000000,54913.000000,45352.000000,44462.000000
50237.000000,54891.000000,45314.000000,44430.000000
50213.000000,54867.000000,45278.000000,44393.000000
50191.000000,54845.000000,45244.000000,44358.000000
50168.000000,54822.000000,45211.000000,44324.000000
50146.000000,54800.000000,45179.000000,44290.000000
50128.000000,54781.000000,45150.000000,44259.000000
50113.000000,54766.000000,45123.000000,44235.000000
50097.000000,54752.000000,45097.000000,44212.000000
50079.000000,54738.000000,45070.000000,44187.000000
50063.000000,54724.000000,45041.000000,44161.000000
50046.000000,54710.000000,45009.000000,44138.000000
50025.000000,54694.000000,44978.000000,44118.000000
50005.000000,54678.000000,44948.000000,44098.000000
49991.000000,54667.000000,44919.000000,44076.000000
49982.000000,54658.000000,44894.000000,44051.000000
49972.000000,54648.000000,44871.000000,44024.000000
49963.000000,54638.000000,44850.000000,44001.000000
49956.000000,54627.000000,44829.000000,43980.000000
49948.000000,54614.000000,44807.000000,43955.000000
49937.000000,54601.000000,44779.000000,43926.000000
49927.000000,54591.000000,44749.000000,43890.000000
49918.000000,54583.000000,44719.000000,43851.000000
49907.000000,54574.000000,44689.000000,43818.000000
49896.000000,54561.000000,44657.000000,43789.000000
49884.000000,54547.000000,44622.000000,43760.000000
49870.000000,54528.000000,44585.000000,43727.000000
49850.000000,54506.000000,44549.000000,43690.000000
49826.000000,54480.000000,44509.000000,43651.000000
49798.000000,54453.000000,44465.000000,43609.000000
49768.000000,54425.000000,44419.000000,43567.000000
49732.000000,54397.000000,44371.000000,43521.000000
49695.000000,54368.000000,44317.000000,43466.000000
49659.000000,54340.000000,44261.000000,43407.000000
49627.000000,54314.000000,44205.000000,43349.000000
49592.000000,54286.000000,44153.000000,43294.000000
49556.000000,54255.000000,44100.000000,43240.000000
49521.000000,54223.000000,44046.000000,43179.000000
49488.000000,54194.000000,43992.000000,43118.000000
49455.000000,54168.000000,43941.000000,43065.000000
49423.000000,54145.000000,43891.000000,43016.000000
49392.000000,54123.000000,43842.000000,42967.000000
49359.000000,54100.000000,43792.000000,42921.000000
49328.000000,54077.000000,43744.000000,42881.000000
49305.000000,54058.000000,43707.000000,42850.000000
49295.000000,54046.000000,43689.000000,42834.000000
49298.000000,54045.000000,43695.000000,42834.000000
49315.000000,54062.000000,43733.000000,42862.000000
49357.000000,54103.000000,43817.000000,42933.000000
49436.000000,54173.000000,43957.000000,43057.000000
49553.000000,54280.000000,44165.000000,43244.000000
49710.000000,54424.000000,44448.000000,43501.000000
49914.000000,54611.000000,44811.000000,43832.000000
50166.000000,54841.000000,45250.000000,44235.000000
50461.000000,55109.000000,45754.000000,44705.000000
50791.000000,55409.000000,46305.000000,45227.000000
51146.000000,55730.000000,46887.000000,45780.000000
51516.000000,56061.000000,47483.000000,46349.000000
51887.000000,56389.000000,48071.000000,46916.000000
52243.000000,56705.000000,48633.000000,47459.000000
52576.000000,57003.000000,49160.000000,47962.000000
52883.000000,57279.000000,49643.000000,48422.000000
53158.000000,57527.000000,50077.000000,48836.000000
53395.000000,57742.000000,50456.000000,49199.000000
53599.000000,57924.000000,50779.000000,49508.000000
53771.000000,58075.000000,51049.000000,49769.000000
53909.000000,58196.000000,51270.000000,49982.000000
54020.000000,58293.000000,51449.000000,50152.000000
54110.000000,58371.000000,51590.000000,50288.000000
54178.000000,58431.000000,51699.000000,50392.000000
54222.000000,58472.000000,51778.000000,50463.000000
54249.000000,58497.000000,51826.000000,50507.000000
54264.000000,58507.000000,51850.000000,50534.000000
54271.000000,58504.000000,51855.000000,50541.000000
54267.000000,58491.000000,51844.000000,50531.000000
54252.000000,58470.000000,51820.000000,50507.000000
54231.000000,58443.000000,51783.000000,50470.000000
54203.000000,58411.000000,51734.000000,50425.000000
54165.000000,58374.000000,51674.000000,50378.000000
54121.000000,58334.000000,51606.000000,50329.000000
54072.000000,58293.000000,51534.000000,50277.000000
54021.000000,58252.000000,51458.000000,50218.000000
53968.000000,58210.000000,51379.000000,50153.000000
53914.000000,58166.000000,51299.000000,50085.000000
53858.000000,58119.000000,51214.000000,50011.000000
53797.000000,58070.000000,51125.000000,49932.000000
53731.000000,58017.000000,51030.000000,49851.000000
53666.000000,57962.000000,50932.000000,49764.000000
53602.000000,57899.000000,50829.000000,49670.000000
53534.000000,57827.000000,50717.000000,49569.000000
53459.000000,57748.000000,50593.000000,49459.000000
53380.000000,57663.000000,50458.000000,49342.000000
53298.000000,57575.000000,50314.000000,49221.000000
53210.000000,57487.000000,50168.000000,49095.000000
53118.000000,57400.000000,50020.000000,48964.000000
53027.000000,57317.000000,49875.000000,48832.000000
52943.000000,57242.000000,49738.000000,48706.000000
52865.000000,57176.000000,49612.000000,48587.000000
52795.000000,57120.000000,49499.000000,48476.000000
52737.000000,57073.000000,49404.000000,48376.000000
52691.000000,57037.000000,49326.000000,48292.000000
52656.000000,57013.000000,49268.000000,48225.000000
52629.000000,56996.000000,49230.000000,48175.000000
52615.000000,56986.000000,49211.000000,48142.000000
52613.000000,56983.000000,49210.000000,48131.000000
52621.000000,56987.000000,49226.000000,48141.000000
52637.000000,56998.000000,49259.000000,48167.000000
52667.000000,57017.000000,49307.000000,48206.000000
52708.000000,57046.000000,49369.000000,48265.000000
52753.000000,57084.000000,49443.000000,48339.000000
52798.000000,57127.000000,49523.000000,48421.000000
52847.000000,57176.000000,49607.000000,48512.000000
52900.000000,57230.000000,49697.000000,48612.000000
52954.000000,57286.000000,49788.000000,48715.000000
53007.000000,57342.000000,49875.000000,48813.000000
53060.000000,57396.000000,49955.000000,48902.000000
53109.000000,57444.000000,50029.000000,48979.000000
53147.000000,57481.000000,50093.000000,49044.000000
53177.000000,57511.000000,50145.000000,49105.000000
53202.000000,57534.000000,50186.000000,49159.000000
53222.000000,57549.000000,50214.000000,49200.000000
53233.000000,57554.000000,50229.000000,49221.000000
53236.000000,57547.000000,50230.000000,49220.000000
53230.000000,57531.000000,50219.000000,49196.000000
53215.000000,57510.000000,50195.000000,49153.000000
53186.000000,57484.000000,50158.000000,49098.000000
53149.000000,57454.000000,50107.000000,49036.000000
53110.000000,57423.000000,50047.000000,48968.000000
53066.000000,57388.000000,49978.000000,48895.000000
53016.000000,57346.000000,49899.000000,48815.000000
52963.000000,57298.000000,49813.000000,48731.000000
52906.000000,57241.000000,49718.000000,48639.000000
52845.000000,57177.000000,49613.000000,48535.000000
52779.000000,57109.000000,49496.000000,48419.000000
52708.000000,57042.000000,49375.000000,48292.000000
52632.000000,56974.000000,49251.000000,48161.000000
52552.000000,56906.000000,49126.000000,48031.000000
52468.000000,56836.000000,48995.000000,47905.000000
52383.000000,56762.000000,48861.000000,47780.000000
52299.000000,56688.000000,48730.000000,47659.000000
52213.000000,56614.000000,48604.000000,47545.000000
52127.000000,56541.000000,48480.000000,47435.000000
52044.000000,56471.000000,48355.000000,47330.000000
51964.000000,56403.000000,48230.000000,47231.000000
51887.000000,56336.000000,48106.000000,47133.000000
51811.000000,56268.000000,47983.000000,47030.000000
51739.000000,56200.000000,47861.000000,46928.000000
51675.000000,56137.000000,47741.000000,46829.000000
51615.000000,56076.000000,47624.000000,46734.000000
51559.000000,56016.000000,47513.000000,46642.000000
51507.000000,55958.000000,47412.000000,46552.000000
51459.000000,55907.000000,47317.000000,46463.000000
51414.000000,55863.000000,47228.000000,46374.000000
51368.000000,55823.000000,47141.000000,46287.000000
51322.000000,55785.000000,47060.000000,46204.000000
51280.000000,55751.000000,46989.000000,46131.000000
51240.000000,55720.000000,46926.000000,46066.000000
51204.000000,55689.000000,46868.000000,46003.000000
51174.000000,55659.000000,46814.000000,45938.000000
51147.000000,55631.000000,46762.000000,45874.000000
51121.000000,55607.000000,46713.000000,45812.000000
51096.000000,55585.000000,46668.000000,45749.000000
51070.000000,55565.000000,46629.000000,45689.000000
51039.000000,55544.000000,46589.000000,45633.000000
51005.000000,55521.000000,46547.000000,45578.000000
50971.000000,55496.000000,46503.000000,45523.000000
50940.000000,55469.000000,46454.000000,45469.000000
50910.000000,55444.000000,46405.000000,45419.000000
50883.000000,55423.000000,46358.000000,45376.000000
50859.000000,55404.000000,46314.000000,45339.000000
50839.000000,55387.000000,46275.000000,45306.000000
50818.000000,55372.000000,46237.000000,45278.000000
50795.000000,55355.000000,46197.000000,45253.000000
50772.000000,55332.000000,46160.000000,45227.000000
50752.000000,55308.000000,46123.000000,45198.000000
50732.000000,55285.000000,46083.000000,45166.000000
50712.000000,55263.000000,46041.000000,45132.000000
50690.000000,55241.000000,46000.000000,45099.000000
50667.000000,55219.000000,45961.000000,45071.000000
50645.000000,55200.000000,45923.000000,45047.000000
50620.000000,55181.000000,45884.000000,45024.000000
50596.000000,55159.000000,45847.000000,44999.000000
50572.000000,55135.000000,45812.000000,44972.000000
50550.000000,55111.000000,45779.000000,44944.000000
50527.000000,55089.000000,45747.000000,44915.000000
50507.000000,55070.000000,45715.000000,44886.000000
50491.000000,55053.000000,45684.000000,44855.000000
50478.000000,55038.000000,45651.000000,44823.000000
50464.000000,55025.000000,45616.000000,44793.000000
50449.000000,55012.000000,45579.000000,44762.000000
50433.000000,54997.000000,45540.000000,44728.000000
50411.000000,54978.000000,45500.000000,44692.000000
50387.000000,54959.000000,45457.000000,44651.000000
50360.000000,54939.000000,45411.000000,44603.000000
50331.000000,54916.000000,45363.000000,44552.000000
50298.000000,54889.000000,45310.000000,44500.000000
50263.000000,54861.000000,45256.000000,44448.000000
50230.000000,54831.000000,45203.000000,44396.000000
50198.000000,54802.000000,45150.000000,44342.000000
50164.000000,54772.000000,45095.000000,44289.000000
50127.000000,54739.000000,45039.000000,44232.000000
50090.000000,54703.000000,44980.000000,44166.000000
50055.000000,54668.000000,44918.000000,44095.000000
50019.000000,54632.000000,44853.000000,44025.000000
49987.000000,54599.000000,44787.000000,43957.000000
49959.000000,54571.000000,44725.000000,43892.000000
49929.000000,54546.000000,44666.000000,43831.000000
49894.000000,54522.000000,44610.000000,43775.000000
49854.000000,54495.000000,44556.000000,43722.000000
49814.000000,54468.000000,44502.000000,43673.000000
49776.000000,54441.000000,44449.000000,43626.000000
49742.000000,54414.000000,44396.000000,43581.000000
49713.000000,54389.000000,44346.000000,43541.000000
49693.000000,54369.000000,44307.000000,43505.000000
49679.000000,54357.000000,44285.000000,43482.000000
49677.000000,54353.000000,44287.000000,43479.000000
49694.000000,54363.000000,44318.000000,43505.000000
49735.000000,54394.000000,44390.000000,43572.000000
49802.000000,54453.000000,44516.000000,43693.000000
49903.000000,54547.000000,44705.000000,43876.000000
50050.000000,54678.000000,44962.000000,44130.000000
50248.000000,54852.000000,45298.000000,44458.000000
50494.000000,55070.000000,45713.000000,44859.000000
50782.000000,55327.000000,46196.000000,45321.000000
51108.000000,55618.000000,46733.000000,45833.000000
51462.000000,55936.000000,47307.000000,46375.000000
51825.000000,56267.000000,47898.000000,46927.000000
52187.000000,56598.000000,48484.000000,47476.000000
52541.000000,56921.000000,49051.000000,48009.000000
52881.000000,57230.000000,49587.000000,48515.000000
53192.000000,57515.000000,50081.000000,48980.000000
53468.000000,57774.000000,50524.000000,49396.000000
53710.000000,58000.000000,50913.000000,49758.000000
53921.000000,58192.000000,51248.000000,50069.000000
54102.000000,58352.000000,51529.000000,50330.000000
54255.000000,58485.000000,51762.000000,50546.000000
54382.000000,58594.000000,51953.000000,50721.000000
54485.000000,58682.000000,52106.000000,50862.000000
54564.000000,58750.000000,52222.000000,50972.000000
54623.000000,58801.000000,52304.000000,51050.000000
54666.000000,58835.000000,52359.000000,51099.000000
54689.000000,58850.000000,52391.000000,51126.000000
54693.000000,58848.000000,52400.000000,51134.000000
54683.000000,58835.000000,52389.000000,51128.000000
54663.000000,58813.000000,52363.000000,51110.000000
54634.000000,58782.000000,52321.000000,51080.000000
54592.000000,58742.000000,52265.000000,51037.000000
54543.000000,58694.000000,52196.000000,50986.000000
54489.000000,58643.000000,52119.000000,50927.000000
54432.000000,58588.000000,52041.000000,50864.000000
54372.000000,58530.000000,51960.000000,50796.000000
54314.000000,58476.000000,51878.000000,50722.000000
54258.000000,58424.000000,51796.000000,50638.000000
54204.000000,58371.000000,51712.000000,50545.000000
54152.000000,58317.000000,51626.000000,50450.000000
54097.000000,58261.000000,51537.000000,50361.000000
54036.000000,58200.000000,51443.000000,50277.000000
53967.000000,58135.000000,51341.000000,50194.000000
53892.000000,58068.000000,51229.000000,50105.000000
53812.000000,57996.000000,51105.000000,50007.000000
53728.000000,57918.000000,50969.000000,49898.000000
53639.000000,57837.000000,50828.000000,49780.000000
53547.000000,57758.000000,50685.000000,49656.000000
53457.000000,57680.000000,50542.000000,49529.000000
53370.000000,57603.000000,50399.000000,49402.000000
53284.000000,57526.000000,50262.000000,49276.000000
53201.000000,57450.000000,50133.000000,49151.000000
53124.000000,57379.000000,50014.000000,49028.000000
53058.000000,57318.000000,49908.000000,48914.000000
53003.000000,57271.000000,49819.000000,48816.000000
52963.000000,57235.000000,49749.000000,48738.000000
52939.000000,57210.000000,49698.000000,48685.000000
52930.000000,57194.000000,49666.000000,48654.000000
52928.000000,57186.000000,49656.000000,48642.000000
52933.000000,57190.000000,49667.000000,48647.000000
52947.000000,57206.000000,49695.000000,48669.000000
52971.000000,57229.000000,49741.000000,48712.000000
53005.000000,57261.000000,49802.000000,48768.000000
53046.000000,57299.000000,49874.000000,48830.000000
53093.000000,57345.000000,49955.000000,48898.000000
53146.000000,57396.000000,50041.000000,48976.000000
53197.000000,57449.000000,50133.000000,49057.000000
53249.000000,57502.000000,50225.000000,49135.000000
53302.000000,57554.000000,50315.000000,49205.000000
53353.000000,57601.000000,50397.000000,49269.000000
53394.000000,57639.000000,50468.000000,49328.000000
53425.000000,57669.000000,50526.000000,49380.000000
53451.000000,57692.000000,50568.000000,49421.000000
53469.000000,57705.000000,50597.000000,49447.000000
53478.000000,57710.000000,50611.000000,49461.000000
53477.000000,57707.000000,50611.000000,49462.000000
53471.000000,57699.000000,50599.000000,49453.000000
53459.000000,57685.000000,50576.000000,49434.000000
53440.000000,57667.000000,50545.000000,49408.000000
53414.000000,57644.000000,50505.000000,49374.000000
53381.000000,57615.000000,50453.000000,49330.000000
53337.000000,57579.000000,50390.000000,49273.000000
53284.000000,57536.000000,50317.000000,49200.000000
53227.000000,57486.000000,50232.000000,49112.000000
53167.000000,57430.000000,50136.000000,49012.000000
53103.000000,57367.000000,50031.000000,48904.000000
53034.000000,57297.000000,49916.000000,48788.000000
52961.000000,57223.000000,49794.000000,48668.000000
52884.000000,57147.000000,49669.000000,48553.000000
52807.000000,57073.000000,49542.000000,48441.000000
52727.000000,57002.000000,49412.000000,48326.000000
52647.000000,56931.000000,49279.000000,48208.000000
52567.000000,56857.000000,49143.000000,48088.000000
52484.000000,56781.000000,49004.000000,47967.000000
52395.000000,56701.000000,48860.000000,47843.000000
52307.000000,56623.000000,48712.000000,47717.000000
52219.000000,56549.000000,48567.000000,47592.000000
52130.000000,56479.000000,48427.000000,47471.000000
52044.000000,56412.000000,48291.000000,47353.000000
51966.000000,56347.000000,48159.000000,47236.000000
51895.000000,56285.000000,48034.000000,47117.000000
51827.000000,56225.000000,47917.000000,46997.000000
51763.000000,56167.000000,47804.000000,46881.000000
51705.000000,56112.000000,47694.000000,46774.000000
51648.000000,56060.000000,47590.000000,46676.000000
51588.000000,56009.000000,47489.000000,46578.000000
51528.000000,55958.000000,47390.000000,46473.000000
51473.000000,55908.000000,47295.000000,46369.000000
51418.000000,55860.000000,47205.000000,46269.000000
51360.000000,55812.000000,47119.000000,46173.000000
51304.000000,55761.000000,47035.000000,46080.000000
51257.000000,55713.000000,46958.000000,45992.000000
51218.000000,55667.000000,46885.000000,45909.000000
51182.000000,55625.000000,46814.000000,45831.000000
51148.000000,55587.000000,46745.000000,45755.000000
51118.000000,55554.000000,46682.000000,45685.000000
51090.000000,55522.000000,46623.000000,45624.000000
51059.000000,55492.000000,46567.000000,45577.000000
51029.000000,55467.000000,46517.000000,45537.000000
50999.000000,55443.000000,46471.000000,45499.000000
50968.000000,55419.000000,46429.000000,45460.000000
50935.000000,55395.000000,46388.000000,45420.000000
50903.000000,55370.000000,46344.000000,45376.000000
50871.000000,55347.000000,46298.000000,45327.000000
50838.000000,55323.000000,46252.000000,45277.000000
50802.000000,55300.000000,46206.000000,45229.000000
50771.000000,55280.000000,46161.000000,45185.000000
50747.000000,55263.000000,46118.000000,45148.000000
50726.000000,55247.000000,46078.000000,45119.000000
50706.000000,55230.000000,46041.000000,45096.000000
50688.000000,55210.000000,46008.000000,45074.000000
50672.000000,55190.000000,45973.000000,45050.000000
50655.000000,55168.000000,45933.000000,45026.000000
50635.000000,55144.000000,45887.000000,45000.000000
50612.000000,55117.000000,45837.000000,44964.000000
50583.000000,55089.000000,45785.000000,44919.000000
50548.000000,55057.000000,45734.000000,44867.000000
50510.000000,55024.000000,45681.000000,44812.000000
50476.000000,54992.000000,45626.000000,44756.000000
50444.000000,54961.000000,45571.000000,44702.000000
50415.000000,54934.000000,45518.000000,44653.000000
50384.000000,54909.000000,45469.000000,44606.000000
50352.000000,54886.000000,45422.000000,44558.000000
50319.000000,54862.000000,45375.000000,44507.000000
50283.000000,54835.000000,45325.000000,44455.000000
50245.000000,54803.000000,45270.000000,44403.000000
50207.000000,54770.000000,45214.000000,44351.000000
50173.000000,54741.000000,45161.000000,44301.000000
50138.000000,54713.000000,45109.000000,44257.000000
50104.000000,54685.000000,45058.000000,44212.000000
50073.000000,54658.000000,45007.000000,44166.000000
50045.000000,54634.000000,44959.000000,44125.000000
50018.000000,54609.000000,44914.000000,44085.000000
49993.000000,54586.000000,44870.000000,44044.000000
49973.000000,54566.000000,44825.000000,44005.000000
49956.000000,54548.000000,44780.000000,43971.000000
49940.000000,54534.000000,44737.000000,43939.000000
49925.000000,54520.000000,44696.000000,43903.000000
49910.000000,54509.000000,44654.000000,43866.000000
49894.000000,54499.000000,44615.000000,43833.000000
49878.000000,54490.000000,44575.000000,43805.000000
49862.000000,54476.000000,44533.000000,43779.000000
49844.000000,54460.000000,44488.000000,43750.000000
49824.000000,54443.000000,44444.000000,43719.000000
49802.000000,54427.000000,44403.000000,43687.000000
49781.000000,54414.000000,44363.000000,43656.000000
49763.000000,54403.000000,44325.000000,43626.000000
49747.000000,54394.000000,44290.000000,43593.000000
49731.000000,54385.000000,44258.000000,43556.000000
49717.000000,54376.000000,44226.000000,43519.000000
49706.000000,54366.000000,44196.000000,43484.000000
49697.000000,54357.000000,44166.000000,43449.000000
49689.000000,54347.000000,44133.000000,43410.000000
49683.000000,54337.000000,44100.000000,43372.000000
49674.000000,54329.000000,44067.000000,43337.000000
49662.000000,54323.000000,44036.000000,43308.000000
49651.000000,54317.000000,44005.000000,43285.000000
49645.000000,54311.000000,43978.000000,43267.000000
49643.000000,54308.000000,43958.000000,43257.000000
49647.000000,54311.000000,43953.000000,43260.000000
49662.000000,54326.000000,43972.000000,43287.000000
49701.000000,54359.000000,44026.000000,43351.000000
49772.000000,54419.000000,44124.000000,43464.000000
49884.000000,54511.000000,44276.000000,43636.000000
50042.000000,54643.000000,44495.000000,43871.000000
50252.000000,54817.000000,44792.000000,44176.000000
50508.000000,55032.000000,45170.000000,44553.000000
50802.000000,55283.000000,45628.000000,44998.000000
51129.000000,55567.000000,46157.000000,45503.000000
51485.000000,55879.000000,46736.000000,46055.000000
51861.000000,56212.000000,47344.000000,46639.000000
52245.000000,56553.000000,47961.000000,47236.000000
52626.000000,56892.000000,48571.000000,47823.000000
52996.000000,57219.000000,49159.000000,48383.000000
53344.000000,57528.000000,49710.000000,48903.000000
53660.000000,57814.000000,50214.000000,49377.000000
53946.000000,58072.000000,50665.000000,49801.000000
54202.000000,58302.000000,51061.000000,50169.000000
54423.000000,58500.000000,51401.000000,50481.000000
54609.000000,58666.000000,51689.000000,50746.000000
54764.000000,58802.000000,51927.000000,50967.000000
54889.000000,58914.000000,52117.000000,51145.000000
54984.000000,59002.000000,52266.000000,51281.000000
55052.000000,59067.000000,52375.000000,51380.000000
55097.000000,59110.000000,52450.000000,51445.000000
55120.000000,59134.000000,52499.000000,51478.000000
55122.000000,59139.000000,52527.000000,51486.000000
55108.000000,59127.000000,52535.000000,51476.000000
55082.000000,59102.000000,52525.000000,51456.000000
55051.000000,59069.000000,52497.000000,51431.000000
55014.000000,59032.000000,52457.000000,51407.000000
54971.000000,58992.000000,52407.000000,51377.000000
54927.000000,58950.000000,52348.000000,51339.000000
54883.000000,58908.000000,52283.000000,51295.000000
54836.000000,58863.000000,52211.000000,51242.000000
54786.000000,58814.000000,52136.000000,51178.000000
54733.000000,58766.000000,52056.000000,51103.000000
54679.000000,58717.000000,51967.000000,51016.000000
54621.000000,58663.000000,51867.000000,50916.000000
54559.000000,58601.000000,51757.000000,50807.000000
54491.000000,58531.000000,51637.000000,50687.000000
54414.000000,58453.000000,51507.000000,50551.000000
54323.000000,58367.000000,51366.000000,50399.000000
54221.000000,58274.000000,51212.000000,50234.000000
54113.000000,58174.000000,51045.000000,50056.000000
54001.000000,58067.000000,50868.000000,49872.000000
53886.000000,57957.000000,50688.000000,49684.000000
53772.000000,57850.000000,50510.000000,49498.000000
53666.000000,57749.000000,50336.000000,49318.000000
53566.000000,57656.000000,50171.000000,49152.000000
53473.000000,57570.000000,50018.000000,49004.000000
53390.000000,57492.000000,49882.000000,48875.000000
53321.000000,57425.000000,49768.000000,48768.000000
53263.000000,57370.000000,49675.000000,48679.000000
53216.000000,57326.000000,49603.000000,48606.000000
53186.000000,57295.000000,49550.000000,48557.000000
53173.000000,57278.000000,49522.000000,48538.000000
53176.000000,57276.000000,49521.000000,48544.000000
53191.000000,57289.000000,49543.000000,48570.000000
53219.000000,57313.000000,49586.000000,48616.000000
53263.000000,57349.000000,49650.000000,48681.000000
53318.000000,57398.000000,49730.000000,48765.000000
53379.000000,57457.000000,49821.000000,48863.000000
53447.000000,57523.000000,49921.000000,48970.000000
53524.000000,57593.000000,50032.000000,49083.000000
53606.000000,57665.000000,50150.000000,49201.000000
53693.000000,57739.000000,50269.000000,49319.000000
53781.000000,57815.000000,50387.000000,49434.000000
53870.000000,57892.000000,50499.000000,49548.000000
53950.000000,57963.000000,50600.000000,49655.000000
54017.000000,58025.000000,50691.000000,49748.000000
54074.000000,58077.000000,50768.000000,49822.000000
54122.000000,58124.000000,50832.000000,49880.000000
54157.000000,58160.000000,50880.000000,49923.000000
54182.000000,58184.000000,50914.000000,49952.000000
54198.000000,58196.000000,50932.000000,49969.000000
54204.000000,58200.000000,50932.000000,49971.000000
54197.000000,58199.000000,50916.000000,49958.000000
54178.000000,58190.000000,50884.000000,49927.000000
54150.000000,58172.000000,50837.000000,49876.000000
54117.000000,58145.000000,50779.000000,49812.000000
54075.000000,58108.000000,50712.000000,49737.000000
54025.000000,58063.000000,50635.000000,49650.000000
53971.000000,58011.000000,50549.000000,49556.000000
53914.000000,57955.000000,50454.000000,49462.000000
53851.000000,57896.000000,50347.000000,49368.000000
53784.000000,57832.000000,50231.000000,49271.000000
53715.000000,57767.000000,50111.000000,49169.000000
53646.000000,57706.000000,49994.000000,49064.000000
53574.000000,57647.000000,49878.000000,48955.000000
53501.000000,57586.000000,49761.000000,48846.000000
53429.000000,57526.000000,49641.000000,48740.000000
53357.000000,57466.000000,49521.000000,48633.000000
53284.000000,57405.000000,49403.000000,48522.000000
53213.000000,57344.000000,49287.000000,48404.000000
53147.000000,57286.000000,49175.000000,48283.000000
53086.000000,57230.000000,49067.000000,48164.000000
53027.000000,57174.000000,48959.000000,48052.000000
52971.000000,57119.000000,48854.000000,47947.000000
52918.000000,57071.000000,48757.000000,47851.000000
52866.000000,57027.000000,48666.000000,47761.000000
52814.000000,56981.000000,48578.000000,47674.000000
52764.000000,56937.000000,48494.000000,47588.000000
52715.000000,56897.000000,48413.000000,47508.000000
52667.000000,56859.000000,48337.000000,47437.000000
52620.000000,56824.000000,48268.000000,47371.000000
52573.000000,56788.000000,48204.000000,47309.000000
52531.000000,56752.000000,48142.000000,47253.000000
52491.000000,56716.000000,48084.000000,47201.000000
52453.000000,56682.000000,48030.000000,47150.000000
52418.000000,56650.000000,47976.000000,47103.000000
52387.000000,56622.000000,47925.000000,47062.000000
52358.000000,56598.000000,47877.000000,47026.000000
52326.000000,56576.000000,47832.000000,46989.000000
52297.000000,56555.000000,47792.000000,46948.000000
52272.000000,56535.000000,47755.000000,46909.000000
52249.000000,56515.000000,47717.000000,46872.000000
52226.000000,56496.000000,47678.000000,46832.000000
52207.000000,56481.000000,47639.000000,46785.000000
52196.000000,56469.000000,47604.000000,46738.000000
52188.000000,56458.000000,47574.000000,46696.000000
52181.000000,56447.000000,47546.000000,46660.000000
52174.000000,56438.000000,47518.000000,46627.000000
52166.000000,56428.000000,47486.000000,46597.000000
52156.000000,56414.000000,47452.000000,46568.000000
52147.000000,56398.000000,47417.000000,46543.000000
52137.000000,56381.000000,47385.000000,46517.000000
52125.000000,56367.000000,47358.000000,46495.000000
52110.000000,56359.000000,47336.000000,46477.000000
52097.000000,56356.000000,47318.000000,46463.000000
52089.000000,56355.000000,47308.000000,46452.000000
52086.000000,56356.000000,47303.000000,46447.000000
52086.000000,56361.000000,47300.000000,46447.000000
52091.000000,56372.000000,47299.000000,46449.000000
52104.000000,56391.000000,47303.000000,46451.000000
52124.000000,56415.000000,47313.000000,46458.000000
52148.000000,56442.000000,47328.000000,46470.000000
52179.000000,56468.000000,47344.000000,46490.000000
52217.000000,56494.000000,47365.000000,46516.000000
52258.000000,56522.000000,47392.000000,46546.000000
52296.000000,56550.000000,47420.000000,46581.000000
52330.000000,56574.000000,47449.000000,46616.000000
52361.000000,56594.000000,47476.000000,46647.000000
52388.000000,56610.000000,47502.000000,46675.000000
52410.000000,56622.000000,47521.000000,46698.000000
52427.000000,56631.000000,47531.000000,46714.000000
52439.000000,56636.000000,47532.000000,46719.000000
52443.000000,56635.000000,47524.000000,46717.000000
52442.000000,56631.000000,47508.000000,46707.000000
52436.000000,56622.000000,47480.000000,46688.000000
52425.000000,56611.000000,47442.000000,46661.000000
52408.000000,56596.000000,47398.000000,46629.000000
52385.000000,56577.000000,47349.000000,46592.000000
52361.000000,56554.000000,47297.000000,46546.000000
52332.000000,56528.000000,47241.000000,46490.000000
52293.000000,56496.000000,47181.000000,46426.000000
52244.000000,56455.000000,47114.000000,46354.000000
52190.000000,56410.000000,47040.000000,46274.000000
52135.000000,56362.000000,46962.000000,46189.000000
52081.000000,56312.000000,46883.000000,46106.000000
52031.000000,56263.000000,46806.000000,46030.000000
51986.000000,56220.000000,46732.000000,45959.000000
51946.000000,56182.000000,46665.000000,45898.000000
51912.000000,56150.000000,46612.000000,45853.000000
51890.000000,56129.000000,46582.000000,45830.000000
51888.000000,56125.000000,46587.000000,45837.000000
51913.000000,56148.000000,46640.000000,45886.000000
51970.000000,56203.000000,46750.000000,45985.000000
52064.000000,56295.000000,46926.000000,46144.000000
52203.000000,56429.000000,47173.000000,46371.000000
52385.000000,56603.000000,47490.000000,46666.000000
52604.000000,56810.000000,47871.000000,47025.000000
52854.000000,57045.000000,48303.000000,47433.000000
53130.000000,57297.000000,48769.000000,47876.000000
53421.000000,57561.000000,49256.000000,48338.000000
53716.000000,57828.000000,49748.000000,48800.000000
54006.000000,58091.000000,50233.000000,49248.000000
54285.000000,58346.000000,50700.000000,49671.000000
54547.000000,58589.000000,51139.000000,50063.000000
54787.000000,58816.000000,51543.000000,50421.000000
55005.000000,59020.000000,51904.000000,50743.000000
55200.000000,59198.000000,52221.000000,51033.000000
55369.000000,59351.000000,52495.000000,51290.000000
55509.000000,59478.000000,52729.000000,51510.000000
55625.000000,59583.000000,52927.000000,51695.000000
55722.000000,59669.000000,53087.000000,51847.000000
55802.000000,59736.000000,53210.000000,51970.000000
55861.000000,59785.000000,53301.000000,52063.000000
55899.000000,59814.000000,53366.000000,52128.000000
55917.000000,59826.000000,53406.000000,52167.000000
55917.000000,59818.000000,53421.000000,52186.000000
55901.000000,59795.000000,53415.000000,52185.000000
55873.000000,59761.000000,53389.000000,52163.000000
55833.000000,59719.000000,53346.000000,52124.000000
55780.000000,59669.000000,53289.000000,52071.000000
55714.000000,59610.000000,53218.000000,52002.000000
55639.000000,59543.000000,53134.000000,51919.000000
55558.000000,59470.000000,53038.000000,51827.000000
55472.000000,59394.000000,52933.000000,51729.000000
55384.000000,59316.000000,52824.000000,51627.000000
55297.000000,59238.000000,52713.000000,51524.000000
55212.000000,59160.000000,52595.000000,51417.000000
55124.000000,59081.000000,52472.000000,51307.000000
55035.000000,59000.000000,52347.000000,51192.000000
54950.000000,58919.000000,52222.000000,51072.000000
54867.000000,58840.000000,52096.000000,50950.000000
54781.000000,58761.000000,51968.000000,50823.000000
54691.000000,58680.000000,51834.000000,50692.000000
54600.000000,58598.000000,51695.000000,50557.000000
54506.000000,58514.000000,51549.000000,50417.000000
54407.000000,58425.000000,51397.000000,50278.000000
54305.000000,58334.000000,51240.000000,50136.000000
54205.000000,58244.000000,51083.000000,49989.000000
54110.000000,58155.000000,50929.000000,49842.000000
54014.000000,58066.000000,50780.000000,49699.000000
53918.000000,57979.000000,50639.000000,49561.000000
53828.000000,57896.000000,50509.000000,49431.000000
53746.000000,57819.000000,50394.000000,49317.000000
53674.000000,57752.000000,50298.000000,49223.000000
53617.000000,57698.000000,50220.000000,49144.000000
53579.000000,57657.000000,50161.000000,49087.000000
53556.000000,57631.000000,50128.000000,49054.000000
53543.000000,57620.000000,50116.000000,49039.000000
53542.000000,57620.000000,50122.000000,49036.000000
53552.000000,57631.000000,50144.000000,49047.000000
53572.000000,57648.000000,50180.000000,49069.000000
53595.000000,57669.000000,50226.000000,49101.000000
53622.000000,57695.000000,50278.000000,49140.000000
53655.000000,57725.000000,50334.000000,49189.000000
53690.000000,57758.000000,50393.000000,49244.000000
53724.000000,57789.000000,50451.000000,49300.000000
53757.000000,57817.000000,50508.000000,49354.000000
53787.000000,57842.000000,50562.000000,49406.000000
53810.000000,57862.000000,50611.000000,49452.000000
53824.000000,57874.000000,50650.000000,49491.000000
53832.000000,57880.000000,50677.000000,49520.000000
53837.000000,57881.000000,50692.000000,49543.000000
53838.000000,57879.000000,50697.000000,49558.000000
53835.000000,57874.000000,50693.000000,49559.000000
53829.000000,57865.000000,50678.000000,49543.000000
53819.000000,57853.000000,50655.000000,49515.000000
53802.000000,57839.000000,50622.000000,49479.000000
53780.000000,57824.000000,50584.000000,49439.000000
53753.000000,57807.000000,50540.000000,49393.000000
53716.000000,57783.000000,50487.000000,49335.000000
53664.000000,57748.000000,50422.000000,49263.000000
53599.000000,57700.000000,50338.000000,49178.000000
53527.000000,57642.000000,50239.000000,49081.000000
53453.000000,57580.000000,50130.000000,48979.000000
53378.000000,57516.000000,50015.000000,48874.000000
53301.000000,57450.000000,49896.000000,48768.000000
53221.000000,57384.000000,49773.000000,48657.000000
53138.000000,57318.000000,49646.000000,48539.000000
53048.000000,57248.000000,49513.000000,48416.000000
52956.000000,57177.000000,49376.000000,48292.000000
52863.000000,57104.000000,49240.000000,48163.000000
52774.000000,57030.000000,49103.000000,48033.000000
52686.000000,56954.000000,48966.000000,47906.000000
52598.000000,56874.000000,48828.000000,47778.000000
52510.000000,56793.000000,48693.000000,47652.000000
52426.000000,56711.000000,48564.000000,47528.000000
52342.000000,56632.000000,48441.000000,47407.000000
52262.000000,56558.000000,48322.000000,47287.000000
52189.000000,56488.000000,48203.000000,47169.000000
52121.000000,56423.000000,48088.000000,47057.000000
52056.000000,56362.000000,47977.000000,46953.000000
51996.000000,56305.000000,47870.000000,46856.000000
51943.000000,56253.000000,47772.000000,46762.000000
51894.000000,56208.000000,47686.000000,46671.000000
51847.000000,56168.000000,47613.000000,46587.000000
51805.000000,56134.000000,47547.000000,46512.000000
51768.000000,56104.000000,47483.000000,46444.000000
51734.000000,56078.000000,47420.000000,46382.000000
51699.000000,56055.000000,47357.000000,46325.000000
51663.000000,56032.000000,47294.000000,46271.000000
51629.000000,56007.000000,47231.000000,46223.000000
51596.000000,55982.000000,47172.000000,46179.000000
51565.000000,55956.000000,47119.000000,46133.000000
51539.000000,55932.000000,47070.000000,46081.000000
51517.000000,55912.000000,47027.000000,46029.000000
51495.000000,55891.000000,46987.000000,45979.000000
51470.000000,55868.000000,46946.000000,45927.000000
51444.000000,55846.000000,46905.000000,45874.000000
51421.000000,55827.000000,46866.000000,45823.000000
51398.000000,55809.000000,46828.000000,45776.000000
51376.000000,55789.000000,46788.000000,45734.000000
51357.000000,55768.000000,46747.000000,45696.000000
51341.000000,55748.000000,46710.000000,45661.000000
51322.000000,55731.000000,46678.000000,45629.000000
51302.000000,55715.000000,46647.000000,45603.000000
51285.000000,55700.000000,46616.000000,45580.000000
51270.000000,55684.000000,46585.000000,45556.000000
51253.000000,55668.000000,46554.000000,45534.000000
51234.000000,55651.000000,46525.000000,45512.000000
51219.000000,55635.000000,46498.000000,45486.000000
51206.000000,55619.000000,46472.000000,45457.000000
51189.000000,55601.000000,46449.000000,45425.000000
51170.000000,55584.000000,46422.000000,45391.000000
51150.000000,55570.000000,46394.000000,45360.000000
51133.000000,55557.000000,46365.000000,45336.000000
51114.000000,55545.000000,46338.000000,45315.000000
51095.000000,55534.000000,46313.000000,45293.000000
51076.000000,55523.000000,46286.000000,45271.000000
51056.000000,55510.000000,46257.000000,45249.000000
51038.000000,55495.000000,46229.000000,45227.000000
51022.000000,55479.000000,46201.000000,45202.000000
51008.000000,55461.000000,46170.000000,45174.000000
50992.000000,55439.000000,46136.000000,45146.000000
50972.000000,55411.000000,46098.000000,45115.000000
50948.000000,55379.000000,46056.000000,45082.000000
50921.000000,55344.000000,46012.000000,45045.000000
50891.000000,55310.000000,45966.000000,45002.000000
50857.000000,55276.000000,45916.000000,44952.000000
50824.000000,55244.000000,45859.000000,44899.000000
50793.000000,55215.000000,45799.000000,44842.000000
50761.000000,55188.000000,45736.000000,44783.000000
50725.000000,55162.000000,45670.000000,44723.000000
50689.000000,55132.000000,45603.000000,44664.000000
50652.000000,55100.000000,45534.000000,44605.000000
50610.000000,55066.000000,45466.000000,44542.000000
50568.000000,55034.000000,45400.000000,44475.000000
50531.000000,55006.000000,45336.000000,44407.000000
50501.000000,54981.000000,45276.000000,44340.000000
50471.000000,54955.000000,45221.000000,44283.000000
50442.000000,54932.000000,45175.000000,44242.000000
50419.000000,54914.000000,45142.000000,44217.000000
50402.000000,54904.000000,45126.000000,44210.000000
50395.000000,54904.000000,45134.000000,44225.000000
50409.000000,54919.000000,45176.000000,44268.000000
50454.000000,54958.000000,45265.000000,44349.000000
50533.000000,55027.000000,45413.000000,44480.000000
50650.000000,55130.000000,45627.000000,44671.000000
50810.000000,55273.000000,45912.000000,44927.000000
51016.000000,55457.000000,46265.000000,45251.000000
51262.000000,55679.000000,46681.000000,45640.000000
51541.000000,55932.000000,47154.000000,46082.000000
51845.000000,56208.000000,47670.000000,46561.000000
52163.000000,56498.000000,48210.000000,47062.000000
52486.000000,56796.000000,48754.000000,47570.000000
52801.000000,57086.000000,49284.000000,48064.000000
53101.000000,57360.000000,49787.000000,48532.000000
53384.000000,57616.000000,50253.000000,48972.000000
53646.000000,57852.000000,50678.000000,49375.000000
53878.000000,58063.000000,51056.000000,49734.000000
54079.000000,58248.000000,51381.000000,50047.000000
54252.000000,58411.000000,51659.000000,50313.000000
54403.000000,58552.000000,51896.000000,50538.000000
54529.000000,58668.000000,52090.000000,50722.000000
54631.000000,58758.000000,52242.000000,50867.000000
54712.000000,58828.000000,52360.000000,50979.000000
54775.000000,58876.000000,52446.000000,51065.000000
54815.000000,58903.000000,52504.000000,51125.000000
54833.000000,58912.000000,52533.000000,51162.000000
54831.000000,58909.000000,52538.000000,51179.000000
54812.000000,58895.000000,52523.000000,51177.000000
54778.000000,58870.000000,52490.000000,51160.000000
54738.000000,58837.000000,52443.000000,51124.000000
54696.000000,58798.000000,52385.000000,51073.000000
54653.000000,58756.000000,52317.000000,51012.000000
54606.000000,58710.000000,52243.000000,50944.000000
54558.000000,58659.000000,52165.000000,50874.000000
54511.000000,58607.000000,52083.000000,50800.000000
54461.000000,58553.000000,51997.000000,50721.000000
54405.000000,58496.000000,51907.000000,50638.000000
54347.000000,58438.000000,51814.000000,50552.000000
54287.000000,58383.000000,51717.000000,50466.000000
54220.000000,58329.000000,51612.000000,50377.000000
54144.000000,58271.000000,51497.000000,50279.000000
54063.000000,58207.000000,51370.000000,50166.000000
53978.000000,58137.000000,51236.000000,50041.000000
53888.000000,58060.000000,51095.000000,49908.000000
53795.000000,57979.000000,50946.000000,49771.000000
53702.000000,57897.000000,50790.000000,49632.000000
53612.000000,57813.000000,50630.000000,49492.000000
53521.000000,57728.000000,50468.000000,49351.000000
53432.000000,57644.000000,50309.000000,49211.000000
53349.000000,57563.000000,50155.000000,49074.000000
53271.000000,57487.000000,50010.000000,48940.000000
53199.000000,57417.000000,49878.000000,48813.000000
53134.000000,57358.000000,49765.000000,48700.000000
53083.000000,57310.000000,49674.000000,48609.000000
53047.000000,57275.000000,49606.000000,48538.000000
53022.000000,57253.000000,49558.000000,48485.000000
53010.000000,57240.000000,49531.000000,48452.000000
53010.000000,57233.000000,49525.000000,48438.000000
53019.000000,57233.000000,49539.000000,48443.000000
53033.000000,57242.000000,49569.000000,48469.000000
53056.000000,57266.000000,49613.000000,48516.000000
53092.000000,57301.000000,49671.000000,48580.000000
53141.000000,57346.000000,49747.000000,48659.000000
53201.000000,57400.000000,49839.000000,48751.000000
53270.000000,57460.000000,49942.000000,48851.000000
53343.000000,57525.000000,50054.000000,48955.000000
53415.000000,57593.000000,50173.000000,49061.000000
53482.000000,57655.000000,50289.000000,49164.000000
53546.000000,57715.000000,50396.000000,49260.000000
53606.000000,57773.000000,50495.000000,49351.000000
53659.000000,57827.000000,50582.000000,49435.000000
53704.000000,57874.000000,50656.000000,49509.000000
53743.000000,57912.000000,50717.000000,49566.000000
53778.000000,57944.000000,50767.000000,49611.000000
53804.000000,57965.000000,50801.000000,49647.000000
53818.000000,57977.000000,50820.000000,49670.000000
53824.000000,57981.000000,50825.000000,49680.000000
53825.000000,57981.000000,50818.000000,49679.000000
53817.000000,57975.000000,50799.000000,49667.000000
53797.000000,57961.000000,50761.000000,49644.000000
53763.000000,57933.000000,50705.000000,49603.000000
53718.000000,57895.000000,50634.000000,49545.000000
53661.000000,57847.000000,50550.000000,49477.000000
53594.000000,57789.000000,50452.000000,49395.000000
53519.000000,57722.000000,50343.000000,49296.000000
53440.000000,57648.000000,50223.000000,49184.000000
53354.000000,57569.000000,50097.000000,49068.000000
53263.000000,57484.000000,49965.000000,48945.000000
53170.000000,57395.000000,49824.000000,48815.000000
53075.000000,57305.000000,49676.000000,48680.000000
52977.000000,57215.000000,49521.000000,48536.000000
52880.000000,57126.000000,49363.000000,48385.000000
52789.000000,57041.000000,49207.000000,48232.000000
52702.000000,56959.000000,49055.000000,48087.000000
52618.000000,56884.000000,48906.000000,47948.000000
52534.000000,56815.000000,48762.000000,47814.000000
52455.000000,56750.000000,48627.000000,47685.000000
52378.000000,56688.000000,48497.000000,47567.000000
52303.000000,56625.000000,48373.000000,47459.000000
52234.000000,56562.000000,48252.000000,47355.000000
52169.000000,56503.000000,48138.000000,47249.000000
52104.000000,56447.000000,48033.000000,47139.000000
52038.000000,56393.000000,47932.000000,47027.000000
51972.000000,56341.000000,47833.000000,46920.000000
51911.000000,56292.000000,47735.000000,46821.000000
51855.000000,56246.000000,47640.000000,46725.000000
51800.000000,56202.000000,47548.000000,46630.000000
51750.000000,56161.000000,47461.000000,46538.000000
51707.000000,56124.000000,47381.000000,46448.000000
51665.000000,56086.000000,47305.000000,46362.000000
51621.000000,56043.000000,47231.000000,46280.000000
51578.000000,56001.000000,47157.000000,46204.000000
51535.000000,55962.000000,47083.000000,46132.000000
51490.000000,55925.000000,47011.000000,46062.000000
51444.000000,55886.000000,46943.000000,45996.000000
51402.000000,55848.000000,46879.000000,45933.000000
51364.000000,55811.000000,46820.000000,45872.000000
51332.000000,55779.000000,46766.000000,45816.000000
51300.000000,55750.000000,46714.000000,45770.000000
51270.000000,55724.000000,46665.000000,45732.000000
51243.000000,55699.000000,46617.000000,45698.000000
51218.000000,55674.000000,46572.000000,45669.000000
51192.000000,55652.000000,46529.000000,45640.000000
51167.000000,55633.000000,46491.000000,45612.000000
51145.000000,55617.000000,46456.000000,45584.000000
51123.000000,55601.000000,46420.000000,45557.000000
51101.000000,55584.000000,46385.000000,45530.000000
51081.000000,55568.000000,46351.000000,45501.000000
51062.000000,55553.000000,46317.000000,45471.000000
51043.000000,55536.000000,46282.000000,45444.000000
51021.000000,55516.000000,46248.000000,45419.000000
50997.000000,55496.000000,46212.000000,45392.000000
50972.000000,55476.000000,46177.000000,45364.000000
50948.000000,55457.000000,46143.000000,45333.000000
50924.000000,55436.000000,46108.000000,45303.000000
50904.000000,55417.000000,46073.000000,45275.000000
50885.000000,55400.000000,46038.000000,45248.000000
50865.000000,55383.000000,46003.000000,45221.000000
50848.000000,55367.000000,45971.000000,45192.000000
50837.000000,55353.000000,45941.000000,45159.000000
50829.000000,55338.000000,45913.000000,45125.000000
50818.000000,55323.000000,45883.000000,45090.000000
50807.000000,55308.000000,45852.000000,45053.000000
50798.000000,55292.000000,45817.000000,45011.000000
50789.000000,55276.000000,45781.000000,44968.000000
50775.000000,55260.000000,45742.000000,44923.000000
50758.000000,55244.000000,45701.000000,44879.000000
50742.000000,55227.000000,45658.000000,44840.000000
50725.000000,55209.000000,45614.000000,44804.000000
50704.000000,55192.000000,45571.000000,44768.000000
50678.000000,55174.000000,45528.000000,44729.000000
50650.000000,55156.000000,45488.000000,44688.000000
50620.000000,55139.000000,45451.000000,44645.000000
50590.000000,55122.000000,45413.000000,44600.000000
50561.000000,55104.000000,45372.000000,44554.000000
50531.000000,55086.000000,45330.000000,44508.000000
50502.000000,55065.000000,45289.000000,44462.000000
50473.000000,55040.000000,45247.000000,44416.000000
50447.000000,55014.000000,45205.000000,44375.000000
50425.000000,54991.000000,45164.000000,44337.000000
50406.000000,54973.000000,45126.000000,44303.000000
50390.000000,54957.000000,45096.000000,44277.000000
50379.000000,54948.000000,45077.000000,44261.000000
50381.000000,54949.000000,45078.000000,44265.000000
50398.000000,54963.000000,45110.000000,44297.000000
50436.000000,54998.000000,45179.000000,44364.000000
50505.000000,55061.000000,45294.000000,44474.000000
50610.000000,55157.000000,45468.000000,44641.000000
50752.000000,55289.000000,45709.000000,44868.000000
50934.000000,55460.000000,46021.000000,45157.000000
51157.000000,55668.000000,46402.000000,45509.000000
51418.000000,55909.000000,46849.000000,45926.000000
51709.000000,56180.000000,47349.000000,46401.000000
52020.000000,56471.000000,47887.000000,46911.000000
52344.000000,56774.000000,48446.000000,47437.000000
52674.000000,57081.000000,49008.000000,47967.000000
52999.000000,57381.000000,49558.000000,48485.000000
53310.000000,57667.000000,50077.000000,48978.000000
53603.000000,57934.000000,50557.000000,49436.000000
53873.000000,58179.000000,50993.000000,49851.000000
54117.000000,58399.000000,51381.000000,50219.000000
54336.000000,58592.000000,51718.000000,50543.000000
54527.000000,58757.000000,52007.000000,50826.000000
54689.000000,58893.000000,52254.000000,51074.000000
54825.000000,59009.000000,52465.000000,51286.000000
54939.000000,59108.000000,52639.000000,51460.000000
55033.000000,59193.000000,52778.000000,51595.000000
55108.000000,59260.000000,52885.000000,51698.000000
55167.000000,59310.000000,52963.000000,51776.000000
55209.000000,59345.000000,53016.000000,51832.000000
55239.000000,59369.000000,53046.000000,51870.000000
55258.000000,59384.000000,53058.000000,51893.000000
55266.000000,59390.000000,53056.000000,51904.000000
55264.000000,59384.000000,53041.000000,51903.000000
55251.000000,59370.000000,53012.000000,51891.000000
55229.000000,59350.000000,52969.000000,51868.000000
55198.000000,59323.000000,52913.000000,51833.000000
55162.000000,59292.000000,52849.000000,51788.000000
55123.000000,59260.000000,52781.000000,51738.000000
55083.000000,59227.000000,52710.000000,51684.000000
55040.000000,59188.000000,52634.000000,51629.000000
54998.000000,59142.000000,52553.000000,51568.000000
54956.000000,59091.000000,52467.000000,51500.000000
54906.000000,59036.000000,52374.000000,51423.000000
54845.000000,58979.000000,52272.000000,51333.000000
54775.000000,58917.000000,52156.000000,51228.000000
54698.000000,58849.000000,52029.000000,51109.000000
54616.000000,58777.000000,51894.000000,50980.000000
54528.000000,58700.000000,51751.000000,50842.000000
54437.000000,58618.000000,51600.000000,50699.000000
54344.000000,58530.000000,51445.000000,50552.000000
54250.000000,58440.000000,51289.000000,50406.000000
54157.000000,58356.000000,51139.000000,50264.000000
54072.000000,58282.000000,51004.000000,50133.000000
54000.000000,58216.000000,50886.000000,50018.000000
53939.000000,58159.000000,50785.000000,49923.000000
53890.000000,58114.000000,50704.000000,49847.000000
53859.000000,58088.000000,50645.000000,49791.000000
53844.000000,58082.000000,50612.000000,49756.000000
53843.000000,58092.000000,50607.000000,49741.000000
53858.000000,58112.000000,50628.000000,49745.000000
53890.000000,58141.000000,50674.000000,49774.000000
53935.000000,58177.000000,50739.000000,49827.000000
53985.000000,58218.000000,50820.000000,49900.000000
54041.000000,58264.000000,50911.000000,49986.000000
54104.000000,58317.000000,51010.000000,50079.000000
54168.000000,58374.000000,51115.000000,50173.000000
54231.000000,58432.000000,51224.000000,50264.000000
54291.000000,58491.000000,51335.000000,50355.000000
54346.000000,58546.000000,51445.000000,50447.000000
54396.000000,58595.000000,51550.000000,50536.000000
54440.000000,58639.000000,51643.000000,50615.000000
54480.000000,58676.000000,51720.000000,50683.000000
54519.000000,58709.000000,51785.000000,50744.000000
54553.000000,58738.000000,51837.000000,50797.000000
54579.000000,58760.000000,51875.000000,50837.000000
54598.000000,58773.000000,51897.000000,50863.000000
54609.000000,58780.000000,51901.000000,50879.000000
54609.000000,58780.000000,51891.000000,50882.000000
54596.000000,58771.000000,51866.000000,50870.000000
54574.000000,58753.000000,51824.000000,50842.000000
54543.000000,58722.000000,51765.000000,50800.000000
54505.000000,58682.000000,51693.000000,50748.000000
54460.000000,58635.000000,51612.000000,50684.000000
54410.000000,58585.000000,51523.000000,50607.000000
54355.000000,58533.000000,51426.000000,50519.000000
54295.000000,58479.000000,51322.000000,50425.000000
54229.000000,58421.000000,51213.000000,50326.000000
54161.000000,58362.000000,51104.000000,50224.000000
54091.000000,58302.000000,50993.000000,50121.000000
54020.000000,58242.000000,50881.000000,50019.000000
53950.000000,58184.000000,50768.000000,49920.000000
53883.000000,58126.000000,50654.000000,49820.000000
53817.000000,58068.000000,50541.000000,49720.000000
53753.000000,58010.000000,50430.000000,49619.000000
53689.000000,57954.000000,50320.000000,49516.000000
53626.000000,57901.000000,50211.000000,49409.000000
53564.000000,57850.000000,50102.000000,49301.000000
53503.000000,57799.000000,49993.000000,49195.000000
53446.000000,57750.000000,49887.000000,49091.000000
53393.000000,57704.000000,49786.000000,48984.000000
53343.000000,57657.000000,49689.000000,48876.000000
53291.000000,57608.000000,49592.000000,48772.000000
53238.000000,57559.000000,49495.000000,48673.000000
53189.000000,57512.000000,49403.000000,48582.000000
53141.000000,57465.000000,49319.000000,48499.000000
53092.000000,57419.000000,49239.000000,48416.000000
53044.000000,57375.000000,49161.000000,48332.000000
52997.000000,57333.000000,49088.000000,48249.000000
52952.000000,57296.000000,49016.000000,48171.000000
52906.000000,57261.000000,48944.000000,48096.000000
52865.000000,57230.000000,48874.000000,48024.000000
52827.000000,57200.000000,48809.000000,47960.000000
52791.000000,57171.000000,48748.000000,47903.000000
52753.000000,57141.000000,48688.000000,47849.000000
52717.000000,57112.000000,48629.000000,47794.000000
52681.000000,57084.000000,48571.000000,47743.000000
52642.000000,57056.000000,48517.000000,47698.000000
52603.000000,57026.000000,48468.000000,47658.000000
52570.000000,56996.000000,48419.000000,47620.000000
52543.000000,56966.000000,48369.000000,47584.000000
52518.000000,56939.000000,48320.000000,47550.000000
52497.000000,56914.000000,48274.000000,47513.000000
52480.000000,56893.000000,48231.000000,47477.000000
52464.000000,56876.000000,48191.000000,47447.000000
52451.000000,56862.000000,48155.000000,47420.000000
52439.000000,56850.000000,48120.000000,47397.000000
52426.000000,56836.000000,48085.000000,47374.000000
52407.000000,56819.000000,48047.000000,47349.000000
52383.000000,56798.000000,48007.000000,47318.000000
52354.000000,56774.000000,47966.000000,47283.000000
52326.000000,56748.000000,47928.000000,47245.000000
52299.000000,56724.000000,47891.000000,47209.000000
52272.000000,56704.000000,47856.000000,47173.000000
52244.000000,56685.000000,47820.000000,47136.000000
52216.000000,56664.000000,47780.000000,47095.000000
52189.000000,56644.000000,47738.000000,47052.000000
52159.000000,56622.000000,47697.000000,47006.000000
52131.000000,56598.000000,47655.000000,46958.000000
52106.000000,56575.000000,47609.000000,46910.000000
52084.000000,56555.000000,47560.000000,46867.000000
52061.000000,56534.000000,47509.000000,46823.000000
52039.000000,56512.000000,47457.000000,46777.000000
52020.000000,56492.000000,47409.000000,46731.000000
51999.000000,56471.000000,47366.000000,46687.000000
51970.000000,56448.000000,47324.000000,46644.000000
51937.000000,56423.000000,47278.000000,46598.000000
51907.000000,56395.000000,47228.000000,46547.000000
51878.000000,56367.000000,47174.000000,46495.000000
51849.000000,56336.000000,47114.000000,46442.000000
51820.000000,56303.000000,47051.000000,46394.000000
51791.000000,56270.000000,46985.000000,46348.000000
51757.000000,56236.000000,46917.000000,46296.000000
51719.000000,56202.000000,46849.000000,46238.000000
51681.000000,56169.000000,46783.000000,46179.000000
51645.000000,56136.000000,46722.000000,46120.000000
51607.000000,56103.000000,46663.000000,46060.000000
51566.000000,56070.000000,46601.000000,45998.000000
51528.000000,56039.000000,46540.000000,45938.000000
51497.000000,56016.000000,46485.000000,45884.000000
51473.000000,56001.000000,46445.000000,45839.000000
51458.000000,55991.000000,46422.000000,45808.000000
51456.000000,55989.000000,46419.000000,45793.000000
51475.000000,56003.000000,46445.000000,45807.000000
51514.000000,56040.000000,46516.000000,45862.000000
51581.000000,56101.000000,46640.000000,45970.000000
51684.000000,56192.000000,46825.000000,46141.000000
51828.000000,56323.000000,47083.000000,46378.000000
52013.000000,56497.000000,47418.000000,46687.000000
52239.000000,56709.000000,47827.000000,47063.000000
52508.000000,56955.000000,48298.000000,47499.000000
52806.000000,57227.000000,48814.000000,47978.000000
53121.000000,57515.000000,49356.000000,48482.000000
53442.000000,57811.000000,49905.000000,48993.000000
53766.000000,58106.000000,50448.000000,49498.000000
54083.000000,58391.000000,50972.000000,49988.000000
54385.000000,58659.000000,51464.000000,50448.000000
54665.000000,58909.000000,51916.000000,50871.000000
54920.000000,59139.000000,52324.000000,51250.000000
55147.000000,59344.000000,52686.000000,51586.000000
55342.000000,59521.000000,52998.000000,51878.000000
55506.000000,59671.000000,53258.000000,52127.000000
55641.000000,59794.000000,53471.000000,52335.000000
55749.000000,59891.000000,53642.000000,52500.000000
55832.000000,59965.000000,53775.000000,52621.000000
55894.000000,60021.000000,53876.000000,52710.000000
55939.000000,60061.000000,53950.000000,52775.000000
55965.000000,60085.000000,53997.000000,52820.000000
55975.000000,60095.000000,54021.000000,52848.000000
55974.000000,60090.000000,54025.000000,52858.000000
55966.000000,60071.000000,54012.000000,52853.000000
55948.000000,60042.000000,53984.000000,52838.000000
55918.000000,60005.000000,53939.000000,52810.000000
55881.000000,59965.000000,53881.000000,52771.000000
55841.000000,59923.000000,53813.000000,52724.000000
55796.000000,59877.000000,53738.000000,52670.000000
55746.000000,59827.000000,53657.000000,52606.000000
55691.000000,59774.000000,53571.000000,52534.000000
55635.000000,59717.000000,53483.000000,52461.000000
55576.000000,59659.000000,53398.000000,52386.000000
55513.000000,59603.000000,53309.000000,52303.000000
55449.000000,59544.000000,53213.000000,52208.000000
55387.000000,59485.000000,53112.000000,52109.000000
55324.000000,59425.000000,53006.000000,52013.000000
55255.000000,59363.000000,52893.000000,51917.000000
55182.000000,59300.000000,52774.000000,51812.000000
55109.000000,59234.000000,52650.000000,51696.000000
55031.000000,59162.000000,52520.000000,51571.000000
54948.000000,59085.000000,52385.000000,51435.000000
54862.000000,59006.000000,52246.000000,51291.000000
54777.000000,58926.000000,52107.000000,51146.000000
54691.000000,58847.000000,51968.000000,51009.000000
54608.000000,58771.000000,51836.000000,50881.000000
54531.000000,58701.000000,51713.000000,50759.000000
54464.000000,58638.000000,51603.000000,50651.000000
54406.000000,58582.000000,51510.000000,50561.000000
54358.000000,58536.000000,51434.000000,50487.000000
54324.000000,58501.000000,51377.000000,50432.000000
54301.000000,58477.000000,51343.000000,50398.000000
54287.000000,58462.000000,51328.000000,50385.000000
54285.000000,58460.000000,51329.000000,50390.000000
54297.000000,58472.000000,51347.000000,50410.000000
54319.000000,58497.000000,51382.000000,50444.000000
54348.000000,58530.000000,51432.000000,50493.000000
54383.000000,58568.000000,51498.000000,50552.000000
54426.000000,58610.000000,51575.000000,50622.000000
54475.000000,58658.000000,51660.000000,50704.000000
54524.000000,58708.000000,51752.000000,50794.000000
54574.000000,58759.000000,51843.000000,50885.000000
54624.000000,58809.000000,51930.000000,50971.000000
54672.000000,58858.000000,52014.000000,51052.000000
54717.000000,58903.000000,52092.000000,51126.000000
54760.000000,58942.000000,52158.000000,51191.000000
54800.000000,58975.000000,52213.000000,51246.000000
54832.000000,59000.000000,52259.000000,51290.000000
54854.000000,59016.000000,52291.000000,51323.000000
54869.000000,59026.000000,52310.000000,51345.000000
54875.000000,59028.000000,52313.000000,51355.000000
54866.000000,59022.000000,52303.000000,51355.000000
54849.000000,59009.000000,52279.000000,51344.000000
54826.000000,58988.000000,52244.000000,51324.000000
54796.000000,58960.000000,52200.000000,51292.000000
54758.000000,58925.000000,52145.000000,51248.000000
54711.000000,58883.000000,52076.000000,51191.000000
54661.000000,58835.000000,51997.000000,51120.000000
54610.000000,58784.000000,51911.000000,51038.000000
54555.000000,58729.000000,51818.000000,50949.000000
54497.000000,58669.000000,51715.000000,50857.000000
54435.000000,58609.000000,51605.000000,50762.000000
54369.000000,58552.000000,51492.000000,50661.000000
54301.000000,58493.000000,51379.000000,50553.000000
54231.000000,58428.000000,51264.000000,50439.000000
54161.000000,58358.000000,51145.000000,50322.000000
54093.000000,58288.000000,51023.000000,50205.000000
54020.000000,58219.000000,50898.000000,50082.000000
53945.000000,58148.000000,50770.000000,49952.000000
53870.000000,58078.000000,50641.000000,49820.000000
53796.000000,58011.000000,50514.000000,49689.000000
53720.000000,57945.000000,50391.000000,49561.000000
53645.000000,57880.000000,50272.000000,49439.000000
53576.000000,57818.000000,50157.000000,49323.000000
53515.000000,57758.000000,50048.000000,49217.000000
53455.000000,57699.000000,49942.000000,49114.000000
53394.000000,57641.000000,49838.000000,49017.000000
53333.000000,57586.000000,49737.000000,48928.000000
53273.000000,57534.000000,49640.000000,48842.000000
53213.000000,57481.000000,49547.000000,48759.000000
53155.000000,57428.000000,49454.000000,48679.000000
53103.000000,57379.000000,49366.000000,48603.000000
53055.000000,57332.000000,49282.000000,48529.000000
53006.000000,57287.000000,49198.000000,48456.000000
52960.000000,57245.000000,49114.000000,48383.000000
52918.000000,57207.000000,49037.000000,48315.000000
52881.000000,57173.000000,48970.000000,48254.000000
52845.000000,57141.000000,48909.000000,48197.000000
52812.000000,57111.000000,48851.000000,48143.000000
52783.000000,57084.000000,48795.000000,48095.000000
52756.000000,57059.000000,48742.000000,48048.000000
52726.000000,57034.000000,48690.000000,47994.000000
52697.000000,57011.000000,48638.000000,47932.000000
52670.000000,56989.000000,48589.000000,47868.000000
52644.000000,56968.000000,48541.000000,47808.000000
52620.000000,56949.000000,48495.000000,47754.000000
52598.000000,56933.000000,48452.000000,47707.000000
52580.000000,56918.000000,48413.000000,47664.000000
52560.000000,56902.000000,48375.000000,47626.000000
52538.000000,56886.000000,48339.000000,47595.000000
52519.000000,56867.000000,48304.000000,47577.000000
52501.000000,56845.000000,48273.000000,47565.000000
52481.000000,56821.000000,48242.000000,47551.000000
52458.000000,56797.000000,48210.000000,47532.000000
52438.000000,56773.000000,48177.000000,47505.000000
52423.000000,56752.000000,48142.000000,47472.000000
52406.000000,56732.000000,48107.000000,47438.000000
52386.000000,56713.000000,48070.000000,47406.000000
52367.000000,56695.000000,48033.000000,47377.000000
52350.000000,56679.000000,47997.000000,47351.000000
52333.000000,56665.000000,47964.000000,47327.000000
52312.000000,56653.000000,47934.000000,47298.000000
52292.000000,56640.000000,47906.000000,47264.000000
52272.000000,56627.000000,47878.000000,47227.000000
52250.000000,56614.000000,47850.000000,47188.000000
52227.000000,56597.000000,47821.000000,47148.000000
52204.000000,56576.000000,47790.000000,47105.000000
52180.000000,56551.000000,47754.000000,47058.000000
52155.000000,56525.000000,47711.000000,47004.000000
52129.000000,56500.000000,47662.000000,46948.000000
52102.000000,56474.000000,47608.000000,46895.000000
52074.000000,56447.000000,47551.000000,46844.000000
52045.000000,56419.000000,47493.000000,46791.000000
52013.000000,56390.000000,47434.000000,46734.000000
51978.000000,56360.000000,47375.000000,46673.000000
51940.000000,56330.000000,47315.000000,46611.000000
51898.000000,56297.000000,47251.000000,46547.000000
51854.000000,56262.000000,47180.000000,46480.000000
51813.000000,56224.000000,47103.000000,46409.000000
51769.000000,56186.000000,47025.000000,46339.000000
51724.000000,56150.000000,46947.000000,46270.000000
51679.000000,56116.000000,46873.000000,46202.000000
51638.000000,56080.000000,46802.000000,46134.000000
51599.000000,56042.000000,46734.000000,46069.000000
51561.000000,56005.000000,46671.000000,46008.000000
51528.000000,55972.000000,46617.000000,45956.000000
51502.000000,55947.000000,46578.000000,45919.000000
51484.000000,55931.000000,46556.000000,45903.000000
51477.000000,55926.000000,46557.000000,45904.000000
51489.000000,55937.000000,46590.000000,45932.000000
51528.000000,55974.000000,46668.000000,46003.000000
51604.000000,56043.000000,46803.000000,46130.000000
51720.000000,56149.000000,47007.000000,46321.000000
51880.000000,56294.000000,47286.000000,46584.000000
52084.000000,56482.000000,47643.000000,46921.000000
52329.000000,56711.000000,48072.000000,47328.000000
52612.000000,56976.000000,48561.000000,47795.000000
52926.000000,57267.000000,49092.000000,48305.000000
53258.000000,57572.000000,49646.000000,48836.000000
53597.000000,57881.000000,50205.000000,49371.000000
53931.000000,58183.000000,50751.000000,49893.000000
54252.000000,58473.000000,51270.000000,50390.000000
54552.000000,58745.000000,51755.000000,50850.000000
54823.000000,58995.000000,52196.000000,51268.000000
55065.000000,59218.000000,52589.000000,51637.000000
55280.000000,59415.000000,52936.000000,51957.000000
55469.000000,59586.000000,53236.000000,52232.000000
55628.000000,59730.000000,53488.000000,52463.000000
55759.000000,59847.000000,53699.000000,52653.000000
55866.000000,59940.000000,53871.000000,52808.000000
55948.000000,60014.000000,54006.000000,52932.000000
56010.000000,60069.000000,54106.000000,53024.000000
56056.000000,60105.000000,54175.000000,53085.000000
56087.000000,60124.000000,54221.000000,53120.000000
56104.000000,60131.000000,54247.000000,53136.000000
56106.000000,60126.000000,54253.000000,53136.000000
56097.000000,60113.000000,54240.000000,53123.000000
56082.000000,60094.000000,54208.000000,53100.000000
56058.000000,60070.000000,54161.000000,53067.000000
56021.000000,60038.000000,54100.000000,53022.000000
55977.000000,59998.000000,54031.000000,52965.000000
55929.000000,59952.000000,53957.000000,52900.000000
55877.000000,59904.000000,53880.000000,52829.000000
55821.000000,59854.000000,53803.000000,52751.000000
55764.000000,59803.000000,53723.000000,52666.000000
55709.000000,59754.000000,53639.000000,52578.000000
55652.000000,59703.000000,53552.000000,52488.000000
55588.000000,59648.000000,53458.000000,52395.000000
55521.000000,59588.000000,53355.000000,52298.000000
55449.000000,59525.000000,53242.000000,52193.000000
55369.000000,59458.000000,53120.000000,52082.000000
55285.000000,59387.000000,52988.000000,51963.000000
55198.000000,59311.000000,52850.000000,51836.000000
55106.000000,59229.000000,52707.000000,51705.000000
55009.000000,59140.000000,52558.000000,51570.000000
54908.000000,59044.000000,52403.000000,51431.000000
54806.000000,58947.000000,52246.000000,51292.000000
54709.000000,58855.000000,52093.000000,51157.000000
54618.000000,58771.000000,51949.000000,51028.000000
54537.000000,58695.000000,51815.000000,50909.000000
54468.000000,58629.000000,51694.000000,50808.000000
54410.000000,58572.000000,51591.000000,50724.000000
54359.000000,58520.000000,51508.000000,50656.000000
54317.000000,58476.000000,51444.000000,50602.000000
54288.000000,58441.000000,51397.000000,50564.000000
54274.000000,58422.000000,51372.000000,50545.000000
54272.000000,58417.000000,51368.000000,50548.000000
54281.000000,58424.000000,51386.000000,50570.000000
54302.000000,58440.000000,51423.000000,50609.000000
54336.000000,58465.000000,51475.000000,50664.000000
54377.000000,58500.000000,51540.000000,50729.000000
54425.000000,58546.000000,51615.000000,50798.000000
54480.000000,58599.000000,51697.000000,50870.000000
54539.000000,58653.000000,51781.000000,50946.000000
54593.000000,58706.000000,51862.000000,51023.000000
54640.000000,58756.000000,51939.000000,51092.000000
54682.000000,58801.000000,52012.000000,51150.000000
54718.000000,58838.000000,52076.000000,51197.000000
54742.000000,58863.000000,52124.000000,51231.000000
54755.000000,58876.000000,52155.000000,51249.000000
54756.000000,58880.000000,52173.000000,51255.000000
54749.000000,58877.000000,52179.000000,51253.000000
54735.000000,58866.000000,52171.000000,51240.000000
54716.000000,58848.000000,52149.000000,51215.000000
54692.000000,58822.000000,52115.000000,51181.000000
54662.000000,58792.000000,52070.000000,51138.000000
54624.000000,58758.000000,52012.000000,51082.000000
54580.000000,58721.000000,51941.000000,51017.000000
54530.000000,58680.000000,51859.000000,50944.000000
54474.000000,58632.000000,51767.000000,50860.000000
54411.000000,58576.000000,51664.000000,50759.000000
54341.000000,58511.000000,51550.000000,50645.000000
54265.000000,58442.000000,51429.000000,50520.000000
54182.000000,58373.000000,51300.000000,50386.000000
54091.000000,58299.000000,51166.000000,50250.000000
54001.000000,58221.000000,51029.000000,50112.000000
53913.000000,58142.000000,50890.000000,49973.000000
53822.000000,58059.000000,50751.000000,49837.000000
53731.000000,57973.000000,50607.000000,49706.000000
53643.000000,57887.000000,50460.000000,49574.000000
53557.000000,57803.000000,50315.000000,49444.000000
53471.000000,57720.000000,50172.000000,49317.000000
53386.000000,57639.000000,50030.000000,49191.000000
53307.000000,57564.000000,49887.000000,49066.000000
53233.000000,57492.000000,49746.000000,48945.000000
53162.000000,57423.000000,49611.000000,48825.000000
53091.000000,57356.000000,49481.000000,48705.000000
53021.000000,57292.000000,49358.000000,48585.000000
52952.000000,57230.000000,49240.000000,48463.000000
52882.000000,57168.000000,49125.000000,48339.000000
52811.000000,57107.000000,49010.000000,48215.000000
52742.000000,57048.000000,48899.000000,48091.000000
52676.000000,56990.000000,48791.000000,47970.000000
52611.000000,56932.000000,48685.000000,47854.000000
52548.000000,56877.000000,48577.000000,47742.000000
52489.000000,56825.000000,48473.000000,47633.000000
52431.000000,56776.000000,48373.000000,47530.000000
52374.000000,56725.000000,48276.000000,47431.000000
52319.000000,56672.000000,48182.000000,47335.000000
52265.000000,56621.000000,48095.000000,47242.000000
52209.000000,56574.000000,48015.000000,47154.000000
52154.000000,56530.000000,47937.000000,47075.000000
52104.000000,56491.000000,47859.000000,47002.000000
52058.000000,56457.000000,47784.000000,46934.000000
52013.000000,56424.000000,47716.000000,46870.000000
51971.000000,56390.000000,47654.000000,46806.000000
51933.000000,56355.000000,47593.000000,46742.000000
51899.000000,56320.000000,47532.000000,46685.000000
51863.000000,56286.000000,47473.000000,46638.000000
51824.000000,56251.000000,47413.000000,46595.000000
51785.000000,56216.000000,47349.000000,46552.000000
51749.000000,56177.000000,47285.000000,46507.000000
51715.000000,56137.000000,47229.000000,46461.000000
51682.000000,56102.000000,47182.000000,46413.000000
51649.000000,56073.000000,47139.000000,46364.000000
51621.000000,56050.000000,47095.000000,46314.000000
51596.000000,56031.000000,47051.000000,46267.000000
51572.000000,56014.000000,47007.000000,46223.000000
51550.000000,55996.000000,46964.000000,46186.000000
51531.000000,55980.000000,46924.000000,46150.000000
51511.000000,55961.000000,46886.000000,46109.000000
51488.000000,55938.000000,46845.000000,46065.000000
51465.000000,55915.000000,46801.000000,46025.000000
51443.000000,55894.000000,46757.000000,45986.000000
51418.000000,55872.000000,46715.000000,45944.000000
51389.000000,55846.000000,46676.000000,45897.000000
51361.000000,55820.000000,46637.000000,45844.000000
51333.000000,55795.000000,46599.000000,45792.000000
51302.000000,55771.000000,46562.000000,45743.000000
51273.000000,55748.000000,46524.000000,45695.000000
51249.000000,55727.000000,46486.000000,45650.000000
51230.000000,55709.000000,46448.000000,45608.000000
51210.000000,55689.000000,46408.000000,45563.000000
51190.000000,55667.000000,46365.000000,45517.000000
51169.000000,55643.000000,46321.000000,45473.000000
51145.000000,55616.000000,46277.000000,45431.000000
51113.000000,55584.000000,46230.000000,45388.000000
51077.000000,55550.000000,46178.000000,45341.000000
51038.000000,55516.000000,46122.000000,45291.000000
50998.000000,55480.000000,46064.000000,45240.000000
50956.000000,55442.000000,46006.000000,45189.000000
50914.000000,55404.000000,45946.000000,45136.000000
50872.000000,55367.000000,45882.000000,45079.000000
50830.000000,55330.000000,45814.000000,45020.000000
50787.000000,55292.000000,45745.000000,44960.000000
50744.000000,55255.000000,45675.000000,44896.000000
50703.000000,55219.000000,45608.000000,44834.000000
50661.000000,55183.000000,45541.000000,44780.000000
50618.000000,55145.000000,45470.000000,44729.000000
50576.000000,55105.000000,45396.000000,44677.000000
50533.000000,55063.000000,45320.000000,44627.000000
50489.000000,55021.000000,45244.000000,44576.000000
50447.000000,54981.000000,45169.000000,44519.000000
50408.000000,54944.000000,45094.000000,44458.000000
50375.000000,54911.000000,45024.000000,44401.000000
50341.000000,54880.000000,44958.000000,44355.000000
50307.000000,54850.000000,44895.000000,44311.000000
50275.000000,54822.000000,44834.000000,44261.000000
50246.000000,54796.000000,44779.000000,44210.000000
50217.000000,54775.000000,44734.000000,44159.000000
50193.000000,54759.000000,44698.000000,44110.000000
50181.000000,54748.000000,44674.000000,44069.000000
50180.000000,54746.000000,44666.000000,44046.000000
50189.000000,54756.000000,44682.000000,44048.000000
50215.000000,54782.000000,44728.000000,44081.000000
50263.000000,54831.000000,44815.000000,44153.000000
50343.000000,54910.000000,44957.000000,44277.000000
50461.000000,55024.000000,45167.000000,44464.000000
50623.000000,55176.000000,45457.000000,44721.000000
50833.000000,55371.000000,45831.000000,45055.000000
51088.000000,55608.000000,46286.000000,45466.000000
51379.000000,55877.000000,46805.000000,45938.000000
51695.000000,56168.000000,47369.000000,46450.000000
52027.000000,56476.000000,47957.000000,46985.000000
52365.000000,56792.000000,48553.000000,47533.000000
52701.000000,57107.000000,49140.000000,48078.000000
53030.000000,57413.000000,49707.000000,48608.000000
53347.000000,57705.000000,50245.000000,49112.000000
53646.000000,57983.000000,50743.000000,49576.000000
53919.000000,58239.000000,51189.000000,49990.000000
54164.000000,58467.000000,51582.000000,50357.000000
54378.000000,58662.000000,51923.000000,50680.000000
54561.000000,58829.000000,52213.000000,50960.000000
54710.000000,58968.000000,52456.000000,51196.000000
54831.000000,59079.000000,52654.000000,51390.000000
54926.000000,59163.000000,52807.000000,51544.000000
54999.000000,59224.000000,52921.000000,51661.000000
55047.000000,59265.000000,53001.000000,51743.000000
55076.000000,59289.000000,53051.000000,51795.000000
55089.000000,59298.000000,53076.000000,51817.000000
55088.000000,59294.000000,53081.000000,51815.000000
55074.000000,59279.000000,53065.000000,51795.000000
55051.000000,59256.000000,53030.000000,51760.000000
55018.000000,59226.000000,52979.000000,51712.000000
54971.000000,59184.000000,52918.000000,51654.000000
54914.000000,59131.000000,52843.000000,51587.000000
54852.000000,59074.000000,52754.000000,51511.000000
54788.000000,59016.000000,52657.000000,51430.000000
54720.000000,58957.000000,52551.000000,51349.000000
54646.000000,58896.000000,52436.000000,51260.000000
54568.000000,58831.000000,52316.000000,51162.000000
54488.000000,58762.000000,52190.000000,51058.000000
54398.000000,58686.000000,52056.000000,50947.000000
54301.000000,58602.000000,51910.000000,50820.000000
54204.000000,58514.000000,51751.000000,50681.000000
54106.000000,58420.000000,51583.000000,50531.000000
54004.000000,58322.000000,51410.000000,50376.000000
53900.000000,58222.000000,51235.000000,50217.000000
53797.000000,58123.000000,51058.000000,50057.000000
53695.000000,58024.000000,50879.000000,49894.000000
53592.000000,57927.000000,50697.000000,49732.000000
53492.000000,57832.000000,50521.000000,49578.000000
53400.000000,57746.000000,50357.000000,49437.000000
53319.000000,57672.000000,50212.000000,49313.000000
53248.000000,57612.000000,50089.000000,49210.000000
53190.000000,57564.000000,49989.000000,49124.000000
53150.000000,57531.000000,49914.000000,49055.000000
53129.000000,57515.000000,49865.000000,49012.000000
53123.000000,57517.000000,49844.000000,48995.000000
53132.000000,57534.000000,49849.000000,48998.000000
53156.000000,57565.000000,49881.000000,49027.000000
53195.000000,57607.000000,49938.000000,49084.000000
53244.000000,57654.000000,50021.000000,49166.000000
53301.000000,57704.000000,50126.000000,49263.000000
53366.000000,57757.000000,50242.000000,49368.000000
53437.000000,57810.000000,50363.000000,49477.000000
53511.000000,57865.000000,50485.000000,49586.000000
53588.000000,57927.000000,50608.000000,49695.000000
53664.000000,57995.000000,50735.000000,49806.000000
53739.000000,58065.000000,50861.000000,49918.000000
53806.000000,58129.000000,50984.000000,50025.000000
53866.000000,58187.000000,51098.000000,50124.000000
53919.000000,58237.000000,51198.000000,50217.000000
53964.000000,58278.000000,51281.000000,50302.000000
53998.000000,58308.000000,51344.000000,50370.000000
54024.000000,58331.000000,51389.000000,50423.000000
54045.000000,58348.000000,51419.000000,50466.000000
54060.000000,58360.000000,51434.000000,50496.000000
54068.000000,58365.000000,51433.000000,50511.000000
54068.000000,58363.000000,51417.000000,50511.000000
54063.000000,58354.000000,51389.000000,50497.000000
54050.000000,58337.000000,51346.000000,50466.000000
54028.000000,58310.000000,51291.000000,50416.000000
54001.000000,58272.000000,51225.000000,50351.000000
53964.000000,58231.000000,51148.000000,50276.000000
53915.000000,58185.000000,51063.000000,50188.000000
53855.000000,58132.000000,50970.000000,50085.000000
53791.000000,58074.000000,50872.000000,49970.000000
53724.000000,58013.000000,50765.000000,49847.000000
53652.000000,57949.000000,50647.000000,49720.000000
53578.000000,57879.000000,50524.000000,49589.000000
53510.000000,57808.000000,50397.000000,49457.000000
53441.000000,57737.000000,50269.000000,49332.000000
53363.000000,57665.000000,50139.000000,49215.000000
53281.000000,57593.000000,50008.000000,49104.000000
53201.000000,57521.000000,49876.000000,49000.000000
53124.000000,57452.000000,49747.000000,48900.000000
53050.000000,57385.000000,49621.000000,48803.000000
52978.000000,57317.000000,49502.000000,48703.000000
52913.000000,57253.000000,49391.000000,48598.000000
52852.000000,57195.000000,49288.000000,48495.000000
52794.000000,57144.000000,49190.000000,48398.000000
52740.000000,57097.000000,49093.000000,48303.000000
52690.000000,57053.000000,49000.000000,48210.000000
52640.000000,57009.000000,48912.000000,48119.000000
52590.000000,56964.000000,48827.000000,48030.000000
52542.000000,56920.000000,48745.000000,47943.000000
52497.000000,56879.000000,48668.000000,47858.000000
52454.000000,56844.000000,48597.000000,47776.000000
52414.000000,56814.000000,48532.000000,47701.000000
52377.000000,56786.000000,48467.000000,47632.000000
52341.000000,56757.000000,48405.000000,47568.000000
52304.000000,56725.000000,48345.000000,47513.000000
52265.000000,56692.000000,48287.000000,47466.000000
52230.000000,56661.000000,48229.000000,47426.000000
52200.000000,56631.000000,48169.000000,47392.000000
52172.000000,56603.000000,48111.000000,47359.000000
52146.000000,56577.000000,48057.000000,47326.000000
52122.000000,56553.000000,48008.000000,47296.000000
52102.000000,56532.000000,47963.000000,47267.000000
52084.000000,56513.000000,47920.000000,47236.000000
52065.000000,56494.000000,47876.000000,47204.000000
52048.000000,56477.000000,47835.000000,47172.000000
52036.000000,56465.000000,47802.000000,47138.000000
52028.000000,56452.000000,47777.000000,47104.000000
52019.000000,56439.000000,47754.000000,47069.000000
52008.000000,56426.000000,47729.000000,47034.000000
51993.000000,56414.000000,47703.000000,47000.000000
51973.000000,56399.000000,47676.000000,46965.000000
51952.000000,56385.000000,47648.000000,46933.000000
51932.000000,56371.000000,47620.000000,46901.000000
51914.000000,56356.000000,47591.000000,46869.000000
51896.000000,56338.000000,47560.000000,46836.000000
51877.000000,56320.000000,47529.000000,46800.000000
51858.000000,56304.000000,47501.000000,46766.000000
51841.000000,56291.000000,47474.000000,46733.000000
51821.000000,56277.000000,47445.000000,46704.000000
51801.000000,56260.000000,47415.000000,46676.000000
51782.000000,56241.000000,47383.000000,46651.000000
51761.000000,56222.000000,47348.000000,46627.000000
51738.000000,56201.000000,47310.000000,46601.000000
51714.000000,56179.000000,47269.000000,46571.000000
51691.000000,56158.000000,47225.000000,46540.000000
51667.000000,56134.000000,47183.000000,46509.000000
51639.000000,56109.000000,47143.000000,46477.000000
51608.000000,56084.000000,47101.000000,46443.000000
51583.000000,56060.000000,47057.000000,46407.000000
51559.000000,56037.000000,47013.000000,46368.000000
51536.000000,56014.000000,46972.000000,46327.000000
51511.000000,55991.000000,46929.000000,46279.000000
51485.000000,55965.000000,46882.000000,46224.000000
51456.000000,55936.000000,46829.000000,46166.000000
51424.000000,55906.000000,46771.000000,46108.000000
51391.000000,55877.000000,46715.000000,46047.000000
51358.000000,55852.000000,46660.000000,45982.000000
51322.000000,55827.000000,46608.000000,45915.000000
51285.000000,55800.000000,46554.000000,45851.000000
51250.000000,55770.000000,46495.000000,45787.000000
51215.000000,55736.000000,46433.000000,45724.000000
51176.000000,55700.000000,46372.000000,45668.000000
51134.000000,55662.000000,46311.000000,45615.000000
51093.000000,55624.000000,46249.000000,45565.000000
51053.000000,55584.000000,46187.000000,45524.000000
51011.000000,55547.000000,46125.000000,45490.000000
50972.000000,55515.000000,46067.000000,45460.000000
50939.000000,55489.000000,46015.000000,45436.000000
50915.000000,55470.000000,45973.000000,45415.000000
50900.000000,55461.000000,45945.000000,45401.000000
50900.000000,55466.000000,45934.000000,45399.000000
50918.000000,55484.000000,45949.000000,45421.000000
50959.000000,55518.000000,45998.000000,45473.000000
51025.000000,55576.000000,46095.000000,45567.000000
51122.000000,55667.000000,46252.000000,45709.000000
51260.000000,55791.000000,46478.000000,45911.000000
51440.000000,55954.000000,46779.000000,46182.000000
51661.000000,56156.000000,47156.000000,46523.000000
51922.000000,56398.000000,47605.000000,46931.000000
52221.000000,56676.000000,48118.000000,47395.000000
52548.000000,56980.000000,48678.000000,47905.000000
52890.000000,57298.000000,49264.000000,48446.000000
53239.000000,57620.000000,49856.000000,49000.000000
53586.000000,57940.000000,50437.000000,49543.000000
53921.000000,58246.000000,50993.000000,50061.000000
54233.000000,58527.000000,51511.000000,50546.000000
54520.000000,58783.000000,51980.000000,50989.000000
54776.000000,59013.000000,52395.000000,51388.000000
55000.000000,59216.000000,52759.000000,51739.000000
55193.000000,59387.000000,53070.000000,52040.000000
55357.000000,59530.000000,53331.000000,52291.000000
55497.000000,59649.000000,53546.000000,52500.000000
55613.000000,59746.000000,53721.000000,52676.000000
55703.000000,59820.000000,53857.000000,52820.000000
55769.000000,59871.000000,53960.000000,52933.000000
55816.000000,59904.000000,54035.000000,53018.000000
55845.000000,59921.000000,54085.000000,53076.000000
55860.000000,59928.000000,54112.000000,53114.000000
55864.000000,59929.000000,54116.000000,53133.000000
55861.000000,59924.000000,54100.000000,53131.000000
55847.000000,59911.000000,54070.000000,53108.000000
55825.000000,59890.000000,54028.000000,53068.000000
55798.000000,59861.000000,53972.000000,53015.000000
55768.000000,59826.000000,53905.000000,52949.000000
55728.000000,59788.000000,53830.000000,52873.000000
55680.000000,59744.000000,53748.000000,52793.000000
55626.000000,59694.000000,53659.000000,52709.000000
55568.000000,59639.000000,53568.000000,52620.000000
55506.000000,59580.000000,53474.000000,52526.000000
55444.000000,59521.000000,53373.000000,52428.000000
55379.000000,59460.000000,53265.000000,52326.000000
55309.000000,59394.000000,53147.000000,52218.000000
55231.000000,59322.000000,53019.000000,52096.000000
55144.000000,59240.000000,52881.000000,51963.000000
55051.000000,59149.000000,52734.000000,51823.000000
54957.000000,59053.000000,52579.000000,51680.000000
54857.000000,58955.000000,52419.000000,51534.000000
54752.000000,58854.000000,52254.000000,51385.000000
54644.000000,58755.000000,52091.000000,51235.000000
54539.000000,58657.000000,51934.000000,51088.000000
54439.000000,58565.000000,51786.000000,50950.000000
54351.000000,58482.000000,51648.000000,50827.000000
54276.000000,58412.000000,51524.000000,50720.000000
54212.000000,58353.000000,51417.000000,50633.000000
54160.000000,58306.000000,51329.000000,50567.000000
54123.000000,58271.000000,51261.000000,50519.000000
54102.000000,58251.000000,51216.000000,50488.000000
54096.000000,58243.000000,51195.000000,50476.000000
54104.000000,58246.000000,51199.000000,50485.000000
54127.000000,58263.000000,51227.000000,50516.000000
54167.000000,58296.000000,51278.000000,50569.000000
54216.000000,58343.000000,51347.000000,50644.000000
54271.000000,58397.000000,51435.000000,50731.000000
54330.000000,58456.000000,51538.000000,50825.000000
54395.000000,58519.000000,51649.000000,50924.000000
54461.000000,58581.000000,51766.000000,51027.000000
54524.000000,58639.000000,51884.000000,51132.000000
54587.000000,58696.000000,51998.000000,51239.000000
