660nm,730nm,850nm,940nm
54287.000000,26835.000000,5505.000000,41586.000000
54248.000000,26792.000000,5413.000000,41537.000000
54206.000000,26744.000000,5323.000000,41489.000000
54141.000000,26683.000000,5250.000000,41445.000000
54087.000000,26637.000000,5200.000000,41399.000000
54080.000000,26630.000000,5186.000000,41363.000000
54110.000000,26659.000000,5228.000000,41360.000000
54164.000000,26718.000000,5330.000000,41401.000000
54258.000000,26817.000000,5478.000000,41489.000000
54412.000000,26967.000000,5673.000000,41636.000000
54597.000000,27148.000000,5920.000000,41856.000000
54787.000000,27343.000000,6209.000000,42138.000000
55000.000000,27565.000000,6531.000000,42447.000000
55253.000000,27820.000000,6887.000000,42770.000000
55522.000000,28090.000000,7284.000000,43117.000000
55794.000000,28367.000000,7707.000000,43480.000000
56080.000000,28657.000000,8129.000000,43845.000000
56380.000000,28952.000000,8548.000000,44223.000000
56662.000000,29231.000000,8967.000000,44620.000000
56911.000000,29487.000000,9378.000000,45005.000000
57150.000000,29731.000000,9765.000000,45356.000000
57393.000000,29971.000000,10129.000000,45681.000000
57618.000000,30195.000000,10482.000000,45990.000000
57823.000000,30397.000000,10815.000000,46278.000000
58030.000000,30590.000000,11108.000000,46528.000000
58232.000000,30769.000000,11361.000000,46742.000000
58388.000000,30905.000000,11578.000000,46933.000000
58498.000000,31001.000000,11755.000000,47095.000000
58595.000000,31079.000000,11887.000000,47218.000000
58684.000000,31145.000000,11991.000000,47310.000000
58735.000000,31184.000000,12078.000000,47373.000000
58755.000000,31204.000000,12135.000000,47408.000000
58782.000000,31227.000000,12158.000000,47418.000000
58810.000000,31243.000000,12157.000000,47421.000000
58804.000000,31228.000000,12138.000000,47428.000000
58767.000000,31188.000000,12093.000000,47419.000000
58725.000000,31140.000000,12021.000000,47385.000000
58683.000000,31091.000000,11944.000000,47340.000000
58617.000000,31035.000000,11877.000000,47297.000000
58543.000000,30984.000000,11810.000000,47242.000000
58497.000000,30957.000000,11737.000000,47158.000000
58470.000000,30940.000000,11659.000000,47079.000000
58431.000000,30912.000000,11583.000000,47026.000000
58384.000000,30877.000000,11505.000000,46979.000000
58346.000000,30845.000000,11430.000000,46930.000000
58306.000000,30808.000000,11370.000000,46892.000000
58253.000000,30763.000000,11328.000000,46861.000000
58210.000000,30725.000000,11292.000000,46817.000000
58200.000000,30707.000000,11263.000000,46770.000000
58197.000000,30692.000000,11248.000000,46742.000000
58177.000000,30669.000000,11238.000000,46715.000000
58157.000000,30646.000000,11216.000000,46676.000000
58151.000000,30632.000000,11189.000000,46632.000000
58139.000000,30615.000000,11169.000000,46598.000000
58104.000000,30582.000000,11149.000000,46569.000000
58070.000000,30552.000000,11119.000000,46520.000000
58054.000000,30535.000000,11085.000000,46460.000000
58034.000000,30514.000000,11054.000000,46418.000000
57996.000000,30483.000000,11016.000000,46386.000000
57955.000000,30454.000000,10962.000000,46346.000000
57923.000000,30426.000000,10903.000000,46316.000000
57879.000000,30385.000000,10855.000000,46314.000000
57827.000000,30337.000000,10814.000000,46319.000000
57798.000000,30309.000000,10775.000000,46305.000000
57791.000000,30305.000000,10749.000000,46284.000000
57787.000000,30307.000000,10748.000000,46271.000000
57786.000000,30311.000000,10761.000000,46271.000000
57812.000000,30331.000000,10772.000000,46279.000000
57855.000000,30361.000000,10794.000000,46307.000000
57881.000000,30383.000000,10833.000000,46362.000000
57899.000000,30408.000000,10881.000000,46412.000000
57944.000000,30456.000000,10932.000000,46437.000000
58007.000000,30516.000000,10994.000000,46465.000000
58057.000000,30566.000000,11072.000000,46508.000000
58098.000000,30609.000000,11149.000000,46560.000000
58151.000000,30658.000000,11214.000000,46610.000000
58203.000000,30705.000000,11274.000000,46664.000000
58229.000000,30732.000000,11329.000000,46726.000000
58242.000000,30753.000000,11371.000000,46775.000000
58267.000000,30783.000000,11404.000000,46801.000000
58298.000000,30815.000000,11438.000000,46813.000000
58315.000000,30833.000000,11477.000000,46815.000000
58330.000000,30848.000000,11502.000000,46806.000000
58360.000000,30870.000000,11508.000000,46792.000000
58378.000000,30876.000000,11501.000000,46793.000000
58359.000000,30849.000000,11480.000000,46808.000000
58324.000000,30808.000000,11435.000000,46807.000000
58292.000000,30769.000000,11379.000000,46784.000000
58250.000000,30724.000000,11330.000000,46753.000000
58189.000000,30669.000000,11284.000000,46712.000000
58136.000000,30619.000000,11225.000000,46659.000000
58104.000000,30580.000000,11158.000000,46609.000000
58066.000000,30533.000000,11090.000000,46576.000000
58004.000000,30470.000000,11011.000000,46546.000000
57939.000000,30409.000000,10914.000000,46493.000000
57883.000000,30354.000000,10809.000000,46421.000000
57816.000000,30291.000000,10715.000000,46344.000000
57737.000000,30223.000000,10629.000000,46256.000000
57676.000000,30176.000000,10544.000000,46148.000000
57639.000000,30143.000000,10460.000000,46043.000000
57593.000000,30098.000000,10384.000000,45956.000000
57530.000000,30038.000000,10308.000000,45870.000000
57475.000000,29985.000000,10219.000000,45783.000000
57432.000000,29936.000000,10126.000000,45707.000000
57369.000000,29870.000000,10037.000000,45648.000000
57291.000000,29793.000000,9946.000000,45584.000000
57230.000000,29727.000000,9851.000000,45498.000000
57186.000000,29667.000000,9760.000000,45415.000000
57129.000000,29599.000000,9683.000000,45345.000000
57066.000000,29532.000000,9600.000000,45272.000000
57026.000000,29488.000000,9507.000000,45200.000000
56994.000000,29447.000000,9416.000000,45147.000000
56932.000000,29384.000000,9329.000000,45111.000000
56854.000000,29310.000000,9238.000000,45062.000000
56791.000000,29250.000000,9145.000000,44992.000000
56741.000000,29203.000000,9064.000000,44910.000000
56682.000000,29157.000000,9000.000000,44820.000000
56623.000000,29117.000000,8938.000000,44723.000000
56591.000000,29094.000000,8876.000000,44630.000000
56566.000000,29072.000000,8823.000000,44558.000000
56519.000000,29033.000000,8771.000000,44512.000000
56463.000000,28989.000000,8706.000000,44472.000000
56417.000000,28948.000000,8632.000000,44429.000000
56364.000000,28900.000000,8566.000000,44384.000000
56293.000000,28841.000000,8510.000000,44332.000000
56232.000000,28795.000000,8457.000000,44269.000000
56199.000000,28766.000000,8404.000000,44206.000000
56170.000000,28739.000000,8363.000000,44155.000000
56131.000000,28706.000000,8332.000000,44103.000000
56103.000000,28674.000000,8288.000000,44046.000000
56093.000000,28650.000000,8236.000000,44004.000000
56072.000000,28617.000000,8192.000000,43986.000000
56029.000000,28571.000000,8151.000000,43975.000000
55993.000000,28539.000000,8105.000000,43944.000000
55975.000000,28525.000000,8063.000000,43894.000000
55954.000000,28509.000000,8035.000000,43841.000000
55926.000000,28490.000000,8010.000000,43789.000000
55916.000000,28482.000000,7972.000000,43743.000000
55918.000000,28480.000000,7928.000000,43712.000000
55900.000000,28459.000000,7890.000000,43697.000000
55864.000000,28424.000000,7848.000000,43670.000000
55842.000000,28398.000000,7795.000000,43618.000000
55832.000000,28379.000000,7743.000000,43565.000000
55807.000000,28348.000000,7701.000000,43525.000000
55767.000000,28307.000000,7659.000000,43489.000000
55746.000000,28281.000000,7609.000000,43449.000000
55736.000000,28263.000000,7562.000000,43413.000000
55702.000000,28228.000000,7518.000000,43385.000000
55650.000000,28184.000000,7469.000000,43342.000000
55614.000000,28148.000000,7412.000000,43284.000000
55589.000000,28122.000000,7364.000000,43224.000000
55550.000000,28091.000000,7328.000000,43168.000000
55504.000000,28060.000000,7288.000000,43119.000000
55482.000000,28040.000000,7240.000000,43076.000000
55469.000000,28018.000000,7194.000000,43046.000000
55433.000000,27976.000000,7145.000000,43030.000000
55380.000000,27925.000000,7081.000000,43006.000000
55334.000000,27875.000000,6999.000000,42963.000000
55288.000000,27824.000000,6923.000000,42914.000000
55224.000000,27769.000000,6860.000000,42860.000000
55157.000000,27723.000000,6800.000000,42796.000000
55114.000000,27695.000000,6736.000000,42727.000000
55079.000000,27665.000000,6669.000000,42673.000000
55025.000000,27617.000000,6599.000000,42622.000000
54967.000000,27562.000000,6517.000000,42550.000000
54925.000000,27510.000000,6425.000000,42469.000000
54877.000000,27450.000000,6341.000000,42396.000000
54811.000000,27382.000000,6269.000000,42320.000000
54760.000000,27328.000000,6201.000000,42233.000000
54741.000000,27299.000000,6146.000000,42152.000000
54732.000000,27280.000000,6119.000000,42109.000000
54723.000000,27269.000000,6122.000000,42099.000000
54739.000000,27286.000000,6149.000000,42112.000000
54802.000000,27345.000000,6218.000000,42170.000000
54897.000000,27438.000000,6353.000000,42295.000000
55020.000000,27568.000000,6553.000000,42477.000000
55200.000000,27751.000000,6808.000000,42686.000000
55437.000000,27982.000000,7119.000000,42930.000000
55693.000000,28230.000000,7481.000000,43234.000000
55954.000000,28487.000000,7871.000000,43587.000000
56235.000000,28761.000000,8268.000000,43971.000000
56528.000000,29045.000000,8674.000000,44373.000000
56799.000000,29316.000000,9091.000000,44781.000000
57056.000000,29579.000000,9512.000000,45173.000000
57330.000000,29855.000000,9930.000000,45534.000000
57614.000000,30135.000000,10338.000000,45881.000000
57875.000000,30400.000000,10732.000000,46222.000000
58105.000000,30640.000000,11091.000000,46545.000000
58328.000000,30864.000000,11409.000000,46848.000000
58536.000000,31068.000000,11703.000000,47135.000000
58699.000000,31235.000000,11977.000000,47399.000000
58835.000000,31378.000000,12223.000000,47609.000000
58979.000000,31519.000000,12438.000000,47761.000000
59117.000000,31646.000000,12626.000000,47883.000000
59221.000000,31743.000000,12781.000000,47983.000000
59297.000000,31811.000000,12889.000000,48055.000000
59364.000000,31863.000000,12949.000000,48099.000000
59407.000000,31887.000000,12979.000000,48127.000000
59405.000000,31874.000000,12989.000000,48139.000000
59378.000000,31848.000000,12978.000000,48123.000000
59348.000000,31824.000000,12947.000000,48086.000000
59311.000000,31789.000000,12907.000000,48041.000000
59257.000000,31736.000000,12860.000000,47992.000000
59209.000000,31686.000000,12796.000000,47932.000000
59181.000000,31646.000000,12719.000000,47868.000000
59147.000000,31599.000000,12644.000000,47821.000000
59089.000000,31539.000000,12569.000000,47782.000000
59033.000000,31483.000000,12488.000000,47730.000000
58996.000000,31441.000000,12411.000000,47678.000000
58958.000000,31404.000000,12355.000000,47635.000000
58909.000000,31366.000000,12311.000000,47588.000000
58878.000000,31341.000000,12264.000000,47531.000000
58869.000000,31329.000000,12217.000000,47480.000000
58850.000000,31305.000000,12177.000000,47462.000000
58814.000000,31272.000000,12143.000000,47461.000000
58794.000000,31254.000000,12111.000000,47449.000000
58793.000000,31251.000000,12086.000000,47427.000000
58784.000000,31243.000000,12077.000000,47409.000000
58764.000000,31229.000000,12076.000000,47397.000000
58760.000000,31227.000000,12069.000000,47385.000000
58763.000000,31225.000000,12049.000000,47374.000000
58738.000000,31201.000000,12016.000000,47367.000000
58695.000000,31165.000000,11975.000000,47340.000000
58669.000000,31141.000000,11929.000000,47283.000000
58652.000000,31122.000000,11889.000000,47224.000000
58618.000000,31089.000000,11860.000000,47178.000000
58575.000000,31051.000000,11825.000000,47136.000000
58556.000000,31029.000000,11782.000000,47097.000000
58550.000000,31015.000000,11741.000000,47073.000000
58525.000000,30988.000000,11707.000000,47067.000000
58487.000000,30960.000000,11680.000000,47061.000000
58465.000000,30948.000000,11661.000000,47055.000000
58462.000000,30947.000000,11662.000000,47053.000000
58462.000000,30952.000000,11686.000000,47054.000000
58476.000000,30973.000000,11717.000000,47053.000000
58521.000000,31021.000000,11751.000000,47052.000000
58573.000000,31075.000000,11793.000000,47075.000000
58607.000000,31114.000000,11838.000000,47122.000000
58638.000000,31149.000000,11875.000000,47163.000000
58678.000000,31187.000000,11914.000000,47192.000000
58713.000000,31221.000000,11974.000000,47224.000000
58731.000000,31247.000000,12045.000000,47259.000000
58756.000000,31276.000000,12102.000000,47296.000000
58801.000000,31315.000000,12144.000000,47343.000000
58836.000000,31344.000000,12178.000000,47403.000000
58844.000000,31353.000000,12204.000000,47461.000000
58853.000000,31362.000000,12216.000000,47494.000000
58879.000000,31378.000000,12224.000000,47496.000000
58901.000000,31387.000000,12238.000000,47487.000000
58904.000000,31383.000000,12254.000000,47473.000000
58911.000000,31381.000000,12259.000000,47443.000000
58923.000000,31380.000000,12251.000000,47409.000000
58913.000000,31361.000000,12232.000000,47391.000000
58876.000000,31324.000000,12196.000000,47379.000000
58837.000000,31289.000000,12136.000000,47357.000000
58803.000000,31255.000000,12068.000000,47328.000000
58748.000000,31201.000000,12005.000000,47297.000000
58678.000000,31137.000000,11939.000000,47250.000000
58630.000000,31091.000000,11866.000000,47175.000000
58600.000000,31059.000000,11795.000000,47095.000000
58551.000000,31018.000000,11726.000000,47029.000000
58484.000000,30961.000000,11651.000000,46972.000000
58428.000000,30904.000000,11560.000000,46917.000000
58381.000000,30850.000000,11469.000000,46864.000000
58312.000000,30780.000000,11380.000000,46805.000000
58236.000000,30708.000000,11287.000000,46718.000000
58188.000000,30659.000000,11195.000000,46599.000000
58156.000000,30619.000000,11110.000000,46488.000000
58111.000000,30570.000000,11034.000000,46399.000000
58055.000000,30514.000000,10951.000000,46314.000000
58006.000000,30462.000000,10856.000000,46235.000000
57954.000000,30403.000000,10764.000000,46173.000000
57881.000000,30327.000000,10679.000000,46122.000000
57808.000000,30256.000000,10595.000000,46064.000000
57758.000000,30206.000000,10513.000000,45996.000000
57718.000000,30163.000000,10440.000000,45930.000000
57672.000000,30113.000000,10370.000000,45871.000000
57633.000000,30069.000000,10291.000000,45803.000000
57611.000000,30038.000000,10204.000000,45729.000000
57578.000000,29997.000000,10120.000000,45673.000000
57515.000000,29937.000000,10040.000000,45626.000000
57449.000000,29878.000000,9958.000000,45565.000000
57400.000000,29831.000000,9877.000000,45498.000000
57352.000000,29783.000000,9812.000000,45435.000000
57292.000000,29729.000000,9758.000000,45365.000000
57243.000000,29684.000000,9694.000000,45284.000000
57214.000000,29652.000000,9622.000000,45209.000000
57173.000000,29611.000000,9551.000000,45160.000000
57109.000000,29554.000000,9479.000000,45124.000000
57054.000000,29510.000000,9405.000000,45070.000000
57023.000000,29487.000000,9343.000000,45009.000000
56993.000000,29463.000000,9304.000000,44963.000000
56957.000000,29434.000000,9272.000000,44925.000000
56936.000000,29416.000000,9229.000000,44892.000000
56926.000000,29405.000000,9184.000000,44869.000000
56895.000000,29379.000000,9148.000000,44855.000000
56848.000000,29344.000000,9119.000000,44830.000000
56821.000000,29324.000000,9089.000000,44783.000000
56813.000000,29316.000000,9065.000000,44731.000000
56793.000000,29300.000000,9055.000000,44676.000000
56763.000000,29275.000000,9035.000000,44619.000000
56750.000000,29255.000000,8994.000000,44563.000000
56747.000000,29236.000000,8945.000000,44525.000000
56720.000000,29202.000000,8896.000000,44514.000000
56681.000000,29161.000000,8840.000000,44501.000000
56660.000000,29129.000000,8779.000000,44469.000000
56649.000000,29104.000000,8732.000000,44434.000000
56623.000000,29074.000000,8703.000000,44398.000000
56591.000000,29047.000000,8674.000000,44350.000000
56580.000000,29038.000000,8636.000000,44293.000000
56572.000000,29030.000000,8597.000000,44256.000000
56539.000000,29003.000000,8553.000000,44242.000000
56495.000000,28967.000000,8493.000000,44218.000000
56459.000000,28936.000000,8421.000000,44183.000000
56422.000000,28897.000000,8357.000000,44150.000000
56370.000000,28847.000000,8307.000000,44111.000000
56323.000000,28804.000000,8257.000000,44055.000000
56299.000000,28777.000000,8206.000000,43995.000000
56277.000000,28750.000000,8158.000000,43954.000000
56237.000000,28711.000000,8109.000000,43928.000000
56194.000000,28674.000000,8050.000000,43892.000000
56158.000000,28644.000000,7991.000000,43844.000000
56112.000000,28605.000000,7946.000000,43795.000000
56049.000000,28555.000000,7909.000000,43740.000000
55991.000000,28515.000000,7868.000000,43656.000000
55960.000000,28485.000000,7833.000000,43553.000000
55935.000000,28444.000000,7805.000000,43462.000000
55894.000000,28394.000000,7764.000000,43388.000000
55854.000000,28351.000000,7694.000000,43320.000000
55823.000000,28315.000000,7612.000000,43268.000000
55775.000000,28268.000000,7533.000000,43234.000000
55707.000000,28210.000000,7452.000000,43194.000000
55658.000000,28164.000000,7368.000000,43122.000000
55630.000000,28131.000000,7290.000000,43042.000000
55593.000000,28094.000000,7221.000000,42981.000000
55540.000000,28044.000000,7147.000000,42923.000000
55496.000000,27993.000000,7054.000000,42860.000000
55459.000000,27941.000000,6954.000000,42796.000000
55398.000000,27873.000000,6859.000000,42734.000000
55319.000000,27799.000000,6765.000000,42653.000000
55261.000000,27747.000000,6676.000000,42551.000000
55223.000000,27713.000000,6608.000000,42462.000000
55185.000000,27689.000000,6575.000000,42408.000000
55154.000000,27678.000000,6564.000000,42392.000000
55161.000000,27696.000000,6573.000000,42425.000000
55210.000000,27747.000000,6631.000000,42514.000000
55282.000000,27825.000000,6758.000000,42658.000000
55396.000000,27947.000000,6948.000000,42835.000000
55578.000000,28126.000000,7197.000000,43040.000000
55807.000000,28343.000000,7510.000000,43294.000000
56048.000000,28578.000000,7875.000000,43601.000000
56306.000000,28833.000000,8261.000000,43936.000000
56592.000000,29110.000000,8656.000000,44294.000000
56883.000000,29392.000000,9069.000000,44678.000000
57153.000000,29666.000000,9492.000000,45071.000000
57421.000000,29943.000000,9911.000000,45439.000000
57710.000000,30229.000000,10321.000000,45782.000000
57999.000000,30508.000000,10728.000000,46118.000000
58264.000000,30766.000000,11121.000000,46447.000000
58512.000000,31008.000000,11479.000000,46761.000000
58750.000000,31235.000000,11803.000000,47064.000000
58953.000000,31428.000000,12102.000000,47349.000000
59111.000000,31586.000000,12372.000000,47596.000000
59252.000000,31735.000000,12607.000000,47785.000000
59392.000000,31878.000000,12815.000000,47929.000000
59511.000000,31993.000000,12996.000000,48064.000000
59595.000000,32074.000000,13136.000000,48185.000000
59660.000000,32135.000000,13224.000000,48273.000000
59713.000000,32178.000000,13273.000000,48339.000000
59735.000000,32195.000000,13301.000000,48393.000000
59725.000000,32186.000000,13309.000000,48428.000000
59715.000000,32177.000000,13296.000000,48433.000000
59712.000000,32170.000000,13272.000000,48419.000000
59683.000000,32140.000000,13236.000000,48402.000000
59626.000000,32090.000000,13178.000000,48372.000000
59574.000000,32041.000000,13096.000000,48327.000000
59535.000000,31996.000000,13007.000000,48272.000000
59486.000000,31937.000000,12922.000000,48208.000000
59433.000000,31874.000000,12841.000000,48128.000000
59402.000000,31828.000000,12765.000000,48030.000000
59384.000000,31792.000000,12694.000000,47944.000000
59343.000000,31745.000000,12632.000000,47880.000000
59285.000000,31694.000000,12570.000000,47822.000000
59239.000000,31655.000000,12502.000000,47765.000000
59205.000000,31623.000000,12446.000000,47721.000000
59162.000000,31585.000000,12411.000000,47688.000000
59124.000000,31556.000000,12385.000000,47645.000000
59121.000000,31552.000000,12365.000000,47592.000000
59136.000000,31552.000000,12354.000000,47556.000000
59134.000000,31539.000000,12345.000000,47537.000000
59125.000000,31527.000000,12324.000000,47519.000000
59127.000000,31523.000000,12288.000000,47506.000000
59119.000000,31509.000000,12257.000000,47506.000000
59082.000000,31479.000000,12236.000000,47506.000000
59044.000000,31452.000000,12210.000000,47479.000000
59027.000000,31440.000000,12180.000000,47435.000000
59011.000000,31426.000000,12161.000000,47401.000000
58976.000000,31401.000000,12149.000000,47373.000000
58944.000000,31378.000000,12125.000000,47341.000000
58931.000000,31359.000000,12086.000000,47316.000000
58914.000000,31331.000000,12050.000000,47309.000000
58886.000000,31295.000000,12018.000000,47309.000000
58877.000000,31270.000000,11990.000000,47301.000000
58898.000000,31271.000000,11982.000000,47289.000000
58920.000000,31285.000000,12002.000000,47293.000000
58932.000000,31298.000000,12034.000000,47312.000000
58958.000000,31324.000000,12062.000000,47334.000000
59002.000000,31365.000000,12097.000000,47360.000000
59030.000000,31398.000000,12144.000000,47403.000000
59043.000000,31423.000000,12198.000000,47453.000000
59072.000000,31461.000000,12252.000000,47495.000000
59117.000000,31506.000000,12310.000000,47538.000000
59151.000000,31545.000000,12379.000000,47582.000000
59175.000000,31581.000000,12444.000000,47620.000000
59216.000000,31627.000000,12493.000000,47650.000000
59268.000000,31676.000000,12530.000000,47692.000000
59300.000000,31707.000000,12563.000000,47754.000000
59315.000000,31726.000000,12590.000000,47799.000000
59341.000000,31751.000000,12608.000000,47809.000000
59375.000000,31778.000000,12625.000000,47804.000000
59392.000000,31794.000000,12647.000000,47792.000000
59396.000000,31800.000000,12659.000000,47777.000000
59413.000000,31812.000000,12649.000000,47763.000000
59424.000000,31813.000000,12628.000000,47760.000000
59401.000000,31784.000000,12599.000000,47769.000000
59359.000000,31740.000000,12555.000000,47763.000000
59324.000000,31702.000000,12499.000000,47725.000000
59290.000000,31663.000000,12445.000000,47671.000000
59242.000000,31617.000000,12398.000000,47609.000000
59192.000000,31572.000000,12338.000000,47540.000000
59157.000000,31536.000000,12261.000000,47476.000000
59116.000000,31494.000000,12180.000000,47428.000000
59050.000000,31432.000000,12099.000000,47379.000000
58979.000000,31367.000000,12014.000000,47306.000000
58925.000000,31309.000000,11930.000000,47214.000000
58874.000000,31250.000000,11861.000000,47124.000000
58816.000000,31185.000000,11795.000000,47037.000000
58767.000000,31128.000000,11711.000000,46948.000000
58733.000000,31082.000000,11613.000000,46876.000000
58685.000000,31026.000000,11515.000000,46835.000000
58612.000000,30957.000000,11420.000000,46800.000000
58544.000000,30896.000000,11320.000000,46748.000000
58493.000000,30849.000000,11226.000000,46686.000000
58441.000000,30803.000000,11153.000000,46624.000000
58379.000000,30753.000000,11088.000000,46554.000000
58331.000000,30712.000000,11015.000000,46477.000000
58301.000000,30675.000000,10942.000000,46410.000000
58257.000000,30622.000000,10876.000000,46362.000000
58194.000000,30560.000000,10807.000000,46311.000000
58141.000000,30509.000000,10726.000000,46240.000000
58100.000000,30471.000000,10649.000000,46160.000000
58051.000000,30430.000000,10590.000000,46077.000000
57995.000000,30385.000000,10532.000000,46001.000000
57960.000000,30352.000000,10466.000000,45935.000000
57934.000000,30322.000000,10402.000000,45885.000000
57885.000000,30272.000000,10341.000000,45849.000000
57822.000000,30213.000000,10277.000000,45796.000000
57777.000000,30169.000000,10208.000000,45721.000000
57753.000000,30139.000000,10150.000000,45641.000000
57725.000000,30103.000000,10110.000000,45567.000000
57693.000000,30064.000000,10069.000000,45501.000000
57680.000000,30042.000000,10025.000000,45441.000000
57674.000000,30026.000000,9984.000000,45400.000000
57650.000000,30003.000000,9946.000000,45379.000000
57613.000000,29975.000000,9894.000000,45361.000000
57585.000000,29953.000000,9828.000000,45345.000000
57556.000000,29927.000000,9771.000000,45331.000000
57509.000000,29888.000000,9728.000000,45309.000000
57462.000000,29851.000000,9687.000000,45267.000000
57440.000000,29833.000000,9646.000000,45214.000000
57425.000000,29817.000000,9615.000000,45177.000000
57394.000000,29790.000000,9590.000000,45157.000000
57359.000000,29759.000000,9554.000000,45136.000000
57340.000000,29732.000000,9509.000000,45116.000000
57321.000000,29702.000000,9472.000000,45101.000000
57287.000000,29668.000000,9445.000000,45078.000000
57261.000000,29648.000000,9417.000000,45028.000000
57259.000000,29648.000000,9392.000000,44964.000000
57252.000000,29645.000000,9376.000000,44916.000000
57225.000000,29627.000000,9359.000000,44888.000000
57199.000000,29605.000000,9323.000000,44860.000000
57186.000000,29585.000000,9272.000000,44825.000000
57160.000000,29554.000000,9223.000000,44799.000000
57118.000000,29515.000000,9174.000000,44773.000000
57088.000000,29489.000000,9123.000000,44723.000000
57075.000000,29471.000000,9074.000000,44664.000000
57051.000000,29447.000000,9037.000000,44617.000000
57012.000000,29419.000000,8999.000000,44574.000000
56987.000000,29404.000000,8950.000000,44526.000000
56980.000000,29395.000000,8902.000000,44490.000000
56955.000000,29367.000000,8860.000000,44474.000000
56911.000000,29327.000000,8813.000000,44453.000000
56873.000000,29293.000000,8753.000000,44411.000000
56839.000000,29261.000000,8692.000000,44364.000000
56786.000000,29218.000000,8642.000000,44313.000000
56731.000000,29174.000000,8596.000000,44246.000000
56703.000000,29147.000000,8548.000000,44168.000000
56687.000000,29122.000000,8501.000000,44112.000000
56652.000000,29078.000000,8450.000000,44085.000000
56602.000000,29026.000000,8383.000000,44057.000000
56564.000000,28982.000000,8298.000000,44015.000000
56529.000000,28937.000000,8212.000000,43975.000000
56466.000000,28874.000000,8128.000000,43941.000000
56392.000000,28809.000000,8038.000000,43881.000000
56338.000000,28763.000000,7949.000000,43786.000000
56292.000000,28720.000000,7872.000000,43689.000000
56231.000000,28667.000000,7804.000000,43604.000000
56173.000000,28619.000000,7729.000000,43515.000000
56134.000000,28586.000000,7644.000000,43423.000000
56092.000000,28545.000000,7560.000000,43353.000000
56030.000000,28487.000000,7483.000000,43300.000000
55975.000000,28431.000000,7416.000000,43251.000000
55951.000000,28396.000000,7369.000000,43220.000000
55942.000000,28381.000000,7364.000000,43220.000000
55943.000000,28393.000000,7404.000000,43249.000000
55990.000000,28452.000000,7485.000000,43299.000000
56102.000000,28563.000000,7622.000000,43380.000000
56249.000000,28707.000000,7830.000000,43527.000000
56411.000000,28882.000000,8093.000000,43738.000000
56604.000000,29097.000000,8384.000000,43992.000000
56836.000000,29349.000000,8708.000000,44291.000000
57079.000000,29608.000000,9075.000000,44630.000000
57317.000000,29860.000000,9467.000000,44978.000000
57573.000000,30116.000000,9861.000000,45312.000000
57849.000000,30381.000000,10258.000000,45642.000000
58118.000000,30637.000000,10661.000000,45973.000000
58374.000000,30880.000000,11056.000000,46301.000000
58644.000000,31131.000000,11429.000000,46618.000000
58921.000000,31379.000000,11784.000000,46930.000000
59162.000000,31598.000000,12119.000000,47243.000000
59362.000000,31786.000000,12422.000000,47536.000000
59547.000000,31960.000000,12683.000000,47794.000000
59721.000000,32115.000000,12916.000000,48025.000000
59857.000000,32236.000000,13129.000000,48237.000000
59963.000000,32335.000000,13310.000000,48411.000000
60070.000000,32435.000000,13459.000000,48528.000000
60168.000000,32523.000000,13583.000000,48611.000000
60230.000000,32579.000000,13682.000000,48677.000000
60268.000000,32613.000000,13739.000000,48717.000000
60303.000000,32638.000000,13750.000000,48734.000000
60313.000000,32640.000000,13734.000000,48742.000000
60273.000000,32606.000000,13696.000000,48746.000000
60209.000000,32553.000000,13630.000000,48730.000000
60153.000000,32501.000000,13550.000000,48687.000000
60095.000000,32444.000000,13473.000000,48623.000000
60023.000000,32374.000000,13403.000000,48540.000000
59954.000000,32309.000000,13327.000000,48445.000000
59907.000000,32260.000000,13241.000000,48355.000000
59862.000000,32206.000000,13157.000000,48276.000000
59798.000000,32138.000000,13072.000000,48204.000000
59738.000000,32073.000000,12977.000000,48128.000000
59700.000000,32021.000000,12879.000000,48053.000000
59659.000000,31970.000000,12794.000000,47997.000000
59603.000000,31914.000000,12722.000000,47952.000000
59560.000000,31876.000000,12658.000000,47888.000000
59537.000000,31856.000000,12606.000000,47816.000000
59512.000000,31835.000000,12574.000000,47757.000000
59476.000000,31807.000000,12550.000000,47701.000000
59449.000000,31788.000000,12517.000000,47641.000000
59434.000000,31776.000000,12478.000000,47591.000000
59403.000000,31749.000000,12438.000000,47570.000000
59352.000000,31705.000000,12393.000000,47570.000000
59311.000000,31669.000000,12334.000000,47565.000000
59284.000000,31642.000000,12276.000000,47551.000000
59246.000000,31608.000000,12236.000000,47523.000000
59198.000000,31571.000000,12201.000000,47484.000000
59175.000000,31548.000000,12161.000000,47441.000000
59173.000000,31534.000000,12122.000000,47404.000000
59157.000000,31506.000000,12092.000000,47386.000000
59130.000000,31475.000000,12065.000000,47373.000000
59122.000000,31458.000000,12041.000000,47347.000000
59130.000000,31454.000000,12034.000000,47319.000000
59131.000000,31453.000000,12052.000000,47297.000000
59137.000000,31462.000000,12086.000000,47283.000000
59179.000000,31499.000000,12131.000000,47284.000000
59240.000000,31549.000000,12187.000000,47321.000000
59286.000000,31594.000000,12250.000000,47390.000000
59322.000000,31632.000000,12308.000000,47467.000000
59368.000000,31672.000000,12356.000000,47540.000000
59410.000000,31709.000000,12408.000000,47619.000000
59428.000000,31734.000000,12468.000000,47696.000000
59450.000000,31767.000000,12533.000000,47748.000000
59503.000000,31825.000000,12603.000000,47780.000000
59561.000000,31887.000000,12680.000000,47812.000000
59602.000000,31935.000000,12755.000000,47845.000000
59640.000000,31974.000000,12809.000000,47879.000000
59688.000000,32015.000000,12840.000000,47917.000000
59721.000000,32044.000000,12863.000000,47966.000000
59724.000000,32049.000000,12879.000000,48017.000000
59721.000000,32046.000000,12879.000000,48041.000000
59730.000000,32046.000000,12870.000000,48032.000000
59730.000000,32038.000000,12862.000000,48006.000000
59708.000000,32019.000000,12853.000000,47959.000000
59687.000000,31997.000000,12827.000000,47898.000000
59676.000000,31976.000000,12784.000000,47853.000000
59645.000000,31939.000000,12731.000000,47832.000000
59584.000000,31885.000000,12665.000000,47809.000000
59520.000000,31830.000000,12583.000000,47765.000000
59466.000000,31780.000000,12497.000000,47705.000000
59406.000000,31727.000000,12419.000000,47642.000000
59339.000000,31668.000000,12344.000000,47568.000000
59292.000000,31620.000000,12268.000000,47473.000000
59263.000000,31580.000000,12193.000000,47377.000000
59218.000000,31529.000000,12121.000000,47305.000000
59154.000000,31469.000000,12039.000000,47248.000000
59095.000000,31413.000000,11938.000000,47189.000000
59041.000000,31358.000000,11834.000000,47127.000000
58965.000000,31288.000000,11737.000000,47066.000000
58876.000000,31211.000000,11640.000000,46997.000000
58808.000000,31150.000000,11543.000000,46912.000000
58751.000000,31101.000000,11457.000000,46824.000000
58675.000000,31049.000000,11386.000000,46736.000000
58591.000000,30989.000000,11311.000000,46641.000000
58526.000000,30927.000000,11220.000000,46552.000000
58470.000000,30864.000000,11122.000000,46487.000000
58400.000000,30790.000000,11023.000000,46438.000000
58326.000000,30716.000000,10922.000000,46375.000000
58272.000000,30657.000000,10823.000000,46296.000000
58233.000000,30605.000000,10740.000000,46218.000000
58183.000000,30547.000000,10671.000000,46140.000000
58136.000000,30494.000000,10599.000000,46057.000000
58116.000000,30458.000000,10526.000000,45979.000000
58099.000000,30421.000000,10461.000000,45918.000000
58062.000000,30371.000000,10399.000000,45865.000000
58020.000000,30323.000000,10325.000000,45809.000000
57988.000000,30286.000000,10244.000000,45757.000000
57944.000000,30247.000000,10174.000000,45723.000000
57875.000000,30198.000000,10118.000000,45697.000000
57813.000000,30157.000000,10065.000000,45650.000000
57779.000000,30131.000000,10016.000000,45586.000000
57752.000000,30104.000000,9978.000000,45527.000000
57714.000000,30068.000000,9940.000000,45472.000000
57683.000000,30037.000000,9887.000000,45417.000000
57668.000000,30016.000000,9828.000000,45377.000000
57642.000000,29984.000000,9774.000000,45363.000000
57595.000000,29938.000000,9720.000000,45355.000000
57555.000000,29899.000000,9661.000000,45331.000000
57532.000000,29872.000000,9608.000000,45297.000000
57505.000000,29843.000000,9570.000000,45263.000000
57473.000000,29815.000000,9540.000000,45225.000000
57462.000000,29807.000000,9510.000000,45176.000000
57465.000000,29810.000000,9484.000000,45134.000000
57452.000000,29796.000000,9462.000000,45117.000000
57427.000000,29770.000000,9433.000000,45108.000000
57416.000000,29750.000000,9385.000000,45086.000000
57409.000000,29730.000000,9335.000000,45050.000000
57374.000000,29692.000000,9295.000000,45010.000000
57324.000000,29651.000000,9260.000000,44955.000000
57290.000000,29629.000000,9226.000000,44884.000000
57271.000000,29615.000000,9197.000000,44824.000000
57237.000000,29590.000000,9173.000000,44776.000000
57199.000000,29560.000000,9142.000000,44718.000000
57185.000000,29541.000000,9102.000000,44647.000000
57182.000000,29521.000000,9063.000000,44595.000000
57158.000000,29486.000000,9025.000000,44571.000000
57116.000000,29443.000000,8973.000000,44549.000000
57074.000000,29405.000000,8904.000000,44527.000000
57032.000000,29362.000000,8835.000000,44519.000000
56972.000000,29304.000000,8777.000000,44518.000000
56912.000000,29252.000000,8722.000000,44494.000000
56874.000000,29222.000000,8668.000000,44436.000000
56842.000000,29196.000000,8621.000000,44372.000000
56796.000000,29162.000000,8579.000000,44313.000000
56747.000000,29127.000000,8527.000000,44246.000000
56711.000000,29094.000000,8458.000000,44178.000000
56668.000000,29048.000000,8382.000000,44124.000000
56602.000000,28981.000000,8300.000000,44072.000000
56537.000000,28915.000000,8206.000000,44001.000000
56492.000000,28861.000000,8107.000000,43910.000000
56446.000000,28804.000000,8022.000000,43814.000000
56390.000000,28740.000000,7949.000000,43723.000000
56350.000000,28686.000000,7878.000000,43634.000000
56334.000000,28653.000000,7817.000000,43559.000000
56316.000000,28630.000000,7782.000000,43525.000000
56289.000000,28618.000000,7773.000000,43529.000000
56288.000000,28636.000000,7787.000000,43567.000000
56330.000000,28688.000000,7843.000000,43655.000000
56395.000000,28756.000000,7956.000000,43799.000000
56483.000000,28851.000000,8124.000000,43977.000000
56625.000000,28998.000000,8342.000000,44171.000000
56819.000000,29194.000000,8612.000000,44395.000000
57033.000000,29412.000000,8936.000000,44658.000000
57266.000000,29647.000000,9293.000000,44949.000000
57541.000000,29911.000000,9664.000000,45259.000000
57844.000000,30194.000000,10051.000000,45594.000000
58130.000000,30467.000000,10452.000000,45959.000000
58393.000000,30728.000000,10851.000000,46327.000000
58656.000000,30992.000000,11239.000000,46679.000000
58918.000000,31257.000000,11626.000000,47012.000000
59152.000000,31503.000000,12015.000000,47330.000000
59367.000000,31732.000000,12384.000000,47624.000000
59590.000000,31959.000000,12720.000000,47884.000000
59806.000000,32166.000000,13022.000000,48124.000000
59982.000000,32335.000000,13292.000000,48356.000000
60122.000000,32471.000000,13519.000000,48568.000000
60247.000000,32591.000000,13698.000000,48753.000000
60346.000000,32686.000000,13845.000000,48916.000000
60400.000000,32742.000000,13964.000000,49046.000000
60432.000000,32775.000000,14048.000000,49124.000000
60467.000000,32801.000000,14101.000000,49161.000000
60496.000000,32815.000000,14139.000000,49174.000000
60503.000000,32810.000000,14164.000000,49168.000000
60503.000000,32800.000000,14162.000000,49143.000000
60512.000000,32791.000000,14135.000000,49111.000000
60504.000000,32762.000000,14093.000000,49089.000000
60461.000000,32708.000000,14032.000000,49066.000000
60405.000000,32648.000000,13943.000000,49022.000000
60352.000000,32593.000000,13838.000000,48965.000000
60286.000000,32532.000000,13740.000000,48906.000000
60200.000000,32462.000000,13646.000000,48836.000000
60129.000000,32404.000000,13549.000000,48738.000000
60089.000000,32367.000000,13461.000000,48627.000000
60051.000000,32329.000000,13396.000000,48534.000000
60005.000000,32284.000000,13351.000000,48466.000000
59980.000000,32246.000000,13311.000000,48411.000000
59975.000000,32212.000000,13269.000000,48365.000000
59952.000000,32163.000000,13232.000000,48337.000000
59910.000000,32106.000000,13194.000000,48318.000000
59883.000000,32070.000000,13146.000000,48289.000000
59871.000000,32053.000000,13105.000000,48262.000000
59846.000000,32034.000000,13080.000000,48244.000000
59813.000000,32014.000000,13057.000000,48222.000000
59804.000000,32011.000000,13028.000000,48188.000000
59809.000000,32017.000000,12999.000000,48160.000000
59792.000000,32005.000000,12971.000000,48153.000000
59752.000000,31981.000000,12933.000000,48147.000000
59717.000000,31962.000000,12882.000000,48130.000000
59692.000000,31946.000000,12835.000000,48107.000000
59653.000000,31919.000000,12798.000000,48069.000000
59613.000000,31894.000000,12761.000000,48007.000000
59602.000000,31892.000000,12729.000000,47926.000000
59602.000000,31898.000000,12713.000000,47865.000000
59586.000000,31892.000000,12708.000000,47838.000000
59560.000000,31879.000000,12696.000000,47823.000000
59550.000000,31872.000000,12674.000000,47817.000000
59548.000000,31868.000000,12667.000000,47827.000000
59536.000000,31858.000000,12683.000000,47846.000000
59538.000000,31859.000000,12711.000000,47859.000000
59577.000000,31887.000000,12750.000000,47874.000000
59629.000000,31923.000000,12805.000000,47908.000000
59670.000000,31954.000000,12865.000000,47960.000000
59709.000000,31989.000000,12913.000000,48014.000000
59759.000000,32032.000000,12950.000000,48067.000000
59798.000000,32065.000000,12989.000000,48132.000000
59811.000000,32086.000000,13037.000000,48198.000000
59824.000000,32115.000000,13085.000000,48241.000000
59854.000000,32155.000000,13129.000000,48272.000000
59879.000000,32192.000000,13179.000000,48305.000000
59891.000000,32217.000000,13226.000000,48330.000000
59914.000000,32242.000000,13254.000000,48343.000000
59951.000000,32267.000000,13266.000000,48354.000000
59967.000000,32271.000000,13269.000000,48374.000000
59952.000000,32250.000000,13258.000000,48397.000000
59933.000000,32227.000000,13227.000000,48405.000000
59918.000000,32204.000000,13184.000000,48396.000000
59888.000000,32166.000000,13141.000000,48373.000000
59843.000000,32119.000000,13094.000000,48329.000000
59812.000000,32086.000000,13043.000000,48268.000000
59793.000000,32060.000000,12993.000000,48206.000000
59755.000000,32018.000000,12944.000000,48155.000000
59695.000000,31957.000000,12881.000000,48108.000000
59640.000000,31899.000000,12799.000000,48056.000000
59591.000000,31847.000000,12714.000000,47993.000000
59524.000000,31786.000000,12639.000000,47921.000000
59447.000000,31720.000000,12565.000000,47833.000000
59391.000000,31662.000000,12486.000000,47732.000000
59348.000000,31610.000000,12407.000000,47641.000000
59288.000000,31551.000000,12326.000000,47564.000000
59215.000000,31488.000000,12230.000000,47495.000000
59157.000000,31430.000000,12117.000000,47431.000000
59106.000000,31370.000000,12005.000000,47376.000000
59033.000000,31293.000000,11900.000000,47323.000000
58953.000000,31217.000000,11795.000000,47251.000000
58892.000000,31157.000000,11690.000000,47160.000000
58837.000000,31103.000000,11600.000000,47065.000000
58769.000000,31047.000000,11528.000000,46961.000000
58699.000000,30999.000000,11456.000000,46848.000000
58652.000000,30969.000000,11374.000000,46744.000000
58606.000000,30932.000000,11288.000000,46671.000000
58535.000000,30872.000000,11202.000000,46621.000000
58461.000000,30806.000000,11106.000000,46562.000000
58401.000000,30745.000000,11004.000000,46484.000000
58338.000000,30680.000000,10911.000000,46405.000000
58260.000000,30608.000000,10827.000000,46319.000000
58194.000000,30541.000000,10740.000000,46218.000000
58156.000000,30488.000000,10652.000000,46119.000000
58120.000000,30437.000000,10574.000000,46042.000000
58067.000000,30376.000000,10495.000000,45984.000000
58015.000000,30314.000000,10403.000000,45925.000000
57971.000000,30260.000000,10310.000000,45869.000000
57911.000000,30203.000000,10234.000000,45826.000000
57835.000000,30144.000000,10167.000000,45788.000000
57776.000000,30096.000000,10102.000000,45732.000000
57740.000000,30058.000000,10048.000000,45671.000000
57698.000000,30015.000000,10010.000000,45615.000000
57646.000000,29971.000000,9976.000000,45560.000000
57616.000000,29946.000000,9935.000000,45497.000000
57608.000000,29932.000000,9888.000000,45437.000000
57582.000000,29904.000000,9836.000000,45395.000000
57536.000000,29864.000000,9773.000000,45361.000000
57500.000000,29830.000000,9700.000000,45322.000000
57474.000000,29802.000000,9632.000000,45281.000000
57429.000000,29763.000000,9574.000000,45237.000000
57374.000000,29722.000000,9521.000000,45177.000000
57343.000000,29702.000000,9478.000000,45102.000000
57328.000000,29691.000000,9449.000000,45041.000000
57296.000000,29666.000000,9425.000000,45010.000000
57251.000000,29632.000000,9387.000000,44996.000000
57220.000000,29598.000000,9329.000000,44989.000000
57190.000000,29556.000000,9265.000000,44988.000000
57138.000000,29497.000000,9203.000000,44986.000000
57084.000000,29439.000000,9141.000000,44964.000000
57052.000000,29402.000000,9082.000000,44918.000000
57027.000000,29373.000000,9036.000000,44864.000000
56991.000000,29341.000000,9001.000000,44805.000000
56957.000000,29313.000000,8963.000000,44738.000000
56942.000000,29295.000000,8917.000000,44669.000000
56928.000000,29272.000000,8872.000000,44626.000000
56892.000000,29230.000000,8822.000000,44600.000000
56843.000000,29185.000000,8759.000000,44559.000000
56797.000000,29147.000000,8687.000000,44505.000000
56746.000000,29106.000000,8623.000000,44448.000000
56681.000000,29054.000000,8565.000000,44385.000000
56624.000000,29008.000000,8500.000000,44309.000000
56586.000000,28975.000000,8433.000000,44235.000000
56544.000000,28937.000000,8371.000000,44187.000000
56485.000000,28885.000000,8304.000000,44152.000000
56425.000000,28830.000000,8218.000000,44108.000000
56370.000000,28773.000000,8122.000000,44060.000000
56298.000000,28705.000000,8034.000000,44011.000000
56212.000000,28631.000000,7953.000000,43941.000000
56146.000000,28573.000000,7871.000000,43847.000000
56101.000000,28526.000000,7787.000000,43749.000000
56046.000000,28470.000000,7704.000000,43658.000000
55977.000000,28402.000000,7612.000000,43563.000000
55923.000000,28335.000000,7505.000000,43460.000000
55882.000000,28273.000000,7397.000000,43362.000000
55819.000000,28202.000000,7299.000000,43286.000000
55744.000000,28134.000000,7214.000000,43218.000000
55695.000000,28090.000000,7145.000000,43151.000000
55679.000000,28070.000000,7109.000000,43102.000000
55677.000000,28066.000000,7122.000000,43080.000000
55696.000000,28094.000000,7177.000000,43088.000000
55770.000000,28177.000000,7275.000000,43145.000000
55890.000000,28299.000000,7428.000000,43274.000000
56021.000000,28438.000000,7636.000000,43476.000000
56171.000000,28598.000000,7886.000000,43721.000000
56364.000000,28795.000000,8170.000000,43999.000000
56600.000000,29020.000000,8501.000000,44311.000000
56855.000000,29261.000000,8881.000000,44637.000000
57127.000000,29520.000000,9286.000000,44967.000000
57428.000000,29804.000000,9703.000000,45306.000000
57735.000000,30093.000000,10131.000000,45670.000000
58021.000000,30371.000000,10559.000000,46058.000000
58292.000000,30639.000000,10965.000000,46443.000000
58561.000000,30897.000000,11343.000000,46814.000000
58809.000000,31131.000000,11711.000000,47171.000000
59024.000000,31342.000000,12069.000000,47505.000000
59226.000000,31545.000000,12402.000000,47798.000000
59432.000000,31744.000000,12705.000000,48055.000000
59615.000000,31920.000000,12984.000000,48291.000000
59760.000000,32063.000000,13229.000000,48502.000000
59884.000000,32184.000000,13424.000000,48678.000000
59994.000000,32287.000000,13574.000000,48825.000000
60064.000000,32357.000000,13694.000000,48954.000000
60093.000000,32393.000000,13781.000000,49051.000000
60117.000000,32420.000000,13829.000000,49097.000000
60151.000000,32445.000000,13850.000000,49105.000000
60167.000000,32455.000000,13862.000000,49091.000000
60157.000000,32445.000000,13855.000000,49050.000000
60147.000000,32431.000000,13817.000000,48983.000000
60139.000000,32411.000000,13758.000000,48914.000000
60099.000000,32366.000000,13691.000000,48860.000000
60034.000000,32301.000000,13613.000000,48803.000000
59976.000000,32240.000000,13520.000000,48723.000000
59923.000000,32185.000000,13426.000000,48635.000000
59853.000000,32123.000000,13346.000000,48552.000000
59776.000000,32059.000000,13267.000000,48477.000000
59725.000000,32007.000000,13176.000000,48416.000000
59689.000000,31960.000000,13087.000000,48371.000000
59633.000000,31898.000000,13006.000000,48344.000000
59567.000000,31831.000000,12929.000000,48308.000000
59524.000000,31785.000000,12858.000000,48255.000000
59497.000000,31755.000000,12812.000000,48203.000000
59461.000000,31727.000000,12791.000000,48159.000000
59425.000000,31704.000000,12771.000000,48113.000000
59415.000000,31698.000000,12743.000000,48068.000000
59408.000000,31692.000000,12714.000000,48039.000000
59378.000000,31668.000000,12684.000000,48026.000000
59337.000000,31639.000000,12644.000000,48011.000000
59307.000000,31618.000000,12592.000000,47985.000000
59280.000000,31594.000000,12548.000000,47957.000000
59237.000000,31560.000000,12514.000000,47924.000000
59197.000000,31537.000000,12478.000000,47874.000000
59186.000000,31535.000000,12443.000000,47819.000000
59182.000000,31530.000000,12411.000000,47783.000000
59162.000000,31507.000000,12379.000000,47764.000000
59138.000000,31479.000000,12335.000000,47748.000000
59124.000000,31457.000000,12285.000000,47737.000000
59105.000000,31430.000000,12253.000000,47734.000000
59075.000000,31400.000000,12238.000000,47725.000000
59061.000000,31387.000000,12234.000000,47694.000000
59079.000000,31399.000000,12246.000000,47656.000000
59101.000000,31418.000000,12279.000000,47641.000000
59113.000000,31436.000000,12322.000000,47648.000000
59136.000000,31465.000000,12358.000000,47666.000000
59173.000000,31499.000000,12390.000000,47703.000000
59194.000000,31518.000000,12423.000000,47764.000000
59195.000000,31526.000000,12458.000000,47829.000000
59211.000000,31545.000000,12496.000000,47887.000000
59241.000000,31573.000000,12536.000000,47944.000000
59260.000000,31588.000000,12580.000000,48000.000000
59270.000000,31592.000000,12628.000000,48045.000000
59306.000000,31609.000000,12677.000000,48072.000000
59356.000000,31637.000000,12721.000000,48098.000000
59379.000000,31649.000000,12757.000000,48136.000000
59380.000000,31649.000000,12778.000000,48161.000000
59386.000000,31656.000000,12779.000000,48161.000000
59395.000000,31669.000000,12774.000000,48149.000000
59382.000000,31669.000000,12768.000000,48121.000000
59358.000000,31659.000000,12751.000000,48069.000000
59351.000000,31661.000000,12725.000000,47998.000000
59349.000000,31664.000000,12694.000000,47933.000000
59325.000000,31647.000000,12657.000000,47881.000000
59284.000000,31610.000000,12603.000000,47836.000000
59247.000000,31566.000000,12526.000000,47799.000000
59199.000000,31511.000000,12442.000000,47774.000000
59121.000000,31437.000000,12353.000000,47746.000000
59035.000000,31364.000000,12258.000000,47694.000000
58972.000000,31305.000000,12163.000000,47624.000000
58915.000000,31246.000000,12076.000000,47564.000000
58847.000000,31177.000000,11992.000000,47511.000000
58786.000000,31114.000000,11896.000000,47445.000000
58743.000000,31062.000000,11793.000000,47370.000000
58694.000000,31000.000000,11694.000000,47306.000000
58620.000000,30920.000000,11598.000000,47243.000000
58541.000000,30843.000000,11496.000000,47157.000000
58473.000000,30779.000000,11392.000000,47050.000000
58399.000000,30714.000000,11298.000000,46944.000000
58315.000000,30640.000000,11212.000000,46845.000000
58246.000000,30575.000000,11125.000000,46733.000000
58205.000000,30525.000000,11038.000000,46608.000000
58161.000000,30472.000000,10958.000000,46497.000000
58098.000000,30409.000000,10875.000000,46399.000000
58031.000000,30346.000000,10774.000000,46309.000000
57965.000000,30284.000000,10665.000000,46233.000000
57878.000000,30211.000000,10562.000000,46173.000000
57775.000000,30133.000000,10462.000000,46106.000000
57693.000000,30072.000000,10361.000000,46013.000000
57638.000000,30026.000000,10268.000000,45911.000000
57582.000000,29977.000000,10188.000000,45821.000000
57521.000000,29927.000000,10109.000000,45744.000000
57485.000000,29891.000000,10022.000000,45676.000000
57466.000000,29858.000000,9936.000000,45622.000000
57423.000000,29802.000000,9857.000000,45581.000000
57362.000000,29739.000000,9782.000000,45525.000000
57313.000000,29695.000000,9708.000000,45445.000000
57279.000000,29661.000000,9644.000000,45371.000000
57235.000000,29619.000000,9595.000000,45314.000000
57183.000000,29576.000000,9543.000000,45258.000000
57153.000000,29547.000000,9482.000000,45198.000000
57131.000000,29517.000000,9417.000000,45153.000000
57088.000000,29469.000000,9349.000000,45127.000000
57032.000000,29416.000000,9272.000000,45096.000000
56985.000000,29373.000000,9191.000000,45053.000000
56941.000000,29332.000000,9127.000000,45010.000000
56883.000000,29282.000000,9080.000000,44967.000000
56830.000000,29236.000000,9038.000000,44912.000000
56808.000000,29211.000000,9001.000000,44848.000000
56794.000000,29192.000000,8972.000000,44795.000000
56764.000000,29160.000000,8942.000000,44746.000000
56730.000000,29127.000000,8896.000000,44692.000000
56706.000000,29103.000000,8837.000000,44645.000000
56675.000000,29069.000000,8780.000000,44618.000000
56624.000000,29020.000000,8726.000000,44592.000000
56580.000000,28979.000000,8671.000000,44543.000000
56559.000000,28956.000000,8618.000000,44477.000000
56538.000000,28928.000000,8576.000000,44416.000000
56502.000000,28891.000000,8534.000000,44365.000000
56475.000000,28862.000000,8480.000000,44318.000000
56460.000000,28841.000000,8422.000000,44274.000000
56425.000000,28807.000000,8368.000000,44242.000000
56369.000000,28761.000000,8317.000000,44211.000000
56331.000000,28728.000000,8265.000000,44159.000000
56311.000000,28709.000000,8218.000000,44105.000000
56280.000000,28681.000000,8185.000000,44067.000000
56237.000000,28643.000000,8150.000000,44023.000000
56207.000000,28611.000000,8103.000000,43962.000000
56189.000000,28582.000000,8049.000000,43907.000000
56149.000000,28535.000000,7993.000000,43872.000000
56085.000000,28477.000000,7930.000000,43834.000000
56029.000000,28433.000000,7856.000000,43778.000000
55987.000000,28395.000000,7780.000000,43721.000000
55934.000000,28345.000000,7708.000000,43663.000000
55872.000000,28288.000000,7636.000000,43589.000000
55828.000000,28244.000000,7560.000000,43499.000000
55796.000000,28208.000000,7486.000000,43420.000000
55745.000000,28161.000000,7414.000000,43363.000000
55678.000000,28103.000000,7330.000000,43313.000000
55619.000000,28041.000000,7229.000000,43264.000000
55563.000000,27976.000000,7127.000000,43216.000000
55484.000000,27902.000000,7032.000000,43163.000000
55402.000000,27835.000000,6940.000000,43091.000000
55345.000000,27789.000000,6855.000000,42997.000000
55299.000000,27747.000000,6783.000000,42907.000000
55239.000000,27694.000000,6721.000000,42831.000000
55177.000000,27636.000000,6651.000000,42763.000000
55128.000000,27586.000000,6570.000000,42701.000000
55078.000000,27539.000000,6495.000000,42649.000000
55014.000000,27490.000000,6438.000000,42603.000000
54970.000000,27462.000000,6400.000000,42554.000000
54975.000000,27474.000000,6399.000000,42527.000000
55018.000000,27522.000000,6453.000000,42550.000000
55081.000000,27596.000000,6563.000000,42621.000000
55180.000000,27706.000000,6714.000000,42741.000000
55326.000000,27858.000000,6908.000000,42920.000000
55495.000000,28029.000000,7152.000000,43165.000000
55673.000000,28209.000000,7438.000000,43451.000000
55888.000000,28416.000000,7750.000000,43741.000000
56143.000000,28653.000000,8095.000000,44038.000000
56406.000000,28900.000000,8479.000000,44361.000000
56662.000000,29150.000000,8879.000000,44695.000000
56929.000000,29408.000000,9267.000000,45028.000000
57207.000000,29667.000000,9642.000000,45372.000000
57456.000000,29902.000000,10010.000000,45715.000000
57670.000000,30115.000000,10363.000000,46027.000000
57878.000000,30328.000000,10691.000000,46293.000000
58084.000000,30535.000000,10998.000000,46539.000000
58262.000000,30716.000000,11291.000000,46777.000000
58412.000000,30875.000000,11552.000000,46992.000000
58561.000000,31024.000000,11768.000000,47168.000000
58705.000000,31155.000000,11949.000000,47322.000000
58810.000000,31248.000000,12099.000000,47465.000000
58877.000000,31311.000000,12212.000000,47576.000000
58936.000000,31367.000000,12286.000000,47650.000000
58987.000000,31413.000000,12343.000000,47702.000000
59005.000000,31432.000000,12390.000000,47734.000000
59000.000000,31429.000000,12412.000000,47738.000000
59000.000000,31423.000000,12405.000000,47713.000000
58992.000000,31402.000000,12376.000000,47681.000000
58952.000000,31351.000000,12329.000000,47653.000000
58891.000000,31287.000000,12258.000000,47616.000000
58832.000000,31229.000000,12167.000000,47569.000000
58771.000000,31170.000000,12077.000000,47514.000000
58696.000000,31103.000000,11997.000000,47448.000000
58625.000000,31044.000000,11920.000000,47367.000000
58581.000000,31002.000000,11840.000000,47281.000000
58539.000000,30957.000000,11762.000000,47208.000000
58479.000000,30896.000000,11684.000000,47145.000000
58418.000000,30836.000000,11597.000000,47072.000000
58375.000000,30788.000000,11510.000000,46990.000000
58337.000000,30746.000000,11446.000000,46916.000000
58293.000000,30706.000000,11402.000000,46853.000000
58259.000000,30679.000000,11358.000000,46797.000000
58248.000000,30665.000000,11313.000000,46761.000000
58229.000000,30646.000000,11272.000000,46753.000000
58188.000000,30613.000000,11230.000000,46752.000000
58154.000000,30586.000000,11180.000000,46730.000000
58141.000000,30571.000000,11132.000000,46691.000000
58125.000000,30553.000000,11094.000000,46651.000000
58096.000000,30525.000000,11059.000000,46613.000000
58075.000000,30505.000000,11012.000000,46569.000000
58064.000000,30495.000000,10957.000000,46528.000000
58034.000000,30467.000000,10904.000000,46509.000000
57983.000000,30420.000000,10856.000000,46500.000000
57942.000000,30380.000000,10806.000000,46480.000000
57912.000000,30348.000000,10762.000000,46455.000000
57875.000000,30312.000000,10737.000000,46428.000000
57836.000000,30278.000000,10725.000000,46396.000000
57827.000000,30264.000000,10715.000000,46363.000000
57840.000000,30265.000000,10714.000000,46345.000000
57844.000000,30260.000000,10723.000000,46354.000000
57835.000000,30256.000000,10730.000000,46379.000000
57834.000000,30269.000000,10733.000000,46408.000000
57844.000000,30291.000000,10748.000000,46440.000000
57843.000000,30306.000000,10781.000000,46469.000000
57845.000000,30325.000000,10818.000000,46471.000000
57879.000000,30373.000000,10859.000000,46446.000000
57932.000000,30434.000000,10915.000000,46435.000000
57973.000000,30486.000000,10979.000000,46448.000000
58005.000000,30529.000000,11031.000000,46476.000000
58043.000000,30574.000000,11065.000000,46519.000000
58074.000000,30607.000000,11092.000000,46568.000000
58075.000000,30613.000000,11112.000000,46613.000000
58067.000000,30610.000000,11120.000000,46642.000000
58074.000000,30616.000000,11121.000000,46653.000000
58082.000000,30616.000000,11127.000000,46658.000000
58075.000000,30602.000000,11138.000000,46657.000000
58075.000000,30592.000000,11142.000000,46640.000000
58098.000000,30595.000000,11139.000000,46612.000000
58114.000000,30588.000000,11129.000000,46595.000000
58101.000000,30560.000000,11107.000000,46586.000000
58074.000000,30526.000000,11063.000000,46564.000000
58046.000000,30494.000000,11005.000000,46532.000000
58001.000000,30451.000000,10950.000000,46503.000000
57932.000000,30395.000000,10893.000000,46463.000000
57874.000000,30349.000000,10825.000000,46388.000000
57839.000000,30319.000000,10753.000000,46293.000000
57796.000000,30285.000000,10683.000000,46219.000000
57737.000000,30237.000000,10606.000000,46157.000000
57681.000000,30186.000000,10511.000000,46090.000000
57637.000000,30133.000000,10407.000000,46027.000000
57583.000000,30065.000000,10310.000000,45975.000000
57515.000000,29987.000000,10222.000000,45915.000000
57466.000000,29925.000000,10138.000000,45830.000000
57435.000000,29875.000000,10060.000000,45740.000000
57390.000000,29812.000000,9993.000000,45663.000000
57326.000000,29749.000000,9923.000000,45587.000000
57264.000000,29709.000000,9838.000000,45508.000000
57207.000000,29674.000000,9749.000000,45439.000000
57130.000000,29618.000000,9661.000000,45385.000000
57043.000000,29555.000000,9568.000000,45325.000000
56978.000000,29506.000000,9472.000000,45249.000000
56929.000000,29459.000000,9383.000000,45173.000000
56871.000000,29399.000000,9305.000000,45096.000000
56810.000000,29340.000000,9225.000000,45004.000000
56773.000000,29300.000000,9141.000000,44901.000000
56745.000000,29260.000000,9061.000000,44814.000000
56699.000000,29204.000000,8985.000000,44755.000000
56641.000000,29140.000000,8900.000000,44709.000000
56591.000000,29081.000000,8809.000000,44677.000000
56539.000000,29020.000000,8725.000000,44652.000000
56470.000000,28949.000000,8651.000000,44617.000000
56407.000000,28886.000000,8582.000000,44558.000000
56374.000000,28847.000000,8523.000000,44480.000000
56348.000000,28817.000000,8480.000000,44405.000000
56311.000000,28782.000000,8444.000000,44343.000000
56274.000000,28752.000000,8398.000000,44279.000000
56252.000000,28735.000000,8342.000000,44216.000000
56224.000000,28714.000000,8287.000000,44173.000000
56177.000000,28680.000000,8230.000000,44139.000000
56132.000000,28647.000000,8170.000000,44088.000000
56106.000000,28624.000000,8115.000000,44025.000000
56079.000000,28597.000000,8071.000000,43966.000000
56036.000000,28560.000000,8029.000000,43905.000000
56000.000000,28529.000000,7974.000000,43843.000000
55982.000000,28506.000000,7915.000000,43789.000000
55954.000000,28474.000000,7864.000000,43758.000000
55910.000000,28432.000000,7818.000000,43738.000000
55869.000000,28398.000000,7766.000000,43711.000000
55837.000000,28370.000000,7712.000000,43690.000000
55794.000000,28333.000000,7668.000000,43674.000000
55743.000000,28292.000000,7628.000000,43647.000000
55714.000000,28269.000000,7588.000000,43599.000000
55707.000000,28259.000000,7558.000000,43544.000000
55685.000000,28243.000000,7536.000000,43502.000000
55648.000000,28215.000000,7505.000000,43467.000000
55623.000000,28194.000000,7456.000000,43436.000000
55608.000000,28177.000000,7410.000000,43411.000000
55575.000000,28145.000000,7371.000000,43393.000000
55535.000000,28106.000000,7329.000000,43362.000000
55517.000000,28079.000000,7283.000000,43310.000000
55509.000000,28060.000000,7245.000000,43260.000000
55487.000000,28038.000000,7217.000000,43214.000000
55453.000000,28013.000000,7181.000000,43165.000000
55431.000000,27995.000000,7128.000000,43113.000000
55409.000000,27971.000000,7069.000000,43072.000000
55358.000000,27926.000000,7008.000000,43044.000000
55294.000000,27876.000000,6939.000000,43005.000000
55242.000000,27835.000000,6862.000000,42949.000000
55196.000000,27795.000000,6792.000000,42884.000000
55136.000000,27745.000000,6731.000000,42807.000000
55080.000000,27700.000000,6669.000000,42715.000000
55054.000000,27672.000000,6609.000000,42618.000000
55030.000000,27639.000000,6550.000000,42537.000000
54983.000000,27585.000000,6484.000000,42474.000000
54932.000000,27524.000000,6400.000000,42409.000000
54892.000000,27466.000000,6310.000000,42349.000000
54845.000000,27403.000000,6234.000000,42304.000000
54779.000000,27333.000000,6167.000000,42253.000000
54723.000000,27280.000000,6100.000000,42183.000000
54697.000000,27257.000000,6045.000000,42119.000000
54677.000000,27244.000000,6017.000000,42093.000000
54659.000000,27235.000000,6019.000000,42103.000000
54671.000000,27247.000000,6039.000000,42135.000000
54722.000000,27293.000000,6089.000000,42190.000000
54787.000000,27360.000000,6187.000000,42285.000000
54861.000000,27449.000000,6332.000000,42419.000000
54977.000000,27583.000000,6517.000000,42582.000000
55138.000000,27753.000000,6742.000000,42785.000000
55314.000000,27937.000000,7010.000000,43025.000000
55501.000000,28128.000000,7305.000000,43281.000000
55722.000000,28340.000000,7613.000000,43545.000000
55965.000000,28568.000000,7939.000000,43828.000000
56190.000000,28784.000000,8278.000000,44137.000000
56394.000000,28993.000000,8617.000000,44444.000000
56607.000000,29215.000000,8948.000000,44726.000000
56830.000000,29440.000000,9273.000000,44998.000000
57036.000000,29643.000000,9591.000000,45260.000000
57221.000000,29825.000000,9883.000000,45498.000000
57409.000000,29997.000000,10137.000000,45720.000000
57584.000000,30150.000000,10362.000000,45937.000000
57706.000000,30264.000000,10562.000000,46150.000000
57793.000000,30355.000000,10730.000000,46322.000000
57883.000000,30444.000000,10868.000000,46440.000000
57972.000000,30522.000000,10987.000000,46531.000000
58031.000000,30574.000000,11087.000000,46603.000000
58061.000000,30605.000000,11154.000000,46649.000000
58081.000000,30628.000000,11180.000000,46684.000000
58082.000000,30632.000000,11181.000000,46706.000000
58046.000000,30605.000000,11162.000000,46696.000000
58003.000000,30570.000000,11117.000000,46643.000000
57977.000000,30543.000000,11053.000000,46562.000000
57946.000000,30505.000000,10982.000000,46487.000000
57892.000000,30441.000000,10900.000000,46423.000000
57829.000000,30368.000000,10795.000000,46353.000000
57775.000000,30304.000000,10681.000000,46277.000000
57708.000000,30233.000000,10576.000000,46207.000000
57621.000000,30152.000000,10477.000000,46136.000000
57546.000000,30087.000000,10382.000000,46041.000000
57498.000000,30039.000000,10297.000000,45938.000000
57449.000000,29991.000000,10226.000000,45860.000000
57386.000000,29937.000000,10158.000000,45798.000000
57326.000000,29886.000000,10082.000000,45734.000000
57278.000000,29840.000000,10004.000000,45682.000000
57223.000000,29789.000000,9938.000000,45652.000000
57158.000000,29735.000000,9877.000000,45622.000000
57116.000000,29702.000000,9819.000000,45569.000000
57102.000000,29686.000000,9770.000000,45510.000000
57074.000000,29659.000000,9726.000000,45469.000000
57024.000000,29616.000000,9670.000000,45430.000000
56980.000000,29574.000000,9592.000000,45375.000000
56940.000000,29534.000000,9512.000000,45309.000000
56880.000000,29482.000000,9447.000000,45235.000000
56812.000000,29428.000000,9387.000000,45160.000000
56774.000000,29392.000000,9324.000000,45088.000000
56757.000000,29363.000000,9262.000000,45038.000000
56726.000000,29320.000000,9203.000000,45015.000000
56683.000000,29276.000000,9146.000000,44989.000000
56656.000000,29250.000000,9097.000000,44957.000000
56642.000000,29239.000000,9073.000000,44925.000000
56621.000000,29228.000000,9076.000000,44891.000000
56606.000000,29223.000000,9087.000000,44863.000000
56624.000000,29238.000000,9099.000000,44851.000000
56649.000000,29255.000000,9118.000000,44868.000000
56651.000000,29258.000000,9138.000000,44912.000000
56646.000000,29261.000000,9157.000000,44952.000000
56660.000000,29281.000000,9180.000000,44975.000000
56688.000000,29310.000000,9221.000000,45000.000000
56715.000000,29338.000000,9275.000000,45031.000000
56749.000000,29378.000000,9325.000000,45062.000000
56801.000000,29433.000000,9370.000000,45097.000000
56843.000000,29477.000000,9416.000000,45148.000000
56853.000000,29501.000000,9460.000000,45211.000000
56861.000000,29524.000000,9495.000000,45256.000000
56886.000000,29556.000000,9528.000000,45274.000000
56910.000000,29585.000000,9570.000000,45281.000000
56918.000000,29600.000000,9612.000000,45278.000000
56928.000000,29610.000000,9630.000000,45264.000000
56945.000000,29617.000000,9627.000000,45263.000000
56943.000000,29607.000000,9616.000000,45284.000000
56914.000000,29574.000000,9593.000000,45303.000000
56890.000000,29538.000000,9552.000000,45296.000000
56878.000000,29508.000000,9505.000000,45272.000000
56849.000000,29472.000000,9466.000000,45244.000000
56804.000000,29428.000000,9427.000000,45207.000000
56774.000000,29395.000000,9374.000000,45154.000000
56755.000000,29367.000000,9310.000000,45096.000000
56710.000000,29320.000000,9245.000000,45046.000000
56640.000000,29261.000000,9170.000000,44984.000000
56578.000000,29206.000000,9079.000000,44901.000000
56527.000000,29157.000000,8988.000000,44818.000000
56463.000000,29096.000000,8911.000000,44740.000000
56388.000000,29028.000000,8834.000000,44654.000000
56334.000000,28975.000000,8747.000000,44559.000000
56295.000000,28932.000000,8658.000000,44476.000000
56239.000000,28876.000000,8572.000000,44409.000000
56168.000000,28812.000000,8477.000000,44337.000000
56108.000000,28754.000000,8371.000000,44260.000000
56054.000000,28695.000000,8273.000000,44194.000000
55979.000000,28616.000000,8183.000000,44142.000000
55895.000000,28534.000000,8092.000000,44075.000000
55836.000000,28477.000000,8007.000000,43978.000000
55796.000000,28432.000000,7935.000000,43876.000000
55747.000000,28384.000000,7873.000000,43775.000000
55696.000000,28341.000000,7805.000000,43674.000000
55667.000000,28313.000000,7731.000000,43589.000000
55639.000000,28279.000000,7657.000000,43532.000000
55582.000000,28224.000000,7579.000000,43494.000000
55514.000000,28163.000000,7492.000000,43445.000000
55460.000000,28110.000000,7404.000000,43375.000000
55407.000000,28057.000000,7325.000000,43303.000000
55342.000000,27999.000000,7258.000000,43239.000000
55289.000000,27955.000000,7192.000000,43172.000000
55262.000000,27929.000000,7128.000000,43104.000000
55234.000000,27900.000000,7073.000000,43060.000000
55190.000000,27858.000000,7016.000000,43030.000000
55149.000000,27816.000000,6942.000000,42990.000000
55120.000000,27780.000000,6860.000000,42944.000000
55077.000000,27736.000000,6790.000000,42897.000000
55015.000000,27685.000000,6728.000000,42837.000000
54969.000000,27648.000000,6668.000000,42754.000000
54950.000000,27628.000000,6615.000000,42661.000000
54927.000000,27604.000000,6576.000000,42589.000000
54894.000000,27573.000000,6540.000000,42536.000000
54869.000000,27549.000000,6490.000000,42495.000000
54850.000000,27525.000000,6433.000000,42464.000000
54810.000000,27483.000000,6382.000000,42440.000000
54747.000000,27435.000000,6335.000000,42413.000000
54695.000000,27406.000000,6293.000000,42389.000000
54661.000000,27397.000000,6258.000000,42374.000000
54618.000000,27388.000000,6231.000000,42362.000000
54566.000000,27369.000000,6195.000000,42348.000000
54537.000000,27353.000000,6143.000000,42336.000000
54526.000000,27334.000000,6090.000000,42322.000000
54497.000000,27299.000000,6046.000000,42304.000000
54462.000000,27262.000000,6004.000000,42261.000000
54454.000000,27244.000000,5967.000000,42185.000000
54463.000000,27233.000000,5938.000000,42109.000000
54458.000000,27211.000000,5921.000000,42050.000000
54433.000000,27183.000000,5896.000000,42001.000000
54411.000000,27163.000000,5858.000000,41963.000000
54385.000000,27140.000000,5823.000000,41939.000000
54340.000000,27099.000000,5789.000000,41922.000000
54292.000000,27059.000000,5748.000000,41888.000000
54265.000000,27035.000000,5704.000000,41834.000000
54243.000000,27018.000000,5667.000000,41780.000000
54208.000000,26996.000000,5635.000000,41725.000000
54175.000000,26975.000000,5590.000000,41663.000000
54160.000000,26964.000000,5533.000000,41600.000000
54141.000000,26939.000000,5478.000000,41562.000000
54097.000000,26887.000000,5421.000000,41545.000000
54049.000000,26826.000000,5350.000000,41520.000000
54014.000000,26773.000000,5278.000000,41473.000000
53980.000000,26723.000000,5225.000000,41419.000000
53934.000000,26670.000000,5183.000000,41360.000000
53896.000000,26630.000000,5134.000000,41288.000000
53873.000000,26605.000000,5080.000000,41217.000000
53835.000000,26573.000000,5027.000000,41169.000000
53775.000000,26526.000000,4967.000000,41127.000000
53718.000000,26478.000000,4892.000000,41073.000000
53672.000000,26435.000000,4813.000000,41021.000000
53619.000000,26388.000000,4751.000000,40980.000000
53563.000000,26344.000000,4710.000000,40943.000000
53539.000000,26328.000000,4688.000000,40903.000000
53552.000000,26343.000000,4696.000000,40882.000000
53577.000000,26373.000000,4740.000000,40900.000000
53616.000000,26420.000000,4816.000000,40953.000000
53697.000000,26504.000000,4919.000000,41041.000000
53819.000000,26622.000000,5070.000000,41175.000000
53950.000000,26750.000000,5276.000000,41358.000000
54097.000000,26895.000000,5522.000000,41567.000000
54289.000000,27075.000000,5799.000000,41783.000000
54514.000000,27285.000000,6111.000000,42031.000000
54738.000000,27505.000000,6453.000000,42318.000000
54962.000000,27730.000000,6799.000000,42630.000000
55204.000000,27963.000000,7138.000000,42962.000000
55450.000000,28193.000000,7478.000000,43316.000000
55668.000000,28405.000000,7816.000000,43680.000000
55871.000000,28611.000000,8144.000000,44016.000000
56082.000000,28824.000000,8458.000000,44312.000000
56293.000000,29028.000000,8769.000000,44589.000000
56481.000000,29207.000000,9071.000000,44850.000000
56654.000000,29371.000000,9341.000000,45075.000000
56824.000000,29526.000000,9568.000000,45265.000000
56970.000000,29656.000000,9765.000000,45439.000000
57068.000000,29754.000000,9936.000000,45595.000000
57138.000000,29834.000000,10072.000000,45706.000000
57202.000000,29905.000000,10178.000000,45779.000000
57250.000000,29956.000000,10265.000000,45838.000000
57270.000000,29976.000000,10324.000000,45877.000000
57283.000000,29983.000000,10344.000000,45889.000000
57301.000000,29985.000000,10331.000000,45881.000000
57296.000000,29965.000000,10298.000000,45871.000000
57255.000000,29921.000000,10247.000000,45853.000000
57205.000000,29872.000000,10173.000000,45808.000000
57162.000000,29822.000000,10084.000000,45747.000000
57110.000000,29760.000000,9999.000000,45682.000000
57043.000000,29693.000000,9922.000000,45609.000000
56995.000000,29644.000000,9848.000000,45519.000000
56969.000000,29614.000000,9779.000000,45426.000000
56932.000000,29578.000000,9719.000000,45361.000000
56877.000000,29534.000000,9659.000000,45317.000000
56830.000000,29497.000000,9587.000000,45270.000000
56793.000000,29461.000000,9519.000000,45222.000000
56743.000000,29414.000000,9466.000000,45182.000000
56687.000000,29372.000000,9419.000000,45135.000000
56655.000000,29355.000000,9374.000000,45073.000000
56643.000000,29348.000000,9335.000000,45021.000000
56621.000000,29328.000000,9305.000000,44992.000000
56587.000000,29295.000000,9270.000000,44968.000000
56564.000000,29264.000000,9221.000000,44943.000000
56552.000000,29236.000000,9174.000000,44925.000000
56519.000000,29199.000000,9135.000000,44914.000000
56472.000000,29164.000000,9097.000000,44885.000000
56448.000000,29152.000000,9061.000000,44832.000000
56437.000000,29147.000000,9028.000000,44786.000000
56409.000000,29124.000000,8991.000000,44759.000000
56369.000000,29088.000000,8941.000000,44734.000000
56344.000000,29056.000000,8884.000000,44710.000000
56323.000000,29024.000000,8836.000000,44692.000000
56282.000000,28983.000000,8803.000000,44681.000000
56245.000000,28954.000000,8778.000000,44657.000000
56240.000000,28952.000000,8763.000000,44618.000000
56248.000000,28962.000000,8767.000000,44593.000000
56245.000000,28967.000000,8785.000000,44585.000000
56250.000000,28978.000000,8798.000000,44582.000000
56275.000000,28999.000000,8808.000000,44592.000000
56295.000000,29017.000000,8830.000000,44622.000000
56300.000000,29026.000000,8864.000000,44659.000000
56322.000000,29050.000000,8903.000000,44679.000000
56373.000000,29093.000000,8950.000000,44688.000000
56426.000000,29130.000000,9008.000000,44720.000000
56461.000000,29153.000000,9068.000000,44769.000000
56494.000000,29176.000000,9110.000000,44812.000000
56536.000000,29207.000000,9139.000000,44851.000000
56562.000000,29230.000000,9174.000000,44898.000000
56564.000000,29244.000000,9217.000000,44939.000000
56578.000000,29268.000000,9255.000000,44953.000000
56609.000000,29300.000000,9291.000000,44957.000000
56624.000000,29320.000000,9328.000000,44971.000000
56615.000000,29325.000000,9352.000000,44992.000000
56608.000000,29329.000000,9350.000000,45016.000000
56603.000000,29332.000000,9332.000000,45039.000000
56571.000000,29315.000000,9307.000000,45059.000000
56520.000000,29284.000000,9274.000000,45053.000000
56487.000000,29259.000000,9235.000000,45010.000000
56469.000000,29240.000000,9194.000000,44959.000000
56437.000000,29210.000000,9152.000000,44911.000000
56389.000000,29168.000000,9101.000000,44858.000000
56350.000000,29130.000000,9034.000000,44808.000000
56315.000000,29091.000000,8961.000000,44758.000000
56253.000000,29032.000000,8883.000000,44703.000000
56183.000000,28962.000000,8796.000000,44628.000000
56140.000000,28909.000000,8709.000000,44529.000000
56109.000000,28862.000000,8626.000000,44439.000000
56061.000000,28802.000000,8544.000000,44371.000000
56002.000000,28735.000000,8449.000000,44304.000000
55950.000000,28674.000000,8344.000000,44234.000000
55895.000000,28611.000000,8247.000000,44164.000000
55816.000000,28538.000000,8160.000000,44086.000000
55738.000000,28471.000000,8074.000000,43988.000000
55689.000000,28427.000000,7991.000000,43885.000000
55646.000000,28386.000000,7914.000000,43800.000000
55587.000000,28331.000000,7838.000000,43731.000000
55525.000000,28273.000000,7752.000000,43661.000000
55475.000000,28223.000000,7662.000000,43589.000000
55423.000000,28170.000000,7585.000000,43521.000000
55354.000000,28105.000000,7512.000000,43454.000000
55295.000000,28050.000000,7430.000000,43380.000000
55257.000000,28011.000000,7345.000000,43310.000000
55210.000000,27962.000000,7265.000000,43259.000000
55142.000000,27898.000000,7186.000000,43209.000000
55079.000000,27836.000000,7099.000000,43140.000000
55032.000000,27784.000000,7014.000000,43060.000000
54980.000000,27734.000000,6945.000000,42977.000000
54919.000000,27680.000000,6888.000000,42892.000000
54875.000000,27639.000000,6826.000000,42811.000000
54850.000000,27613.000000,6761.000000,42752.000000
54807.000000,27578.000000,6699.000000,42720.000000
54743.000000,27530.000000,6635.000000,42685.000000
54691.000000,27492.000000,6566.000000,42625.000000
54654.000000,27466.000000,6501.000000,42561.000000
54609.000000,27437.000000,6450.000000,42509.000000
54556.000000,27402.000000,6401.000000,42461.000000
54524.000000,27371.000000,6341.000000,42412.000000
54505.000000,27338.000000,6278.000000,42363.000000
54461.000000,27290.000000,6219.000000,42315.000000
54400.000000,27242.000000,6164.000000,42256.000000
54361.000000,27216.000000,6117.000000,42181.000000
54344.000000,27202.000000,6083.000000,42114.000000
54322.000000,27182.000000,6058.000000,42065.000000
54291.000000,27155.000000,6023.000000,42026.000000
54273.000000,27136.000000,5972.000000,41992.000000
54257.000000,27114.000000,5918.000000,41968.000000
54213.000000,27074.000000,5865.000000,41955.000000
54162.000000,27031.000000,5811.000000,41937.000000
54133.000000,27001.000000,5760.000000,41902.000000
54116.000000,26975.000000,5724.000000,41855.000000
54090.000000,26948.000000,5697.000000,41799.000000
54066.000000,26930.000000,5664.000000,41742.000000
54061.000000,26927.000000,5622.000000,41696.000000
54050.000000,26915.000000,5582.000000,41673.000000
54012.000000,26882.000000,5544.000000,41662.000000
53968.000000,26846.000000,5499.000000,41632.000000
53939.000000,26820.000000,5449.000000,41581.000000
53906.000000,26791.000000,5407.000000,41521.000000
53859.000000,26753.000000,5376.000000,41457.000000
53823.000000,26725.000000,5344.000000,41386.000000
53810.000000,26712.000000,5309.000000,41322.000000
53792.000000,26691.000000,5275.000000,41289.000000
53753.000000,26650.000000,5231.000000,41271.000000
53711.000000,26608.000000,5166.000000,41243.000000
53674.000000,26566.000000,5093.000000,41210.000000
53622.000000,26513.000000,5029.000000,41181.000000
53561.000000,26457.000000,4973.000000,41147.000000
53520.000000,26418.000000,4918.000000,41090.000000
53497.000000,26391.000000,4867.000000,41025.000000
53459.000000,26353.000000,4826.000000,40969.000000
53402.000000,26304.000000,4780.000000,40911.000000
53359.000000,26262.000000,4715.000000,40843.000000
53330.000000,26220.000000,4640.000000,40772.000000
53280.000000,26160.000000,4566.000000,40710.000000
53212.000000,26092.000000,4483.000000,40640.000000
53165.000000,26044.000000,4387.000000,40559.000000
53133.000000,26013.000000,4299.000000,40487.000000
53088.000000,25978.000000,4230.000000,40425.000000
53031.000000,25940.000000,4169.000000,40367.000000
52997.000000,25915.000000,4118.000000,40321.000000
52987.000000,25903.000000,4086.000000,40308.000000
52974.000000,25887.000000,4079.000000,40337.000000
52975.000000,25886.000000,4103.000000,40388.000000
53023.000000,25931.000000,4173.000000,40455.000000
53112.000000,26021.000000,4305.000000,40557.000000
53221.000000,26141.000000,4504.000000,40696.000000
53367.000000,26296.000000,4751.000000,40871.000000
53571.000000,26491.000000,5034.000000,41084.000000
53802.000000,26704.000000,5354.000000,41351.000000
54022.000000,26914.000000,5696.000000,41667.000000
54244.000000,27132.000000,6042.000000,42006.000000
54483.000000,27368.000000,6393.000000,42349.000000
54725.000000,27611.000000,6758.000000,42699.000000
54951.000000,27846.000000,7129.000000,43049.000000
55183.000000,28082.000000,7491.000000,43385.000000
55431.000000,28325.000000,7842.000000,43714.000000
55667.000000,28555.000000,8187.000000,44046.000000
55873.000000,28761.000000,8513.000000,44364.000000
56068.000000,28949.000000,8804.000000,44651.000000
56261.000000,29124.000000,9064.000000,44913.000000
56424.000000,29272.000000,9304.000000,45148.000000
56541.000000,29383.000000,9517.000000,45346.000000
56644.000000,29477.000000,9696.000000,45489.000000
56748.000000,29566.000000,9848.000000,45577.000000
56831.000000,29635.000000,9978.000000,45640.000000
56881.000000,29683.000000,10076.000000,45684.000000
56918.000000,29718.000000,10126.000000,45711.000000
56943.000000,29739.000000,10140.000000,45730.000000
56932.000000,29731.000000,10133.000000,45738.000000
56891.000000,29702.000000,10107.000000,45724.000000
56855.000000,29673.000000,10063.000000,45683.000000
56831.000000,29646.000000,10009.000000,45634.000000
56792.000000,29607.000000,9950.000000,45592.000000
56737.000000,29556.000000,9875.000000,45554.000000
56692.000000,29508.000000,9783.000000,45515.000000
56654.000000,29463.000000,9690.000000,45471.000000
56595.000000,29406.000000,9603.000000,45418.000000
56526.000000,29346.000000,9521.000000,45344.000000
56477.000000,29305.000000,9443.000000,45243.000000
56445.000000,29273.000000,9378.000000,45139.000000
56405.000000,29233.000000,9327.000000,45049.000000
56364.000000,29193.000000,9276.000000,44974.000000
56343.000000,29169.000000,9220.000000,44911.000000
56323.000000,29151.000000,9173.000000,44874.000000
56280.000000,29119.000000,9133.000000,44861.000000
56230.000000,29081.000000,9089.000000,44837.000000
56200.000000,29052.000000,9042.000000,44794.000000
56179.000000,29026.000000,9008.000000,44748.000000
56151.000000,29000.000000,8989.000000,44706.000000
56127.000000,28982.000000,8973.000000,44671.000000
56120.000000,28976.000000,8951.000000,44648.000000
56106.000000,28960.000000,8922.000000,44640.000000
56067.000000,28922.000000,8886.000000,44635.000000
56025.000000,28881.000000,8838.000000,44609.000000
55997.000000,28849.000000,8785.000000,44561.000000
55970.000000,28816.000000,8745.000000,44513.000000
55936.000000,28784.000000,8717.000000,44467.000000
55917.000000,28765.000000,8686.000000,44412.000000
55917.000000,28764.000000,8654.000000,44364.000000
55910.000000,28764.000000,8634.000000,44349.000000
55882.000000,28752.000000,8620.000000,44354.000000
55858.000000,28741.000000,8597.000000,44363.000000
55854.000000,28740.000000,8577.000000,44384.000000
55850.000000,28738.000000,8579.000000,44423.000000
55841.000000,28736.000000,8595.000000,44466.000000
55857.000000,28754.000000,8619.000000,44490.000000
55896.000000,28788.000000,8655.000000,44505.000000
55925.000000,28815.000000,8705.000000,44529.000000
55938.000000,28831.000000,8752.000000,44553.000000
55962.000000,28853.000000,8786.000000,44570.000000
55999.000000,28887.000000,8824.000000,44588.000000
56019.000000,28913.000000,8875.000000,44612.000000
56030.000000,28930.000000,8924.000000,44630.000000
56063.000000,28959.000000,8964.000000,44637.000000
56108.000000,28990.000000,8998.000000,44659.000000
56132.000000,29002.000000,9026.000000,44702.000000
56133.000000,28998.000000,9035.000000,44739.000000
56136.000000,28991.000000,9023.000000,44764.000000
56142.000000,28985.000000,9011.000000,44780.000000
56123.000000,28970.000000,9008.000000,44780.000000
56096.000000,28953.000000,8999.000000,44755.000000
56093.000000,28953.000000,8977.000000,44709.000000
56096.000000,28953.000000,8952.000000,44673.000000
56077.000000,28935.000000,8925.000000,44656.000000
56044.000000,28905.000000,8878.000000,44633.000000
56015.000000,28875.000000,8810.000000,44602.000000
55981.000000,28841.000000,8746.000000,44575.000000
55929.000000,28797.000000,8692.000000,44536.000000
55880.000000,28757.000000,8632.000000,44467.000000
55851.000000,28731.000000,8564.000000,44382.000000
55819.000000,28701.000000,8496.000000,44303.000000
55763.000000,28652.000000,8425.000000,44231.000000
55701.000000,28597.000000,8336.000000,44161.000000
55651.000000,28546.000000,8238.000000,44090.000000
55593.000000,28485.000000,8149.000000,44022.000000
55514.000000,28408.000000,8063.000000,43957.000000
55445.000000,28335.000000,7974.000000,43873.000000
55401.000000,28276.000000,7889.000000,43771.000000
55358.000000,28215.000000,7811.000000,43682.000000
55298.000000,28150.000000,7732.000000,43604.000000
55238.000000,28089.000000,7637.000000,43527.000000
55183.000000,28035.000000,7530.000000,43460.000000
55111.000000,27973.000000,7426.000000,43404.000000
55023.000000,27902.000000,7327.000000,43342.000000
54953.000000,27844.000000,7230.000000,43258.000000
54902.000000,27799.000000,7140.000000,43170.000000
54843.000000,27750.000000,7065.000000,43090.000000
54774.000000,27697.000000,6993.000000,43016.000000
54720.000000,27653.000000,6909.000000,42950.000000
54680.000000,27610.000000,6824.000000,42892.000000
54619.000000,27549.000000,6746.000000,42839.000000
54545.000000,27486.000000,6673.000000,42768.000000
54492.000000,27444.000000,6600.000000,42675.000000
54458.000000,27411.000000,6532.000000,42587.000000
54415.000000,27365.000000,6471.000000,42508.000000
54364.000000,27314.000000,6406.000000,42426.000000
54332.000000,27276.000000,6336.000000,42348.000000
54312.000000,27240.000000,6270.000000,42292.000000
54272.000000,27188.000000,6210.000000,42264.000000
54217.000000,27131.000000,6145.000000,42239.000000
54170.000000,27086.000000,6075.000000,42204.000000
54125.000000,27045.000000,6015.000000,42166.000000
54065.000000,26993.000000,5969.000000,42124.000000
54009.000000,26947.000000,5928.000000,42065.000000
53986.000000,26924.000000,5889.000000,41992.000000
53973.000000,26911.000000,5856.000000,41928.000000
53945.000000,26889.000000,5824.000000,41875.000000
53918.000000,26865.000000,5780.000000,41823.000000
53907.000000,26847.000000,5726.000000,41780.000000
53891.000000,26821.000000,5675.000000,41760.000000
53852.000000,26776.000000,5627.000000,41753.000000
53813.000000,26737.000000,5580.000000,41731.000000
53792.000000,26720.000000,5539.000000,41683.000000
53766.000000,26706.000000,5511.000000,41630.000000
53722.000000,26681.000000,5488.000000,41583.000000
53690.000000,26660.000000,5455.000000,41536.000000
53679.000000,26648.000000,5415.000000,41493.000000
53653.000000,26623.000000,5376.000000,41471.000000
53603.000000,26583.000000,5331.000000,41460.000000
53557.000000,26548.000000,5276.000000,41434.000000
53527.000000,26523.000000,5223.000000,41397.000000
53493.000000,26492.000000,5185.000000,41360.000000
53452.000000,26459.000000,5155.000000,41307.000000
53432.000000,26439.000000,5121.000000,41224.000000
53432.000000,26430.000000,5089.000000,41142.000000
53418.000000,26410.000000,5062.000000,41087.000000
53388.000000,26378.000000,5032.000000,41049.000000
53371.000000,26351.000000,4986.000000,41020.000000
53367.000000,26327.000000,4934.000000,41001.000000
53343.000000,26289.000000,4884.000000,40988.000000
53300.000000,26243.000000,4831.000000,40959.000000
53266.000000,26208.000000,4771.000000,40904.000000
53241.000000,26180.000000,4714.000000,40838.000000
53198.000000,26136.000000,4664.000000,40770.000000
53145.000000,26086.000000,4604.000000,40697.000000
53108.000000,26048.000000,4531.000000,40625.000000
53072.000000,26010.000000,4457.000000,40566.000000
53006.000000,25955.000000,4379.000000,40516.000000
52921.000000,25894.000000,4288.000000,40459.000000
52847.000000,25840.000000,4183.000000,40393.000000
52781.000000,25788.000000,4085.000000,40323.000000
52701.000000,25729.000000,4003.000000,40245.000000
52632.000000,25679.000000,3931.000000,40157.000000
52597.000000,25649.000000,3870.000000,40074.000000
52574.000000,25627.000000,3826.000000,40013.000000
52543.000000,25599.000000,3795.000000,39973.000000
52529.000000,25586.000000,3774.000000,39953.000000
52551.000000,25605.000000,3776.000000,39964.000000
52590.000000,25642.000000,3821.000000,40015.000000
52635.000000,25692.000000,3914.000000,40110.000000
52719.000000,25778.000000,4052.000000,40233.000000
52856.000000,25908.000000,4239.000000,40382.000000
53026.000000,26067.000000,4484.000000,40578.000000
53208.000000,26245.000000,4777.000000,40820.000000
53419.000000,26452.000000,5094.000000,41098.000000
53662.000000,26684.000000,5430.000000,41424.000000
53905.000000,26918.000000,5784.000000,41800.000000
54136.000000,27148.000000,6149.000000,42189.000000
54377.000000,27388.000000,6516.000000,42560.000000
54629.000000,27636.000000,6891.000000,42912.000000
54870.000000,27874.000000,7274.000000,43251.000000
55095.000000,28104.000000,7649.000000,43572.000000
55333.000000,28338.000000,8004.000000,43863.000000
55577.000000,28568.000000,8338.000000,44137.000000
55791.000000,28768.000000,8649.000000,44410.000000
55966.000000,28934.000000,8926.000000,44659.000000
56129.000000,29084.000000,9154.000000,44868.000000
56273.000000,29220.000000,9346.000000,45043.000000
56365.000000,29319.000000,9510.000000,45191.000000
56417.000000,29393.000000,9640.000000,45302.000000
56462.000000,29463.000000,9731.000000,45374.000000
56504.000000,29518.000000,9789.000000,45418.000000
56522.000000,29538.000000,9823.000000,45436.000000
56513.000000,29530.000000,9829.000000,45439.000000
56500.000000,29510.000000,9808.000000,45433.000000
56479.000000,29476.000000,9770.000000,45422.000000
56430.000000,29415.000000,9720.000000,45404.000000
56370.000000,29348.000000,9658.000000,45357.000000
56331.000000,29298.000000,9586.000000,45279.000000
56300.000000,29250.000000,9515.000000,45193.000000
56251.000000,29192.000000,9447.000000,45102.000000
56197.000000,29135.000000,9367.000000,45010.000000
56160.000000,29090.000000,9275.000000,44931.000000
56119.000000,29042.000000,9182.000000,44870.000000
56051.000000,28976.000000,9085.000000,44809.000000
55979.000000,28915.000000,8986.000000,44729.000000
55928.000000,28872.000000,8894.000000,44640.000000
55886.000000,28833.000000,8821.000000,44570.000000
55837.000000,28788.000000,8761.000000,44520.000000
55802.000000,28753.000000,8696.000000,44477.000000
55792.000000,28731.000000,8631.000000,44445.000000
55776.000000,28703.000000,8578.000000,44432.000000
55741.000000,28665.000000,8531.000000,44420.000000
55710.000000,28634.000000,8484.000000,44391.000000
55691.000000,28613.000000,8441.000000,44356.000000
55657.000000,28583.000000,8411.000000,44318.000000
55603.000000,28543.000000,8379.000000,44269.000000
55564.000000,28509.000000,8334.000000,44208.000000
55543.000000,28484.000000,8287.000000,44156.000000
55507.000000,28446.000000,8245.000000,44127.000000
55458.000000,28398.000000,8202.000000,44099.000000
55424.000000,28362.000000,8155.000000,44060.000000
55408.000000,28339.000000,8112.000000,44025.000000
55379.000000,28314.000000,8086.000000,43998.000000
55344.000000,28295.000000,8070.000000,43970.000000
55340.000000,28306.000000,8061.000000,43941.000000
55361.000000,28333.000000,8066.000000,43934.000000
55369.000000,28349.000000,8088.000000,43955.000000
55367.000000,28356.000000,8111.000000,43986.000000
55384.000000,28377.000000,8130.000000,44020.000000
55418.000000,28411.000000,8157.000000,44063.000000
55441.000000,28437.000000,8198.000000,44113.000000
55462.000000,28462.000000,8244.000000,44150.000000
55509.000000,28505.000000,8300.000000,44169.000000
55568.000000,28555.000000,8371.000000,44196.000000
55612.000000,28597.000000,8451.000000,44232.000000
55650.000000,28636.000000,8521.000000,44268.000000
55705.000000,28683.000000,8575.000000,44310.000000
55752.000000,28726.000000,8625.000000,44375.000000
55767.000000,28749.000000,8675.000000,44452.000000
55775.000000,28769.000000,8715.000000,44506.000000
55799.000000,28797.000000,8745.000000,44532.000000
55824.000000,28818.000000,8776.000000,44547.000000
55833.000000,28827.000000,8805.000000,44551.000000
55841.000000,28831.000000,8816.000000,44543.000000
55862.000000,28837.000000,8806.000000,44530.000000
55870.000000,28834.000000,8785.000000,44530.000000
55847.000000,28810.000000,8752.000000,44534.000000
55811.000000,28779.000000,8698.000000,44508.000000
55779.000000,28746.000000,8631.000000,44448.000000
55736.000000,28701.000000,8571.000000,44378.000000
55678.000000,28647.000000,8514.000000,44297.000000
55633.000000,28607.000000,8451.000000,44202.000000
55611.000000,28585.000000,8391.000000,44115.000000
55581.000000,28559.000000,8339.000000,44056.000000
55528.000000,28514.000000,8280.000000,44009.000000
55471.000000,28466.000000,8199.000000,43956.000000
55420.000000,28419.000000,8103.000000,43896.000000
55355.000000,28354.000000,8007.000000,43837.000000
55273.000000,28274.000000,7913.000000,43776.000000
55204.000000,28202.000000,7815.000000,43699.000000
55149.000000,28143.000000,7724.000000,43611.000000
55081.000000,28080.000000,7647.000000,43522.000000
55001.000000,28017.000000,7569.000000,43428.000000
54946.000000,27973.000000,7487.000000,43327.000000
54916.000000,27939.000000,7405.000000,43235.000000
54874.000000,27889.000000,7324.000000,43162.000000
54814.000000,27824.000000,7238.000000,43094.000000
54761.000000,27762.000000,7142.000000,43028.000000
54717.000000,27703.000000,7051.000000,42970.000000
54654.000000,27637.000000,6970.000000,42911.000000
54585.000000,27576.000000,6888.000000,42825.000000
54545.000000,27538.000000,6805.000000,42716.000000
54520.000000,27508.000000,6728.000000,42625.000000
54476.000000,27466.000000,6657.000000,42558.000000
54416.000000,27420.000000,6578.000000,42490.000000
54362.000000,27377.000000,6490.000000,42426.000000
54305.000000,27329.000000,6403.000000,42377.000000
54227.000000,27266.000000,6320.000000,42333.000000
54155.000000,27207.000000,6240.000000,42274.000000
54114.000000,27167.000000,6173.000000,42201.000000
54082.000000,27131.000000,6123.000000,42135.000000
54037.000000,27087.000000,6079.000000,42078.000000
53996.000000,27045.000000,6026.000000,42020.000000
53973.000000,27013.000000,5965.000000,41959.000000
53943.000000,26977.000000,5905.000000,41911.000000
53892.000000,26929.000000,5845.000000,41881.000000
53844.000000,26885.000000,5783.000000,41845.000000
53815.000000,26855.000000,5725.000000,41799.000000
53785.000000,26824.000000,5686.000000,41754.000000
53746.000000,26789.000000,5657.000000,41702.000000
53721.000000,26768.000000,5620.000000,41637.000000
53714.000000,26762.000000,5580.000000,41584.000000
53695.000000,26746.000000,5548.000000,41564.000000
53657.000000,26712.000000,5513.000000,41558.000000
53625.000000,26678.000000,5465.000000,41545.000000
53603.000000,26649.000000,5413.000000,41522.000000
53566.000000,26617.000000,5373.000000,41497.000000
53518.000000,26583.000000,5334.000000,41472.000000
53494.000000,26565.000000,5293.000000,41435.000000
53491.000000,26559.000000,5259.000000,41399.000000
53470.000000,26542.000000,5235.000000,41382.000000
53428.000000,26512.000000,5205.000000,41367.000000
53389.000000,26482.000000,5164.000000,41338.000000
53359.000000,26455.000000,5125.000000,41300.000000
53316.000000,26419.000000,5095.000000,41256.000000
53268.000000,26383.000000,5062.000000,41196.000000
53244.000000,26365.000000,5022.000000,41126.000000
53231.000000,26349.000000,4977.000000,41076.000000
53200.000000,26314.000000,4925.000000,41046.000000
53154.000000,26268.000000,4857.000000,41005.000000
53114.000000,26226.000000,4775.000000,40950.000000
53080.000000,26183.000000,4701.000000,40901.000000
53029.000000,26133.000000,4641.000000,40858.000000
52976.000000,26086.000000,4584.000000,40796.000000
52945.000000,26055.000000,4530.000000,40709.000000
52925.000000,26030.000000,4493.000000,40620.000000
52896.000000,25996.000000,4467.000000,40545.000000
52867.000000,25966.000000,4433.000000,40481.000000
52857.000000,25958.000000,4396.000000,40445.000000
52854.000000,25965.000000,4381.000000,40462.000000
52846.000000,25975.000000,4400.000000,40527.000000
52864.000000,26010.000000,4451.000000,40610.000000
52930.000000,26087.000000,4543.000000,40709.000000
53034.000000,26197.000000,4692.000000,40843.000000
53163.000000,26333.000000,4900.000000,41015.000000
53332.000000,26502.000000,5144.000000,41222.000000
53547.000000,26703.000000,5420.000000,41477.000000
53774.000000,26918.000000,5733.000000,41782.000000
53994.000000,27134.000000,6067.000000,42111.000000
54224.000000,27360.000000,6406.000000,42443.000000
54469.000000,27598.000000,6754.000000,42779.000000
54705.000000,27829.000000,7121.000000,43122.000000
54925.000000,28049.000000,7495.000000,43453.000000
55156.000000,28276.000000,7857.000000,43752.000000
55397.000000,28507.000000,8209.000000,44030.000000
55618.000000,28723.000000,8557.000000,44299.000000
55809.000000,28915.000000,8877.000000,44547.000000
55998.000000,29097.000000,9149.000000,44767.000000
56183.000000,29266.000000,9383.000000,44969.000000
56329.000000,29397.000000,9582.000000,45165.000000
56435.000000,29488.000000,9740.000000,45341.000000
56526.000000,29564.000000,9855.000000,45479.000000
56603.000000,29627.000000,9947.000000,45577.000000
56636.000000,29662.000000,10026.000000,45631.000000
56638.000000,29676.000000,10076.000000,45641.000000
56646.000000,29689.000000,10089.000000,45623.000000
56650.000000,29690.000000,10075.000000,45600.000000
56623.000000,29658.000000,10037.000000,45587.000000
56567.000000,29600.000000,9968.000000,45562.000000
56509.000000,29539.000000,9871.000000,45518.000000
56448.000000,29477.000000,9769.000000,45468.000000
56367.000000,29404.000000,9672.000000,45403.000000
56289.000000,29332.000000,9574.000000,45307.000000
56242.000000,29279.000000,9476.000000,45187.000000
56206.000000,29228.000000,9385.000000,45074.000000
56155.000000,29167.000000,9298.000000,44980.000000
56097.000000,29109.000000,9203.000000,44896.000000
56047.000000,29058.000000,9099.000000,44818.000000
55987.000000,28998.000000,9001.000000,44751.000000
55903.000000,28926.000000,8914.000000,44691.000000
55827.000000,28864.000000,8833.000000,44616.000000
55780.000000,28822.000000,8757.000000,44525.000000
55737.000000,28782.000000,8692.000000,44439.000000
55681.000000,28732.000000,8629.000000,44353.000000
55633.000000,28686.000000,8552.000000,44267.000000
55610.000000,28650.000000,8471.000000,44200.000000
55582.000000,28602.000000,8398.000000,44162.000000
55530.000000,28537.000000,8324.000000,44134.000000
55477.000000,28474.000000,8239.000000,44098.000000
55432.000000,28420.000000,8153.000000,44056.000000
55380.000000,28361.000000,8081.000000,44010.000000
55317.000000,28301.000000,8020.000000,43942.000000
55272.000000,28260.000000,7962.000000,43849.000000
55254.000000,28241.000000,7916.000000,43759.000000
55231.000000,28224.000000,7887.000000,43696.000000
55196.000000,28207.000000,7866.000000,43659.000000
55178.000000,28207.000000,7842.000000,43640.000000
55178.000000,28217.000000,7830.000000,43645.000000
55169.000000,28218.000000,7842.000000,43675.000000
55157.000000,28222.000000,7869.000000,43709.000000
55176.000000,28247.000000,7903.000000,43731.000000
55219.000000,28289.000000,7949.000000,43760.000000
55254.000000,28329.000000,8013.000000,43805.000000
55286.000000,28370.000000,8077.000000,43857.000000
55345.000000,28426.000000,8136.000000,43923.000000
55415.000000,28486.000000,8198.000000,44017.000000
55452.000000,28530.000000,8259.000000,44134.000000
55473.000000,28558.000000,8318.000000,44227.000000
55519.000000,28580.000000,8371.000000,44285.000000
55580.000000,28603.000000,8425.000000,44335.000000
55614.000000,28621.000000,8488.000000,44385.000000
55633.000000,28642.000000,8541.000000,44426.000000
55666.000000,28677.000000,8582.000000,44451.000000
55695.000000,28712.000000,8618.000000,44472.000000
55698.000000,28729.000000,8643.000000,44496.000000
55691.000000,28737.000000,8645.000000,44501.000000
55692.000000,28745.000000,8634.000000,44487.000000
55690.000000,28749.000000,8626.000000,44470.000000
55669.000000,28742.000000,8620.000000,44443.000000
55652.000000,28734.000000,8597.000000,44388.000000
55651.000000,28727.000000,8558.000000,44324.000000
55636.000000,28701.000000,8506.000000,44282.000000
55591.000000,28648.000000,8443.000000,44249.000000
55537.000000,28589.000000,8367.000000,44189.000000
55489.000000,28539.000000,8287.000000,44103.000000
55426.000000,28486.000000,8217.000000,44015.000000
55344.000000,28419.000000,8144.000000,43925.000000
55276.000000,28353.000000,8053.000000,43823.000000
55228.000000,28294.000000,7953.000000,43718.000000
55165.000000,28225.000000,7852.000000,43639.000000
55081.000000,28145.000000,7746.000000,43581.000000
55005.000000,28073.000000,7633.000000,43516.000000
54944.000000,28009.000000,7521.000000,43436.000000
54875.000000,27940.000000,7422.000000,43346.000000
54801.000000,27869.000000,7331.000000,43256.000000
54750.000000,27813.000000,7240.000000,43172.000000
54719.000000,27768.000000,7148.000000,43097.000000
54671.000000,27714.000000,7056.000000,43040.000000
54605.000000,27652.000000,6962.000000,42975.000000
54549.000000,27598.000000,6863.000000,42887.000000
54504.000000,27549.000000,6772.000000,42793.000000
54447.000000,27492.000000,6694.000000,42699.000000
54380.000000,27434.000000,6618.000000,42597.000000
54333.000000,27389.000000,6542.000000,42492.000000
54294.000000,27350.000000,6471.000000,42403.000000
54236.000000,27304.000000,6401.000000,42332.000000
54166.000000,27253.000000,6315.000000,42263.000000
54110.000000,27205.000000,6213.000000,42199.000000
54055.000000,27152.000000,6115.000000,42150.000000
53979.000000,27084.000000,6028.000000,42111.000000
53901.000000,27019.000000,5943.000000,42053.000000
53843.000000,26971.000000,5863.000000,41968.000000
53795.000000,26927.000000,5793.000000,41877.000000
53738.000000,26873.000000,5731.000000,41787.000000
53690.000000,26826.000000,5663.000000,41695.000000
53672.000000,26794.000000,5590.000000,41608.000000
53654.000000,26760.000000,5522.000000,41549.000000
53612.000000,26713.000000,5460.000000,41516.000000
53564.000000,26665.000000,5393.000000,41480.000000
53530.000000,26624.000000,5328.000000,41437.000000
53496.000000,26582.000000,5279.000000,41393.000000
53452.000000,26535.000000,5243.000000,41334.000000
53424.000000,26506.000000,5206.000000,41258.000000
53420.000000,26498.000000,5170.000000,41197.000000
53405.000000,26484.000000,5138.000000,41176.000000
53366.000000,26457.000000,5101.000000,41171.000000
53331.000000,26433.000000,5051.000000,41151.000000
53303.000000,26413.000000,4997.000000,41119.000000
53260.000000,26385.000000,4955.000000,41085.000000
53205.000000,26349.000000,4921.000000,41043.000000
53173.000000,26327.000000,4886.000000,40986.000000
53164.000000,26316.000000,4849.000000,40931.000000
53147.000000,26296.000000,4813.000000,40900.000000
53114.000000,26265.000000,4772.000000,40875.000000
53092.000000,26240.000000,4725.000000,40844.000000
53076.000000,26220.000000,4679.000000,40813.000000
53035.000000,26184.000000,4639.000000,40789.000000
52979.000000,26143.000000,4597.000000,40744.000000
52945.000000,26116.000000,4548.000000,40664.000000
52929.000000,26094.000000,4501.000000,40584.000000
52899.000000,26061.000000,4462.000000,40527.000000
52860.000000,26018.000000,4415.000000,40478.000000
52842.000000,25984.000000,4354.000000,40430.000000
52826.000000,25949.000000,4288.000000,40395.000000
52779.000000,25897.000000,4216.000000,40375.000000
52709.000000,25837.000000,4132.000000,40346.000000
52648.000000,25784.000000,4040.000000,40303.000000
52594.000000,25732.000000,3956.000000,40256.000000
52528.000000,25670.000000,3886.000000,40201.000000
52465.000000,25617.000000,3818.000000,40135.000000
52428.000000,25587.000000,3755.000000,40064.000000
52402.000000,25564.000000,3701.000000,40004.000000
52363.000000,25533.000000,3656.000000,39959.000000
52333.000000,25506.000000,3617.000000,39921.000000
52334.000000,25499.000000,3596.000000,39895.000000
52351.000000,25511.000000,3612.000000,39904.000000
52374.000000,25539.000000,3675.000000,39957.000000
52434.000000,25607.000000,3782.000000,40035.000000
52550.000000,25725.000000,3940.000000,40153.000000
52699.000000,25874.000000,4161.000000,40334.000000
52865.000000,26042.000000,4433.000000,40559.000000
53063.000000,26242.000000,4734.000000,40808.000000
53299.000000,26472.000000,5060.000000,41095.000000
53542.000000,26713.000000,5420.000000,41432.000000
53779.000000,26957.000000,5811.000000,41803.000000
54038.000000,27219.000000,6220.000000,42176.000000
54320.000000,27496.000000,6646.000000,42547.000000
54597.000000,27770.000000,7087.000000,42920.000000
54860.000000,28039.000000,7521.000000,43285.000000
55134.000000,28307.000000,7921.000000,43641.000000
55412.000000,28566.000000,8292.000000,43991.000000
55651.000000,28798.000000,8642.000000,44331.000000
55844.000000,28997.000000,8958.000000,44640.000000
56025.000000,29180.000000,9235.000000,44904.000000
56202.000000,29350.000000,9480.000000,45134.000000
56350.000000,29494.000000,9705.000000,45328.000000
56466.000000,29605.000000,9893.000000,45482.000000
56575.000000,29697.000000,10034.000000,45602.000000
56669.000000,29767.000000,10139.000000,45701.000000
56718.000000,29801.000000,10215.000000,45783.000000
56730.000000,29811.000000,10257.000000,45827.000000
56739.000000,29815.000000,10267.000000,45831.000000
56741.000000,29812.000000,10262.000000,45814.000000
56718.000000,29794.000000,10248.000000,45784.000000
56682.000000,29765.000000,10210.000000,45738.000000
56656.000000,29735.000000,10147.000000,45684.000000
56625.000000,29694.000000,10072.000000,45643.000000
56564.000000,29630.000000,9988.000000,45611.000000
56491.000000,29559.000000,9888.000000,45560.000000
56429.000000,29495.000000,9774.000000,45484.000000
56370.000000,29429.000000,9670.000000,45395.000000
56297.000000,29358.000000,9584.000000,45298.000000
56232.000000,29296.000000,9501.000000,45190.000000
56193.000000,29251.000000,9416.000000,45084.000000
56159.000000,29207.000000,9337.000000,45008.000000
56112.000000,29157.000000,9267.000000,44963.000000
56068.000000,29111.000000,9195.000000,44928.000000
56039.000000,29076.000000,9128.000000,44895.000000
56004.000000,29041.000000,9082.000000,44860.000000
55959.000000,29005.000000,9056.000000,44815.000000
55934.000000,28985.000000,9034.000000,44759.000000
55939.000000,28985.000000,9014.000000,44710.000000
55940.000000,28981.000000,8997.000000,44686.000000
55918.000000,28965.000000,8972.000000,44671.000000
55892.000000,28949.000000,8924.000000,44647.000000
55867.000000,28933.000000,8863.000000,44621.000000
55820.000000,28903.000000,8806.000000,44600.000000
55755.000000,28860.000000,8751.000000,44561.000000
55706.000000,28828.000000,8693.000000,44488.000000
55679.000000,28810.000000,8645.000000,44414.000000
55648.000000,28790.000000,8616.000000,44363.000000
55612.000000,28767.000000,8592.000000,44321.000000
55600.000000,28756.000000,8562.000000,44285.000000
55612.000000,28751.000000,8542.000000,44271.000000
55610.000000,28734.000000,8538.000000,44290.000000
55598.000000,28716.000000,8545.000000,44304.000000
55608.000000,28716.000000,8561.000000,44293.000000
55636.000000,28732.000000,8591.000000,44284.000000
55657.000000,28752.000000,8637.000000,44291.000000
55675.000000,28775.000000,8685.000000,44307.000000
55711.000000,28813.000000,8727.000000,44336.000000
55753.000000,28853.000000,8771.000000,44394.000000
55772.000000,28877.000000,8818.000000,44478.000000
55784.000000,28896.000000,8860.000000,44552.000000
55815.000000,28926.000000,8901.000000,44602.000000
55856.000000,28959.000000,8951.000000,44650.000000
55888.000000,28984.000000,9007.000000,44700.000000
55922.000000,29009.000000,9052.000000,44733.000000
55973.000000,29043.000000,9087.000000,44759.000000
56013.000000,29070.000000,9114.000000,44795.000000
56014.000000,29069.000000,9128.000000,44828.000000
56001.000000,29056.000000,9126.000000,44841.000000
55996.000000,29046.000000,9111.000000,44841.000000
55981.000000,29029.000000,9099.000000,44842.000000
55944.000000,29000.000000,9088.000000,44838.000000
55912.000000,28976.000000,9070.000000,44809.000000
55900.000000,28965.000000,9044.000000,44758.000000
55882.000000,28948.000000,9015.000000,44715.000000
55842.000000,28917.000000,8978.000000,44672.000000
55800.000000,28878.000000,8919.000000,44613.000000
55764.000000,28837.000000,8841.000000,44553.000000
55705.000000,28778.000000,8757.000000,44502.000000
55618.000000,28705.000000,8669.000000,44447.000000
55540.000000,28642.000000,8577.000000,44370.000000
55485.000000,28595.000000,8491.000000,44279.000000
55427.000000,28545.000000,8415.000000,44197.000000
55360.000000,28492.000000,8335.000000,44116.000000
55306.000000,28445.000000,8238.000000,44028.000000
55263.000000,28393.000000,8130.000000,43937.000000
55197.000000,28318.000000,8018.000000,43846.000000
55112.000000,28232.000000,7905.000000,43742.000000
55041.000000,28161.000000,7791.000000,43626.000000
54987.000000,28103.000000,7682.000000,43513.000000
54923.000000,28040.000000,7588.000000,43401.000000
54850.000000,27971.000000,7494.000000,43290.000000
54796.000000,27910.000000,7388.000000,43189.000000
54744.000000,27846.000000,7280.000000,43110.000000
54664.000000,27762.000000,7168.000000,43051.000000
54571.000000,27672.000000,7047.000000,42982.000000
54499.000000,27595.000000,6923.000000,42893.000000
54442.000000,27531.000000,6816.000000,42796.000000
54373.000000,27469.000000,6725.000000,42697.000000
54302.000000,27419.000000,6631.000000,42586.000000
54257.000000,27388.000000,6534.000000,42462.000000
54222.000000,27356.000000,6449.000000,42347.000000
54171.000000,27308.000000,6371.000000,42250.000000
54113.000000,27252.000000,6286.000000,42166.000000
54059.000000,27197.000000,6191.000000,42101.000000
53997.000000,27137.000000,6108.000000,42053.000000
53916.000000,27069.000000,6040.000000,42003.000000
53844.000000,27009.000000,5972.000000,41936.000000
53803.000000,26968.000000,5906.000000,41857.000000
53771.000000,26927.000000,5854.000000,41793.000000
53727.000000,26874.000000,5809.000000,41747.000000
53684.000000,26825.000000,5754.000000,41698.000000
53654.000000,26784.000000,5690.000000,41644.000000
53614.000000,26741.000000,5634.000000,41603.000000
53551.000000,26692.000000,5583.000000,41564.000000
53497.000000,26655.000000,5530.000000,41503.000000
53470.000000,26637.000000,5480.000000,41432.000000
53444.000000,26619.000000,5441.000000,41374.000000
53406.000000,26589.000000,5401.000000,41329.000000
53378.000000,26562.000000,5346.000000,41295.000000
53360.000000,26541.000000,5286.000000,41275.000000
53322.000000,26509.000000,5233.000000,41270.000000
53269.000000,26470.000000,5184.000000,41261.000000
53233.000000,26443.000000,5134.000000,41234.000000
53213.000000,26425.000000,5090.000000,41195.000000
53185.000000,26401.000000,5059.000000,41151.000000
53152.000000,26376.000000,5030.000000,41101.000000
53141.000000,26366.000000,4993.000000,41047.000000
53140.000000,26359.000000,4958.000000,41003.000000
53116.000000,26333.000000,4927.000000,40987.000000
53074.000000,26290.000000,4886.000000,40977.000000
53040.000000,26249.000000,4827.000000,40958.000000
53011.000000,26213.000000,4773.000000,40930.000000
52962.000000,26170.000000,4733.000000,40887.000000
52910.000000,26129.000000,4694.000000,40818.000000
52884.000000,26107.000000,4652.000000,40727.000000
52870.000000,26091.000000,4612.000000,40649.000000
52844.000000,26065.000000,4574.000000,40592.000000
52808.000000,26032.000000,4522.000000,40545.000000
52779.000000,26004.000000,4453.000000,40507.000000
52744.000000,25969.000000,4384.000000,40474.000000
52686.000000,25913.000000,4316.000000,40432.000000
52625.000000,25853.000000,4244.000000,40370.000000
52587.000000,25805.000000,4173.000000,40294.000000
52554.000000,25763.000000,4112.000000,40216.000000
52508.000000,25716.000000,4055.000000,40136.000000
52465.000000,25672.000000,3986.000000,40054.000000
52440.000000,25644.000000,3912.000000,39974.000000
52410.000000,25612.000000,3844.000000,39915.000000
52360.000000,25569.000000,3786.000000,39890.000000
52318.000000,25536.000000,3735.000000,39888.000000
52307.000000,25528.000000,3710.000000,39917.000000
52315.000000,25543.000000,3737.000000,39981.000000
52337.000000,25587.000000,3819.000000,40066.000000
52412.000000,25685.000000,3956.000000,40170.000000
52558.000000,25838.000000,4158.000000,40316.000000
52741.000000,26021.000000,4426.000000,40528.000000
52945.000000,26224.000000,4742.000000,40797.000000
53183.000000,26457.000000,5087.000000,41105.000000
53453.000000,26717.000000,5458.000000,41445.000000
53723.000000,26980.000000,5857.000000,41811.000000
53989.000000,27244.000000,6273.000000,42178.000000
54281.000000,27523.000000,6701.000000,42530.000000
54591.000000,27810.000000,7135.000000,42895.000000
54883.000000,28085.000000,7568.000000,43286.000000
55149.000000,28343.000000,7984.000000,43681.000000
55418.000000,28594.000000,8369.000000,44063.000000
55684.000000,28837.000000,8730.000000,44428.000000
55908.000000,29050.000000,9071.000000,44773.000000
56099.000000,29238.000000,9382.000000,45072.000000
56289.000000,29421.000000,9662.000000,45308.000000
56467.000000,29589.000000,9915.000000,45507.000000
56607.000000,29725.000000,10139.000000,45676.000000
56714.000000,29838.000000,10311.000000,45802.000000
56812.000000,29938.000000,10427.000000,45893.000000
56888.000000,30012.000000,10507.000000,45974.000000
56916.000000,30041.000000,10556.000000,46046.000000
56914.000000,30043.000000,10574.000000,46079.000000
56906.000000,30039.000000,10566.000000,46069.000000
56888.000000,30022.000000,10548.000000,46035.000000
56846.000000,29984.000000,10522.000000,45977.000000
56801.000000,29942.000000,10477.000000,45905.000000
56774.000000,29909.000000,10415.000000,45840.000000
56741.000000,29867.000000,10346.000000,45792.000000
56681.000000,29800.000000,10268.000000,45756.000000
56616.000000,29732.000000,10173.000000,45705.000000
56567.000000,29672.000000,10073.000000,45629.000000
56514.000000,29612.000000,9987.000000,45549.000000
56443.000000,29548.000000,9912.000000,45479.000000
56381.000000,29496.000000,9835.000000,45412.000000
56345.000000,29460.000000,9758.000000,45351.000000
56312.000000,29420.000000,9687.000000,45313.000000
56267.000000,29373.000000,9622.000000,45281.000000
56227.000000,29332.000000,9555.000000,45234.000000
56201.000000,29300.000000,9494.000000,45188.000000
56168.000000,29265.000000,9452.000000,45155.000000
56131.000000,29229.000000,9422.000000,45126.000000
56118.000000,29212.000000,9394.000000,45081.000000
56125.000000,29210.000000,9366.000000,45026.000000
56113.000000,29198.000000,9340.000000,44984.000000
56082.000000,29173.000000,9306.000000,44950.000000
56054.000000,29148.000000,9254.000000,44916.000000
56030.000000,29121.000000,9192.000000,44886.000000
55987.000000,29082.000000,9139.000000,44856.000000
55934.000000,29040.000000,9090.000000,44818.000000
55903.000000,29014.000000,9040.000000,44775.000000
55887.000000,28994.000000,8994.000000,44747.000000
55854.000000,28960.000000,8953.000000,44740.000000
55810.000000,28922.000000,8913.000000,44728.000000
55787.000000,28902.000000,8874.000000,44697.000000
55781.000000,28900.000000,8851.000000,44659.000000
55765.000000,28896.000000,8850.000000,44621.000000
55752.000000,28896.000000,8858.000000,44586.000000
55770.000000,28917.000000,8874.000000,44566.000000
55798.000000,28944.000000,8905.000000,44576.000000
55809.000000,28957.000000,8943.000000,44617.000000
55816.000000,28968.000000,8974.000000,44668.000000
55839.000000,28989.000000,9002.000000,44722.000000
55869.000000,29014.000000,9043.000000,44775.000000
55889.000000,29038.000000,9099.000000,44811.000000
55917.000000,29073.000000,9160.000000,44827.000000
55971.000000,29127.000000,9225.000000,44837.000000
56027.000000,29180.000000,9293.000000,44862.000000
56062.000000,29212.000000,9351.000000,44893.000000
56085.000000,29233.000000,9387.000000,44916.000000
56112.000000,29255.000000,9407.000000,44937.000000
56129.000000,29269.000000,9431.000000,44963.000000
56124.000000,29269.000000,9454.000000,44982.000000
56125.000000,29273.000000,9465.000000,44981.000000
56144.000000,29285.000000,9465.000000,44970.000000
56150.000000,29286.000000,9461.000000,44976.000000
56125.000000,29264.000000,9443.000000,44995.000000
56092.000000,29234.000000,9398.000000,44998.000000
56066.000000,29199.000000,9336.000000,44980.000000
56027.000000,29152.000000,9276.000000,44950.000000
55973.000000,29095.000000,9215.000000,44904.000000
55931.000000,29049.000000,9142.000000,44838.000000
55902.000000,29008.000000,9065.000000,44766.000000
55853.000000,28948.000000,8988.000000,44707.000000
55779.000000,28875.000000,8903.000000,44643.000000
55713.000000,28807.000000,8801.000000,44561.000000
55656.000000,28742.000000,8699.000000,44469.000000
55577.000000,28667.000000,8608.000000,44378.000000
55484.000000,28591.000000,8517.000000,44275.000000
55415.000000,28533.000000,8417.000000,44151.000000
55361.000000,28479.000000,8311.000000,44032.000000
55290.000000,28413.000000,8204.000000,43936.000000
55204.000000,28338.000000,8090.000000,43848.000000
55128.000000,28265.000000,7965.000000,43763.000000
55063.000000,28200.000000,7848.000000,43677.000000
54984.000000,28131.000000,7744.000000,43579.000000
54902.000000,28065.000000,7643.000000,43465.000000
54847.000000,28017.000000,7542.000000,43349.000000
54800.000000,27967.000000,7444.000000,43254.000000
54733.000000,27899.000000,7349.000000,43186.000000
54655.000000,27827.000000,7250.000000,43109.000000
54588.000000,27764.000000,7148.000000,43015.000000
54526.000000,27701.000000,7056.000000,42923.000000
54452.000000,27628.000000,6973.000000,42833.000000
54382.000000,27559.000000,6884.000000,42738.000000
54334.000000,27504.000000,6786.000000,42649.000000
54284.000000,27446.000000,6688.000000,42582.000000
54208.000000,27376.000000,6593.000000,42515.000000
54136.000000,27316.000000,6497.000000,42422.000000
54089.000000,27279.000000,6410.000000,42326.000000
54046.000000,27244.000000,6340.000000,42254.000000
53991.000000,27199.000000,6277.000000,42201.000000
53938.000000,27155.000000,6200.000000,42146.000000
53897.000000,27116.000000,6118.000000,42092.000000
53850.000000,27066.000000,6044.000000,42052.000000
53788.000000,27004.000000,5974.000000,42007.000000
53742.000000,26956.000000,5902.000000,41938.000000
53720.000000,26925.000000,5839.000000,41864.000000
53693.000000,26892.000000,5792.000000,41800.000000
53648.000000,26852.000000,5743.000000,41733.000000
53609.000000,26816.000000,5678.000000,41667.000000
53577.000000,26780.000000,5608.000000,41619.000000
53524.000000,26728.000000,5541.000000,41589.000000
53456.000000,26665.000000,5474.000000,41547.000000
53412.000000,26617.000000,5411.000000,41476.000000
53391.000000,26583.000000,5359.000000,41405.000000
53360.000000,26541.000000,5320.000000,41350.000000
53314.000000,26496.000000,5277.000000,41305.000000
53284.000000,26464.000000,5221.000000,41270.000000
53267.000000,26438.000000,5169.000000,41245.000000
53224.000000,26397.000000,5128.000000,41223.000000
53168.000000,26354.000000,5091.000000,41176.000000
53134.000000,26332.000000,5057.000000,41097.000000
53115.000000,26318.000000,5028.000000,41026.000000
53086.000000,26296.000000,5004.000000,40983.000000
53043.000000,26268.000000,4971.000000,40950.000000
53003.000000,26242.000000,4918.000000,40921.000000
52964.000000,26215.000000,4863.000000,40902.000000
52908.000000,26176.000000,4810.000000,40888.000000
52854.000000,26138.000000,4751.000000,40854.000000
52828.000000,26117.000000,4691.000000,40800.000000
52810.000000,26095.000000,4642.000000,40755.000000
52777.000000,26055.000000,4587.000000,40728.000000
52734.000000,26007.000000,4509.000000,40690.000000
52692.000000,25963.000000,4419.000000,40638.000000
52639.000000,25913.000000,4339.000000,40593.000000
52566.000000,25851.000000,4272.000000,40548.000000
52502.000000,25799.000000,4204.000000,40476.000000
52467.000000,25766.000000,4131.000000,40384.000000
52433.000000,25727.000000,4056.000000,40305.000000
52377.000000,25672.000000,3976.000000,40233.000000
52320.000000,25617.000000,3885.000000,40139.000000
52277.000000,25567.000000,3791.000000,40038.000000
52230.000000,25509.000000,3711.000000,39947.000000
52170.000000,25445.000000,3642.000000,39861.000000
52130.000000,25397.000000,3577.000000,39772.000000
52119.000000,25373.000000,3527.000000,39710.000000
52107.000000,25358.000000,3508.000000,39698.000000
52096.000000,25354.000000,3521.000000,39713.000000
52120.000000,25384.000000,3566.000000,39740.000000
52189.000000,25456.000000,3660.000000,39811.000000
52287.000000,25561.000000,3826.000000,39949.000000
52415.000000,25701.000000,4054.000000,40147.000000
52603.000000,25894.000000,4329.000000,40398.000000
52841.000000,26130.000000,4658.000000,40700.000000
53085.000000,26381.000000,5040.000000,41048.000000
53338.000000,26646.000000,5453.000000,41419.000000
53627.000000,26935.000000,5882.000000,41794.000000
53938.000000,27239.000000,6329.000000,42186.000000
54237.000000,27536.000000,6790.000000,42590.000000
54521.000000,27820.000000,7240.000000,42993.000000
54814.000000,28102.000000,7666.000000,43393.000000
55107.000000,28374.000000,8074.000000,43790.000000
55363.000000,28618.000000,8463.000000,44175.000000
55595.000000,28842.000000,8825.000000,44515.000000
55832.000000,29065.000000,9158.000000,44797.000000
56061.000000,29273.000000,9468.000000,45052.000000
56253.000000,29447.000000,9746.000000,45296.000000
56407.000000,29589.000000,9971.000000,45511.000000
56540.000000,29710.000000,10143.000000,45686.000000
56644.000000,29806.000000,10281.000000,45824.000000
56702.000000,29868.000000,10392.000000,45925.000000
56741.000000,29913.000000,10468.000000,45978.000000
56784.000000,29958.000000,10518.000000,45985.000000
56810.000000,29983.000000,10549.000000,45976.000000
56796.000000,29973.000000,10551.000000,45966.000000
56760.000000,29944.000000,10513.000000,45933.000000
56723.000000,29910.000000,10447.000000,45878.000000
56673.000000,29869.000000,10377.000000,45812.000000
56600.000000,29809.000000,10300.000000,45729.000000
56527.000000,29740.000000,10198.000000,45633.000000
56467.000000,29669.000000,10078.000000,45544.000000
56396.000000,29580.000000,9955.000000,45474.000000
56299.000000,29473.000000,9827.000000,45401.000000
56201.000000,29369.000000,9686.000000,45303.000000
56116.000000,29279.000000,9547.000000,45197.000000
56028.000000,29194.000000,9428.000000,45094.000000
55934.000000,29110.000000,9323.000000,44988.000000
55860.000000,29042.000000,9220.000000,44875.000000
