660nm,730nm,850nm,940nm
21554.000000,45271.000000,16892.000000,48298.000000
21537.000000,45260.000000,16867.000000,48269.000000
21516.000000,45243.000000,16839.000000,48237.000000
21497.000000,45224.000000,16811.000000,48206.000000
21483.000000,45202.000000,16787.000000,48181.000000
21471.000000,45183.000000,16767.000000,48165.000000
21465.000000,45171.000000,16756.000000,48164.000000
21468.000000,45171.000000,16761.000000,48180.000000
21483.000000,45186.000000,16788.000000,48219.000000
21517.000000,45218.000000,16847.000000,48286.000000
21574.000000,45269.000000,16947.000000,48384.000000
21657.000000,45343.000000,17094.000000,48518.000000
21769.000000,45444.000000,17288.000000,48691.000000
21911.000000,45572.000000,17528.000000,48901.000000
22084.000000,45723.000000,17806.000000,49148.000000
22282.000000,45895.000000,18114.000000,49426.000000
22498.000000,46079.000000,18441.000000,49726.000000
22723.000000,46268.000000,18774.000000,50032.000000
22948.000000,46456.000000,19102.000000,50332.000000
23166.000000,46637.000000,19413.000000,50621.000000
23368.000000,46805.000000,19700.000000,50890.000000
23546.000000,46955.000000,19957.000000,51136.000000
23698.000000,47084.000000,20178.000000,51349.000000
23828.000000,47192.000000,20363.000000,51525.000000
23936.000000,47277.000000,20513.000000,51667.000000
24021.000000,47340.000000,20631.000000,51773.000000
24085.000000,47387.000000,20719.000000,51850.000000
24130.000000,47422.000000,20783.000000,51905.000000
24162.000000,47445.000000,20826.000000,51939.000000
24185.000000,47459.000000,20852.000000,51955.000000
24200.000000,47465.000000,20862.000000,51956.000000
24210.000000,47466.000000,20857.000000,51943.000000
24216.000000,47461.000000,20841.000000,51922.000000
24218.000000,47450.000000,20816.000000,51900.000000
24215.000000,47436.000000,20786.000000,51874.000000
24207.000000,47419.000000,20750.000000,51847.000000
24195.000000,47401.000000,20710.000000,51824.000000
24178.000000,47383.000000,20670.000000,51805.000000
24158.000000,47367.000000,20633.000000,51787.000000
24135.000000,47351.000000,20601.000000,51768.000000
24112.000000,47336.000000,20575.000000,51750.000000
24094.000000,47326.000000,20555.000000,51733.000000
24081.000000,47321.000000,20544.000000,51717.000000
24074.000000,47318.000000,20542.000000,51703.000000
24073.000000,47315.000000,20544.000000,51690.000000
24076.000000,47317.000000,20550.000000,51681.000000
24083.000000,47324.000000,20558.000000,51676.000000
24092.000000,47334.000000,20566.000000,51671.000000
24102.000000,47344.000000,20574.000000,51668.000000
24111.000000,47353.000000,20581.000000,51665.000000
24120.000000,47362.000000,20586.000000,51665.000000
24132.000000,47370.000000,20589.000000,51672.000000
24141.000000,47376.000000,20588.000000,51688.000000
24144.000000,47380.000000,20585.000000,51705.000000
24142.000000,47381.000000,20579.000000,51715.000000
24136.000000,47376.000000,20569.000000,51716.000000
24124.000000,47364.000000,20551.000000,51711.000000
24107.000000,47348.000000,20528.000000,51698.000000
24085.000000,47328.000000,20499.000000,51676.000000
24058.000000,47302.000000,20464.000000,51644.000000
24027.000000,47273.000000,20423.000000,51605.000000
23995.000000,47244.000000,20379.000000,51562.000000
23962.000000,47217.000000,20334.000000,51516.000000
23930.000000,47191.000000,20288.000000,51468.000000
23899.000000,47165.000000,20239.000000,51421.000000
23869.000000,47139.000000,20191.000000,51375.000000
23844.000000,47117.000000,20145.000000,51332.000000
23826.000000,47100.000000,20104.000000,51296.000000
23811.000000,47087.000000,20069.000000,51267.000000
23799.000000,47076.000000,20040.000000,51247.000000
23793.000000,47069.000000,20017.000000,51237.000000
23790.000000,47064.000000,19997.000000,51237.000000
23784.000000,47058.000000,19979.000000,51244.000000
23780.000000,47051.000000,19963.000000,51252.000000
23778.000000,47044.000000,19951.000000,51258.000000
23780.000000,47038.000000,19944.000000,51258.000000
23785.000000,47036.000000,19943.000000,51251.000000
23797.000000,47040.000000,19947.000000,51239.000000
23814.000000,47048.000000,19954.000000,51222.000000
23832.000000,47058.000000,19960.000000,51204.000000
23851.000000,47068.000000,19967.000000,51191.000000
23870.000000,47078.000000,19971.000000,51182.000000
23886.000000,47087.000000,19970.000000,51176.000000
23896.000000,47090.000000,19963.000000,51176.000000
23900.000000,47088.000000,19951.000000,51176.000000
23899.000000,47083.000000,19936.000000,51178.000000
23894.000000,47076.000000,19918.000000,51181.000000
23881.000000,47066.000000,19895.000000,51181.000000
23863.000000,47053.000000,19866.000000,51175.000000
23843.000000,47040.000000,19832.000000,51162.000000
23821.000000,47022.000000,19797.000000,51142.000000
23799.000000,47000.000000,19761.000000,51113.000000
23777.000000,46974.000000,19722.000000,51073.000000
23753.000000,46948.000000,19680.000000,51024.000000
23729.000000,46922.000000,19636.000000,50972.000000
23706.000000,46897.000000,19592.000000,50920.000000
23689.000000,46873.000000,19550.000000,50868.000000
23676.000000,46854.000000,19510.000000,50815.000000
23663.000000,46840.000000,19472.000000,50764.000000
23646.000000,46828.000000,19434.000000,50718.000000
23625.000000,46814.000000,19395.000000,50676.000000
23600.000000,46797.000000,19352.000000,50636.000000
23573.000000,46775.000000,19306.000000,50596.000000
23544.000000,46750.000000,19256.000000,50555.000000
23512.000000,46722.000000,19205.000000,50514.000000
23477.000000,46694.000000,19154.000000,50473.000000
23440.000000,46665.000000,19101.000000,50433.000000
23400.000000,46631.000000,19046.000000,50392.000000
23359.000000,46595.000000,18989.000000,50351.000000
23317.000000,46559.000000,18931.000000,50313.000000
23274.000000,46525.000000,18873.000000,50279.000000
23230.000000,46491.000000,18818.000000,50244.000000
23184.000000,46458.000000,18768.000000,50206.000000
23139.000000,46429.000000,18722.000000,50161.000000
23097.000000,46402.000000,18678.000000,50111.000000
23058.000000,46374.000000,18632.000000,50058.000000
23023.000000,46347.000000,18588.000000,50009.000000
22990.000000,46321.000000,18547.000000,49963.000000
22959.000000,46295.000000,18505.000000,49920.000000
22929.000000,46269.000000,18462.000000,49880.000000
22898.000000,46243.000000,18418.000000,49842.000000
22867.000000,46213.000000,18372.000000,49807.000000
22834.000000,46181.000000,18323.000000,49771.000000
22802.000000,46147.000000,18272.000000,49732.000000
22769.000000,46114.000000,18223.000000,49693.000000
22733.000000,46080.000000,18174.000000,49657.000000
22693.000000,46047.000000,18127.000000,49625.000000
22654.000000,46017.000000,18084.000000,49594.000000
22616.000000,45993.000000,18046.000000,49559.000000
22582.000000,45975.000000,18014.000000,49523.000000
22555.000000,45962.000000,17985.000000,49486.000000
22536.000000,45949.000000,17955.000000,49448.000000
22522.000000,45936.000000,17923.000000,49411.000000
22511.000000,45924.000000,17890.000000,49380.000000
22501.000000,45910.000000,17855.000000,49353.000000
22487.000000,45893.000000,17816.000000,49330.000000
22466.000000,45871.000000,17773.000000,49307.000000
22439.000000,45846.000000,17730.000000,49283.000000
22411.000000,45819.000000,17688.000000,49257.000000
22384.000000,45793.000000,17649.000000,49225.000000
22359.000000,45770.000000,17610.000000,49190.000000
22337.000000,45752.000000,17577.000000,49156.000000
22322.000000,45741.000000,17552.000000,49122.000000
22313.000000,45738.000000,17536.000000,49095.000000
22307.000000,45742.000000,17531.000000,49080.000000
22307.000000,45754.000000,17542.000000,49083.000000
22321.000000,45774.000000,17574.000000,49111.000000
22359.000000,45806.000000,17634.000000,49170.000000
22423.000000,45857.000000,17731.000000,49270.000000
22516.000000,45932.000000,17874.000000,49412.000000
22641.000000,46034.000000,18069.000000,49598.000000
22802.000000,46165.000000,18315.000000,49825.000000
22991.000000,46322.000000,18603.000000,50089.000000
23200.000000,46495.000000,18917.000000,50377.000000
23422.000000,46678.000000,19245.000000,50677.000000
23649.000000,46864.000000,19576.000000,50978.000000
23871.000000,47045.000000,19896.000000,51275.000000
24078.000000,47214.000000,20196.000000,51557.000000
24264.000000,47364.000000,20470.000000,51812.000000
24428.000000,47498.000000,20714.000000,52036.000000
24567.000000,47616.000000,20925.000000,52227.000000
24684.000000,47717.000000,21102.000000,52384.000000
24781.000000,47800.000000,21245.000000,52511.000000
24859.000000,47868.000000,21358.000000,52609.000000
24921.000000,47921.000000,21441.000000,52682.000000
24967.000000,47957.000000,21497.000000,52731.000000
24999.000000,47977.000000,21531.000000,52761.000000
25016.000000,47987.000000,21547.000000,52779.000000
25019.000000,47988.000000,21548.000000,52788.000000
25009.000000,47979.000000,21535.000000,52788.000000
24991.000000,47960.000000,21510.000000,52776.000000
24968.000000,47936.000000,21480.000000,52753.000000
24943.000000,47911.000000,21451.000000,52725.000000
24918.000000,47889.000000,21427.000000,52699.000000
24896.000000,47871.000000,21407.000000,52679.000000
24876.000000,47853.000000,21391.000000,52662.000000
24861.000000,47836.000000,21380.000000,52646.000000
24852.000000,47823.000000,21370.000000,52633.000000
24848.000000,47816.000000,21361.000000,52626.000000
24849.000000,47814.000000,21354.000000,52624.000000
24854.000000,47816.000000,21349.000000,52626.000000
24861.000000,47821.000000,21347.000000,52634.000000
24868.000000,47825.000000,21348.000000,52644.000000
24876.000000,47830.000000,21349.000000,52658.000000
24882.000000,47836.000000,21352.000000,52675.000000
24886.000000,47842.000000,21354.000000,52694.000000
24891.000000,47847.000000,21356.000000,52712.000000
24897.000000,47849.000000,21358.000000,52726.000000
24901.000000,47846.000000,21359.000000,52734.000000
24902.000000,47841.000000,21359.000000,52736.000000
24901.000000,47835.000000,21356.000000,52733.000000
24894.000000,47827.000000,21350.000000,52720.000000
24883.000000,47815.000000,21340.000000,52697.000000
24868.000000,47799.000000,21323.000000,52666.000000
24853.000000,47780.000000,21300.000000,52634.000000
24838.000000,47759.000000,21270.000000,52602.000000
24820.000000,47735.000000,21233.000000,52570.000000
24795.000000,47710.000000,21191.000000,52540.000000
24766.000000,47683.000000,21144.000000,52508.000000
24733.000000,47654.000000,21093.000000,52476.000000
24698.000000,47619.000000,21039.000000,52445.000000
24659.000000,47580.000000,20981.000000,52411.000000
24621.000000,47542.000000,20921.000000,52374.000000
24582.000000,47506.000000,20862.000000,52334.000000
24543.000000,47473.000000,20806.000000,52291.000000
24507.000000,47445.000000,20756.000000,52246.000000
24478.000000,47424.000000,20713.000000,52200.000000
24454.000000,47406.000000,20677.000000,52159.000000
24434.000000,47391.000000,20648.000000,52126.000000
24419.000000,47380.000000,20625.000000,52099.000000
24411.000000,47372.000000,20606.000000,52080.000000
24407.000000,47364.000000,20594.000000,52065.000000
24403.000000,47353.000000,20586.000000,52049.000000
24399.000000,47343.000000,20580.000000,52031.000000
24397.000000,47333.000000,20574.000000,52016.000000
24399.000000,47327.000000,20566.000000,52004.000000
24403.000000,47326.000000,20560.000000,51993.000000
24408.000000,47331.000000,20554.000000,51982.000000
24415.000000,47337.000000,20549.000000,51972.000000
24421.000000,47340.000000,20542.000000,51965.000000
24424.000000,47340.000000,20532.000000,51962.000000
24426.000000,47336.000000,20521.000000,51962.000000
24427.000000,47330.000000,20507.000000,51964.000000
24426.000000,47323.000000,20492.000000,51964.000000
24424.000000,47316.000000,20476.000000,51961.000000
24424.000000,47309.000000,20457.000000,51955.000000
24424.000000,47301.000000,20433.000000,51946.000000
24423.000000,47291.000000,20403.000000,51932.000000
24417.000000,47278.000000,20365.000000,51914.000000
24408.000000,47261.000000,20322.000000,51892.000000
24395.000000,47240.000000,20272.000000,51863.000000
24379.000000,47216.000000,20218.000000,51827.000000
24356.000000,47188.000000,20163.000000,51784.000000
24327.000000,47160.000000,20108.000000,51739.000000
24294.000000,47133.000000,20055.000000,51696.000000
24261.000000,47107.000000,20003.000000,51651.000000
24229.000000,47079.000000,19953.000000,51603.000000
24200.000000,47053.000000,19905.000000,51552.000000
24176.000000,47029.000000,19858.000000,51498.000000
24153.000000,47006.000000,19812.000000,51443.000000
24129.000000,46982.000000,19764.000000,51389.000000
24105.000000,46959.000000,19716.000000,51336.000000
24080.000000,46937.000000,19668.000000,51284.000000
24057.000000,46912.000000,19624.000000,51234.000000
24033.000000,46884.000000,19577.000000,51185.000000
24007.000000,46858.000000,19527.000000,51139.000000
23980.000000,46835.000000,19477.000000,51096.000000
23953.000000,46814.000000,19429.000000,51058.000000
23928.000000,46795.000000,19382.000000,51024.000000
23907.000000,46776.000000,19333.000000,50989.000000
23886.000000,46757.000000,19280.000000,50949.000000
23861.000000,46734.000000,19227.000000,50907.000000
23832.000000,46711.000000,19178.000000,50866.000000
23799.000000,46688.000000,19131.000000,50823.000000
23761.000000,46665.000000,19087.000000,50780.000000
23722.000000,46639.000000,19042.000000,50737.000000
23684.000000,46608.000000,18998.000000,50694.000000
23647.000000,46576.000000,18954.000000,50649.000000
23614.000000,46544.000000,18910.000000,50603.000000
23584.000000,46513.000000,18868.000000,50556.000000
23557.000000,46485.000000,18824.000000,50513.000000
23532.000000,46458.000000,18781.000000,50472.000000
23508.000000,46434.000000,18739.000000,50436.000000
23481.000000,46411.000000,18698.000000,50403.000000
23451.000000,46391.000000,18657.000000,50371.000000
23425.000000,46371.000000,18618.000000,50339.000000
23400.000000,46350.000000,18577.000000,50304.000000
23375.000000,46326.000000,18534.000000,50268.000000
23348.000000,46300.000000,18488.000000,50234.000000
23318.000000,46271.000000,18438.000000,50203.000000
23286.000000,46244.000000,18388.000000,50173.000000
23254.000000,46220.000000,18341.000000,50145.000000
23225.000000,46197.000000,18297.000000,50119.000000
23197.000000,46173.000000,18253.000000,50095.000000
23167.000000,46148.000000,18209.000000,50070.000000
23135.000000,46123.000000,18166.000000,50043.000000
23106.000000,46099.000000,18127.000000,50014.000000
23082.000000,46078.000000,18091.000000,49983.000000
23060.000000,46057.000000,18056.000000,49948.000000
23038.000000,46036.000000,18023.000000,49910.000000
23017.000000,46016.000000,17993.000000,49873.000000
22997.000000,45999.000000,17967.000000,49840.000000
22976.000000,45984.000000,17943.000000,49812.000000
22952.000000,45969.000000,17916.000000,49784.000000
22926.000000,45957.000000,17886.000000,49753.000000
22898.000000,45945.000000,17856.000000,49719.000000
22871.000000,45933.000000,17826.000000,49685.000000
22844.000000,45916.000000,17794.000000,49652.000000
22819.000000,45897.000000,17758.000000,49623.000000
22795.000000,45879.000000,17724.000000,49600.000000
22774.000000,45864.000000,17693.000000,49583.000000
22757.000000,45850.000000,17657.000000,49565.000000
22743.000000,45833.000000,17618.000000,49542.000000
22728.000000,45814.000000,17577.000000,49517.000000
22712.000000,45794.000000,17537.000000,49495.000000
22694.000000,45774.000000,17496.000000,49472.000000
22674.000000,45753.000000,17453.000000,49449.000000
22654.000000,45736.000000,17411.000000,49425.000000
22635.000000,45723.000000,17371.000000,49397.000000
22618.000000,45710.000000,17330.000000,49365.000000
22600.000000,45695.000000,17290.000000,49331.000000
22581.000000,45681.000000,17252.000000,49298.000000
22559.000000,45664.000000,17215.000000,49263.000000
22536.000000,45644.000000,17180.000000,49226.000000
22512.000000,45624.000000,17147.000000,49191.000000
22489.000000,45608.000000,17121.000000,49160.000000
22468.000000,45595.000000,17103.000000,49132.000000
22453.000000,45588.000000,17100.000000,49114.000000
22450.000000,45589.000000,17116.000000,49115.000000
22470.000000,45604.000000,17163.000000,49147.000000
22516.000000,45641.000000,17249.000000,49216.000000
22594.000000,45704.000000,17383.000000,49333.000000
22707.000000,45794.000000,17571.000000,49505.000000
22854.000000,45912.000000,17811.000000,49730.000000
23032.000000,46056.000000,18101.000000,50006.000000
23237.000000,46225.000000,18429.000000,50321.000000
23461.000000,46414.000000,18787.000000,50661.000000
23693.000000,46613.000000,19164.000000,51011.000000
23926.000000,46813.000000,19543.000000,51361.000000
24153.000000,47008.000000,19911.000000,51698.000000
24369.000000,47193.000000,20254.000000,52012.000000
24566.000000,47360.000000,20563.000000,52296.000000
24743.000000,47509.000000,20836.000000,52547.000000
24897.000000,47642.000000,21073.000000,52762.000000
25028.000000,47758.000000,21272.000000,52942.000000
25133.000000,47854.000000,21432.000000,53090.000000
25213.000000,47929.000000,21554.000000,53204.000000
25274.000000,47988.000000,21641.000000,53289.000000
25317.000000,48032.000000,21699.000000,53347.000000
25343.000000,48060.000000,21731.000000,53382.000000
25353.000000,48074.000000,21743.000000,53397.000000
25353.000000,48074.000000,21744.000000,53397.000000
25344.000000,48064.000000,21734.000000,53389.000000
25328.000000,48048.000000,21711.000000,53373.000000
25307.000000,48024.000000,21679.000000,53353.000000
25281.000000,47996.000000,21642.000000,53330.000000
25253.000000,47969.000000,21602.000000,53309.000000
25229.000000,47944.000000,21561.000000,53292.000000
25211.000000,47920.000000,21523.000000,53278.000000
25195.000000,47895.000000,21490.000000,53259.000000
25180.000000,47873.000000,21462.000000,53237.000000
25168.000000,47855.000000,21438.000000,53219.000000
25160.000000,47842.000000,21421.000000,53208.000000
25153.000000,47834.000000,21413.000000,53205.000000
25149.000000,47832.000000,21411.000000,53206.000000
25149.000000,47834.000000,21415.000000,53208.000000
25155.000000,47838.000000,21423.000000,53212.000000
25164.000000,47843.000000,21437.000000,53216.000000
25175.000000,47851.000000,21456.000000,53220.000000
25187.000000,47863.000000,21477.000000,53227.000000
25200.000000,47874.000000,21494.000000,53234.000000
25211.000000,47884.000000,21509.000000,53236.000000
25219.000000,47894.000000,21519.000000,53235.000000
25224.000000,47903.000000,21522.000000,53233.000000
25226.000000,47908.000000,21518.000000,53234.000000
25221.000000,47905.000000,21509.000000,53236.000000
25208.000000,47894.000000,21492.000000,53237.000000
25192.000000,47878.000000,21467.000000,53230.000000
25173.000000,47858.000000,21435.000000,53218.000000
25151.000000,47837.000000,21397.000000,53201.000000
25123.000000,47814.000000,21355.000000,53175.000000
25093.000000,47789.000000,21309.000000,53138.000000
25062.000000,47761.000000,21260.000000,53095.000000
25029.000000,47730.000000,21209.000000,53050.000000
24995.000000,47695.000000,21156.000000,53004.000000
24960.000000,47659.000000,21101.000000,52955.000000
24927.000000,47627.000000,21047.000000,52900.000000
24896.000000,47598.000000,20994.000000,52841.000000
24870.000000,47571.000000,20947.000000,52785.000000
24849.000000,47550.000000,20906.000000,52734.000000
24832.000000,47533.000000,20874.000000,52688.000000
24818.000000,47519.000000,20848.000000,52648.000000
24805.000000,47507.000000,20826.000000,52620.000000
24794.000000,47501.000000,20808.000000,52604.000000
24786.000000,47498.000000,20795.000000,52597.000000
24779.000000,47496.000000,20785.000000,52596.000000
24774.000000,47494.000000,20777.000000,52599.000000
24770.000000,47491.000000,20772.000000,52604.000000
24769.000000,47486.000000,20768.000000,52609.000000
24769.000000,47478.000000,20764.000000,52610.000000
24768.000000,47466.000000,20758.000000,52607.000000
24766.000000,47452.000000,20752.000000,52598.000000
24761.000000,47442.000000,20749.000000,52587.000000
24753.000000,47437.000000,20747.000000,52576.000000
24742.000000,47431.000000,20740.000000,52558.000000
24730.000000,47425.000000,20727.000000,52534.000000
24720.000000,47425.000000,20712.000000,52507.000000
24711.000000,47428.000000,20693.000000,52484.000000
24703.000000,47431.000000,20668.000000,52466.000000
24695.000000,47432.000000,20638.000000,52451.000000
24687.000000,47428.000000,20604.000000,52436.000000
24676.000000,47418.000000,20568.000000,52421.000000
24660.000000,47403.000000,20528.000000,52404.000000
24640.000000,47385.000000,20482.000000,52385.000000
24618.000000,47365.000000,20433.000000,52360.000000
24595.000000,47343.000000,20380.000000,52327.000000
24569.000000,47319.000000,20326.000000,52288.000000
24541.000000,47293.000000,20276.000000,52241.000000
24514.000000,47268.000000,20228.000000,52190.000000
24486.000000,47244.000000,20184.000000,52134.000000
24459.000000,47223.000000,20142.000000,52075.000000
24434.000000,47203.000000,20098.000000,52009.000000
24408.000000,47181.000000,20050.000000,51939.000000
24380.000000,47157.000000,20000.000000,51869.000000
24348.000000,47130.000000,19949.000000,51809.000000
24314.000000,47102.000000,19898.000000,51759.000000
24281.000000,47073.000000,19847.000000,51714.000000
24248.000000,47046.000000,19797.000000,51675.000000
24212.000000,47017.000000,19744.000000,51639.000000
24170.000000,46984.000000,19687.000000,51603.000000
24130.000000,46952.000000,19629.000000,51566.000000
24091.000000,46920.000000,19571.000000,51527.000000
24051.000000,46888.000000,19510.000000,51483.000000
24012.000000,46856.000000,19450.000000,51437.000000
23976.000000,46828.000000,19396.000000,51391.000000
23944.000000,46805.000000,19349.000000,51346.000000
23916.000000,46786.000000,19308.000000,51300.000000
23890.000000,46769.000000,19269.000000,51254.000000
23864.000000,46753.000000,19229.000000,51206.000000
23838.000000,46733.000000,19187.000000,51160.000000
23811.000000,46712.000000,19146.000000,51115.000000
23786.000000,46689.000000,19104.000000,51072.000000
23758.000000,46665.000000,19063.000000,51031.000000
23725.000000,46637.000000,19023.000000,50996.000000
23688.000000,46605.000000,18978.000000,50961.000000
23648.000000,46571.000000,18926.000000,50922.000000
23609.000000,46541.000000,18874.000000,50885.000000
23572.000000,46514.000000,18827.000000,50853.000000
23537.000000,46490.000000,18784.000000,50824.000000
23504.000000,46471.000000,18744.000000,50796.000000
23476.000000,46455.000000,18709.000000,50770.000000
23451.000000,46442.000000,18679.000000,50741.000000
23431.000000,46432.000000,18655.000000,50709.000000
23417.000000,46425.000000,18635.000000,50674.000000
23404.000000,46417.000000,18615.000000,50640.000000
23389.000000,46407.000000,18590.000000,50609.000000
23373.000000,46396.000000,18562.000000,50579.000000
23358.000000,46386.000000,18532.000000,50550.000000
23342.000000,46377.000000,18501.000000,50523.000000
23324.000000,46366.000000,18469.000000,50497.000000
23304.000000,46350.000000,18435.000000,50469.000000
23280.000000,46331.000000,18399.000000,50443.000000
23254.000000,46309.000000,18360.000000,50420.000000
23229.000000,46289.000000,18322.000000,50403.000000
23205.000000,46268.000000,18287.000000,50389.000000
23181.000000,46248.000000,18248.000000,50372.000000
23156.000000,46226.000000,18207.000000,50351.000000
23131.000000,46205.000000,18166.000000,50323.000000
23107.000000,46185.000000,18129.000000,50292.000000
23083.000000,46167.000000,18096.000000,50257.000000
23060.000000,46148.000000,18068.000000,50219.000000
23036.000000,46129.000000,18042.000000,50178.000000
23016.000000,46114.000000,18017.000000,50141.000000
22997.000000,46102.000000,17995.000000,50109.000000
22978.000000,46092.000000,17974.000000,50078.000000
22961.000000,46083.000000,17949.000000,50047.000000
22947.000000,46076.000000,17919.000000,50016.000000
22936.000000,46069.000000,17885.000000,49987.000000
22922.000000,46058.000000,17847.000000,49961.000000
22906.000000,46046.000000,17811.000000,49938.000000
22892.000000,46037.000000,17776.000000,49918.000000
22877.000000,46028.000000,17744.000000,49902.000000
22860.000000,46017.000000,17714.000000,49887.000000
22841.000000,46003.000000,17682.000000,49874.000000
22820.000000,45985.000000,17649.000000,49861.000000
22798.000000,45963.000000,17616.000000,49849.000000
22775.000000,45940.000000,17582.000000,49836.000000
22750.000000,45918.000000,17549.000000,49817.000000
22725.000000,45899.000000,17516.000000,49791.000000
22701.000000,45883.000000,17484.000000,49758.000000
22679.000000,45868.000000,17454.000000,49716.000000
22654.000000,45853.000000,17425.000000,49672.000000
22629.000000,45837.000000,17399.000000,49631.000000
22602.000000,45819.000000,17377.000000,49596.000000
22576.000000,45802.000000,17361.000000,49569.000000
22555.000000,45789.000000,17353.000000,49551.000000
22549.000000,45786.000000,17359.000000,49550.000000
22561.000000,45796.000000,17388.000000,49573.000000
22593.000000,45823.000000,17448.000000,49625.000000
22648.000000,45874.000000,17549.000000,49715.000000
22732.000000,45954.000000,17702.000000,49856.000000
22850.000000,46062.000000,17909.000000,50049.000000
23000.000000,46195.000000,18166.000000,50288.000000
23180.000000,46353.000000,18469.000000,50570.000000
23389.000000,46533.000000,18811.000000,50891.000000
23616.000000,46726.000000,19178.000000,51236.000000
23849.000000,46924.000000,19553.000000,51587.000000
24080.000000,47119.000000,19922.000000,51935.000000
24305.000000,47307.000000,20278.000000,52268.000000
24517.000000,47483.000000,20609.000000,52577.000000
24709.000000,47644.000000,20907.000000,52854.000000
24881.000000,47789.000000,21167.000000,53091.000000
25033.000000,47917.000000,21387.000000,53290.000000
25161.000000,48028.000000,21568.000000,53452.000000
25264.000000,48120.000000,21711.000000,53575.000000
25344.000000,48193.000000,21817.000000,53660.000000
25403.000000,48248.000000,21893.000000,53719.000000
25443.000000,48285.000000,21943.000000,53761.000000
25467.000000,48305.000000,21970.000000,53785.000000
25479.000000,48313.000000,21978.000000,53792.000000
25480.000000,48314.000000,21970.000000,53791.000000
25472.000000,48308.000000,21951.000000,53788.000000
25457.000000,48297.000000,21924.000000,53782.000000
25440.000000,48282.000000,21891.000000,53771.000000
25418.000000,48266.000000,21856.000000,53758.000000
25396.000000,48248.000000,21822.000000,53748.000000
25372.000000,48228.000000,21788.000000,53736.000000
25346.000000,48206.000000,21754.000000,53718.000000
25319.000000,48185.000000,21723.000000,53692.000000
25297.000000,48164.000000,21695.000000,53662.000000
25282.000000,48148.000000,21672.000000,53631.000000
25273.000000,48140.000000,21658.000000,53597.000000
25267.000000,48138.000000,21650.000000,53566.000000
25266.000000,48142.000000,21646.000000,53547.000000
25269.000000,48150.000000,21645.000000,53539.000000
25273.000000,48158.000000,21647.000000,53538.000000
25279.000000,48167.000000,21654.000000,53541.000000
25285.000000,48174.000000,21662.000000,53545.000000
25289.000000,48178.000000,21667.000000,53547.000000
25291.000000,48178.000000,21671.000000,53552.000000
25293.000000,48175.000000,21675.000000,53560.000000
25297.000000,48170.000000,21676.000000,53570.000000
25301.000000,48163.000000,21671.000000,53576.000000
25302.000000,48155.000000,21663.000000,53576.000000
25299.000000,48147.000000,21655.000000,53572.000000
25292.000000,48138.000000,21645.000000,53564.000000
25280.000000,48129.000000,21631.000000,53545.000000
25265.000000,48120.000000,21614.000000,53517.000000
25245.000000,48107.000000,21589.000000,53483.000000
25223.000000,48092.000000,21555.000000,53447.000000
25199.000000,48073.000000,21513.000000,53413.000000
25170.000000,48053.000000,21465.000000,53379.000000
25138.000000,48031.000000,21414.000000,53345.000000
25104.000000,48004.000000,21360.000000,53308.000000
25072.000000,47975.000000,21304.000000,53271.000000
25043.000000,47947.000000,21251.000000,53234.000000
25018.000000,47920.000000,21202.000000,53199.000000
24995.000000,47894.000000,21158.000000,53166.000000
24976.000000,47873.000000,21121.000000,53136.000000
24962.000000,47858.000000,21089.000000,53113.000000
24950.000000,47849.000000,21061.000000,53095.000000
24940.000000,47843.000000,21036.000000,53074.000000
24933.000000,47836.000000,21016.000000,53049.000000
24929.000000,47831.000000,21002.000000,53022.000000
24928.000000,47830.000000,20993.000000,52995.000000
24925.000000,47831.000000,20986.000000,52969.000000
24924.000000,47834.000000,20978.000000,52946.000000
24926.000000,47839.000000,20971.000000,52933.000000
24930.000000,47844.000000,20964.000000,52930.000000
24935.000000,47846.000000,20958.000000,52934.000000
24940.000000,47845.000000,20952.000000,52939.000000
24943.000000,47843.000000,20944.000000,52941.000000
24943.000000,47840.000000,20933.000000,52942.000000
24941.000000,47835.000000,20920.000000,52942.000000
24937.000000,47827.000000,20900.000000,52936.000000
24929.000000,47813.000000,20876.000000,52922.000000
24919.000000,47796.000000,20852.000000,52905.000000
24906.000000,47776.000000,20827.000000,52886.000000
24888.000000,47756.000000,20797.000000,52861.000000
24865.000000,47736.000000,20763.000000,52829.000000
24839.000000,47717.000000,20727.000000,52789.000000
24813.000000,47701.000000,20690.000000,52744.000000
24785.000000,47684.000000,20652.000000,52696.000000
24756.000000,47667.000000,20611.000000,52641.000000
24729.000000,47646.000000,20568.000000,52584.000000
24702.000000,47623.000000,20521.000000,52528.000000
24673.000000,47598.000000,20469.000000,52475.000000
24641.000000,47569.000000,20412.000000,52426.000000
24606.000000,47538.000000,20351.000000,52379.000000
24572.000000,47508.000000,20286.000000,52333.000000
24541.000000,47481.000000,20220.000000,52292.000000
24511.000000,47458.000000,20156.000000,52254.000000
24482.000000,47433.000000,20093.000000,52212.000000
24451.000000,47404.000000,20031.000000,52166.000000
24416.000000,47372.000000,19969.000000,52117.000000
24376.000000,47338.000000,19909.000000,52067.000000
24338.000000,47308.000000,19853.000000,52018.000000
24304.000000,47281.000000,19802.000000,51971.000000
24270.000000,47256.000000,19752.000000,51923.000000
24237.000000,47232.000000,19701.000000,51871.000000
24205.000000,47206.000000,19648.000000,51818.000000
24174.000000,47180.000000,19597.000000,51763.000000
24147.000000,47154.000000,19550.000000,51706.000000
24122.000000,47132.000000,19508.000000,51650.000000
24099.000000,47116.000000,19470.000000,51598.000000
24078.000000,47106.000000,19432.000000,51552.000000
24061.000000,47097.000000,19394.000000,51511.000000
24045.000000,47085.000000,19356.000000,51475.000000
24028.000000,47068.000000,19318.000000,51450.000000
24011.000000,47046.000000,19277.000000,51434.000000
23992.000000,47025.000000,19238.000000,51419.000000
23971.000000,47005.000000,19201.000000,51401.000000
23948.000000,46985.000000,19164.000000,51379.000000
23924.000000,46965.000000,19123.000000,51350.000000
23896.000000,46943.000000,19077.000000,51315.000000
23866.000000,46920.000000,19030.000000,51277.000000
23838.000000,46898.000000,18986.000000,51236.000000
23809.000000,46877.000000,18943.000000,51197.000000
23779.000000,46854.000000,18901.000000,51160.000000
23747.000000,46832.000000,18861.000000,51120.000000
23715.000000,46813.000000,18822.000000,51079.000000
23684.000000,46796.000000,18783.000000,51042.000000
23653.000000,46780.000000,18746.000000,51010.000000
23625.000000,46768.000000,18714.000000,50977.000000
23602.000000,46756.000000,18686.000000,50943.000000
23586.000000,46745.000000,18662.000000,50912.000000
23571.000000,46735.000000,18640.000000,50886.000000
23558.000000,46722.000000,18620.000000,50860.000000
23547.000000,46709.000000,18600.000000,50833.000000
23533.000000,46696.000000,18574.000000,50806.000000
23513.000000,46681.000000,18543.000000,50781.000000
23492.000000,46665.000000,18509.000000,50760.000000
23472.000000,46648.000000,18475.000000,50739.000000
23453.000000,46629.000000,18442.000000,50714.000000
23434.000000,46610.000000,18409.000000,50686.000000
23415.000000,46590.000000,18375.000000,50660.000000
23394.000000,46572.000000,18341.000000,50633.000000
23370.000000,46555.000000,18307.000000,50607.000000
23345.000000,46538.000000,18274.000000,50586.000000
23318.000000,46520.000000,18241.000000,50571.000000
23290.000000,46498.000000,18206.000000,50555.000000
23262.000000,46475.000000,18168.000000,50532.000000
23234.000000,46453.000000,18130.000000,50503.000000
23208.000000,46432.000000,18092.000000,50466.000000
23185.000000,46412.000000,18057.000000,50425.000000
23163.000000,46394.000000,18024.000000,50383.000000
23142.000000,46377.000000,17994.000000,50340.000000
23123.000000,46364.000000,17969.000000,50297.000000
23109.000000,46354.000000,17946.000000,50257.000000
23099.000000,46347.000000,17923.000000,50221.000000
23093.000000,46345.000000,17901.000000,50192.000000
23088.000000,46347.000000,17879.000000,50169.000000
23079.000000,46346.000000,17857.000000,50150.000000
23066.000000,46340.000000,17833.000000,50131.000000
23050.000000,46330.000000,17806.000000,50110.000000
23031.000000,46318.000000,17777.000000,50091.000000
23013.000000,46303.000000,17745.000000,50074.000000
22995.000000,46285.000000,17713.000000,50059.000000
22975.000000,46264.000000,17680.000000,50043.000000
22953.000000,46243.000000,17645.000000,50022.000000
22932.000000,46222.000000,17605.000000,49997.000000
22912.000000,46202.000000,17567.000000,49975.000000
22891.000000,46183.000000,17534.000000,49957.000000
22869.000000,46168.000000,17509.000000,49942.000000
22851.000000,46157.000000,17498.000000,49929.000000
22842.000000,46155.000000,17506.000000,49922.000000
22849.000000,46171.000000,17540.000000,49931.000000
22879.000000,46205.000000,17607.000000,49969.000000
22933.000000,46262.000000,17714.000000,50048.000000
23016.000000,46343.000000,17867.000000,50170.000000
23131.000000,46448.000000,18068.000000,50339.000000
23280.000000,46576.000000,18315.000000,50555.000000
23460.000000,46725.000000,18603.000000,50815.000000
23665.000000,46892.000000,18927.000000,51113.000000
23886.000000,47074.000000,19278.000000,51442.000000
24118.000000,47267.000000,19642.000000,51788.000000
24351.000000,47463.000000,20005.000000,52131.000000
24575.000000,47654.000000,20356.000000,52464.000000
24782.000000,47832.000000,20685.000000,52779.000000
24971.000000,47992.000000,20983.000000,53066.000000
25138.000000,48133.000000,21246.000000,53318.000000
25279.000000,48256.000000,21470.000000,53533.000000
25393.000000,48360.000000,21656.000000,53710.000000
25485.000000,48445.000000,21803.000000,53845.000000
25556.000000,48509.000000,21914.000000,53943.000000
25606.000000,48553.000000,21991.000000,54010.000000
25641.000000,48583.000000,22038.000000,54045.000000
25663.000000,48603.000000,22062.000000,54054.000000
25674.000000,48613.000000,22065.000000,54046.000000
25673.000000,48613.000000,22049.000000,54025.000000
25661.000000,48605.000000,22018.000000,53996.000000
25640.000000,48590.000000,21977.000000,53961.000000
25611.000000,48568.000000,21929.000000,53923.000000
25576.000000,48543.000000,21877.000000,53883.000000
25541.000000,48518.000000,21825.000000,53844.000000
25508.000000,48492.000000,21777.000000,53811.000000
25476.000000,48466.000000,21731.000000,53784.000000
25446.000000,48441.000000,21689.000000,53759.000000
25421.000000,48417.000000,21651.000000,53736.000000
25398.000000,48395.000000,21615.000000,53715.000000
25377.000000,48375.000000,21583.000000,53695.000000
25357.000000,48359.000000,21558.000000,53675.000000
25339.000000,48347.000000,21540.000000,53656.000000
25324.000000,48341.000000,21526.000000,53638.000000
25311.000000,48338.000000,21513.000000,53620.000000
25300.000000,48336.000000,21500.000000,53601.000000
25292.000000,48334.000000,21489.000000,53583.000000
25285.000000,48332.000000,21480.000000,53569.000000
25277.000000,48329.000000,21474.000000,53562.000000
25271.000000,48324.000000,21470.000000,53559.000000
25266.000000,48320.000000,21466.000000,53559.000000
25258.000000,48315.000000,21458.000000,53561.000000
25249.000000,48308.000000,21448.000000,53560.000000
25238.000000,48295.000000,21432.000000,53554.000000
25222.000000,48277.000000,21410.000000,53542.000000
25200.000000,48258.000000,21383.000000,53523.000000
25174.000000,48237.000000,21350.000000,53494.000000
25146.000000,48214.000000,21312.000000,53456.000000
25119.000000,48190.000000,21270.000000,53414.000000
25095.000000,48171.000000,21225.000000,53366.000000
25073.000000,48154.000000,21177.000000,53315.000000
25050.000000,48137.000000,21129.000000,53261.000000
25024.000000,48118.000000,21081.000000,53207.000000
24995.000000,48097.000000,21034.000000,53157.000000
24965.000000,48072.000000,20989.000000,53115.000000
24938.000000,48045.000000,20946.000000,53079.000000
24915.000000,48020.000000,20904.000000,53049.000000
24895.000000,47996.000000,20865.000000,53023.000000
24873.000000,47975.000000,20829.000000,52998.000000
24852.000000,47958.000000,20797.000000,52981.000000
24834.000000,47945.000000,20770.000000,52971.000000
24818.000000,47932.000000,20750.000000,52965.000000
24807.000000,47923.000000,20735.000000,52958.000000
24801.000000,47919.000000,20726.000000,52950.000000
24798.000000,47916.000000,20724.000000,52941.000000
24797.000000,47916.000000,20728.000000,52928.000000
24799.000000,47919.000000,20731.000000,52911.000000
24803.000000,47925.000000,20731.000000,52892.000000
24809.000000,47930.000000,20725.000000,52869.000000
24817.000000,47936.000000,20714.000000,52843.000000
24825.000000,47939.000000,20701.000000,52820.000000
24830.000000,47940.000000,20687.000000,52803.000000
24828.000000,47938.000000,20671.000000,52791.000000
24821.000000,47933.000000,20651.000000,52780.000000
24813.000000,47925.000000,20626.000000,52765.000000
24800.000000,47912.000000,20595.000000,52747.000000
24779.000000,47893.000000,20557.000000,52727.000000
24752.000000,47870.000000,20514.000000,52704.000000
24719.000000,47844.000000,20464.000000,52671.000000
24682.000000,47816.000000,20409.000000,52628.000000
24641.000000,47789.000000,20350.000000,52583.000000
24598.000000,47761.000000,20289.000000,52534.000000
24555.000000,47734.000000,20229.000000,52481.000000
24514.000000,47708.000000,20169.000000,52422.000000
24472.000000,47679.000000,20106.000000,52358.000000
24429.000000,47647.000000,20043.000000,52292.000000
24388.000000,47615.000000,19981.000000,52223.000000
24349.000000,47582.000000,19921.000000,52153.000000
24309.000000,47548.000000,19863.000000,52084.000000
24272.000000,47513.000000,19806.000000,52020.000000
24237.000000,47480.000000,19749.000000,51962.000000
24206.000000,47451.000000,19691.000000,51908.000000
24175.000000,47427.000000,19634.000000,51856.000000
24143.000000,47404.000000,19579.000000,51804.000000
24106.000000,47380.000000,19526.000000,51751.000000
24067.000000,47355.000000,19472.000000,51700.000000
24027.000000,47329.000000,19419.000000,51656.000000
23990.000000,47305.000000,19368.000000,51620.000000
23955.000000,47282.000000,19317.000000,51592.000000
23921.000000,47258.000000,19266.000000,51564.000000
23887.000000,47232.000000,19214.000000,51533.000000
23854.000000,47206.000000,19162.000000,51499.000000
23822.000000,47182.000000,19112.000000,51464.000000
23790.000000,47159.000000,19064.000000,51428.000000
23758.000000,47136.000000,19018.000000,51392.000000
23730.000000,47113.000000,18974.000000,51355.000000
23704.000000,47093.000000,18931.000000,51315.000000
23677.000000,47078.000000,18891.000000,51276.000000
23654.000000,47063.000000,18856.000000,51235.000000
23634.000000,47048.000000,18823.000000,51190.000000
23617.000000,47035.000000,18794.000000,51144.000000
23603.000000,47026.000000,18768.000000,51104.000000
23592.000000,47021.000000,18745.000000,51069.000000
23584.000000,47016.000000,18724.000000,51038.000000
23575.000000,47010.000000,18704.000000,51010.000000
23565.000000,47001.000000,18683.000000,50990.000000
23554.000000,46992.000000,18658.000000,50973.000000
23542.000000,46983.000000,18630.000000,50956.000000
23528.000000,46969.000000,18599.000000,50940.000000
23512.000000,46953.000000,18568.000000,50926.000000
23494.000000,46935.000000,18540.000000,50911.000000
23475.000000,46917.000000,18516.000000,50893.000000
23458.000000,46899.000000,18491.000000,50873.000000
23441.000000,46882.000000,18464.000000,50854.000000
23423.000000,46864.000000,18436.000000,50838.000000
23406.000000,46845.000000,18406.000000,50822.000000
23390.000000,46827.000000,18375.000000,50805.000000
23373.000000,46811.000000,18345.000000,50795.000000
23355.000000,46798.000000,18321.000000,50787.000000
23335.000000,46787.000000,18298.000000,50776.000000
23314.000000,46773.000000,18272.000000,50759.000000
23290.000000,46757.000000,18243.000000,50734.000000
23263.000000,46739.000000,18210.000000,50698.000000
23237.000000,46721.000000,18174.000000,50654.000000
23211.000000,46703.000000,18138.000000,50611.000000
23190.000000,46685.000000,18104.000000,50572.000000
23174.000000,46672.000000,18076.000000,50537.000000
23158.000000,46662.000000,18054.000000,50500.000000
23143.000000,46654.000000,18036.000000,50461.000000
23127.000000,46645.000000,18016.000000,50421.000000
23109.000000,46634.000000,17991.000000,50380.000000
23090.000000,46623.000000,17967.000000,50341.000000
23074.000000,46613.000000,17945.000000,50303.000000
23062.000000,46603.000000,17923.000000,50275.000000
23053.000000,46592.000000,17901.000000,50256.000000
23044.000000,46583.000000,17879.000000,50244.000000
23033.000000,46575.000000,17857.000000,50236.000000
23014.000000,46563.000000,17832.000000,50230.000000
22990.000000,46547.000000,17800.000000,50222.000000
22963.000000,46528.000000,17761.000000,50211.000000
22936.000000,46507.000000,17720.000000,50200.000000
22911.000000,46489.000000,17687.000000,50192.000000
22892.000000,46478.000000,17666.000000,50192.000000
22884.000000,46475.000000,17660.000000,50203.000000
22891.000000,46485.000000,17678.000000,50228.000000
22919.000000,46513.000000,17729.000000,50277.000000
22972.000000,46563.000000,17821.000000,50362.000000
23049.000000,46637.000000,17958.000000,50488.000000
23156.000000,46733.000000,18143.000000,50654.000000
23291.000000,46848.000000,18374.000000,50860.000000
23451.000000,46983.000000,18647.000000,51099.000000
23630.000000,47134.000000,18950.000000,51367.000000
23825.000000,47299.000000,19278.000000,51655.000000
24027.000000,47474.000000,19620.000000,51951.000000
24230.000000,47653.000000,19962.000000,52242.000000
24428.000000,47827.000000,20291.000000,52521.000000
24615.000000,47992.000000,20598.000000,52783.000000
24790.000000,48145.000000,20880.000000,53022.000000
24950.000000,48286.000000,21132.000000,53242.000000
25094.000000,48412.000000,21352.000000,53440.000000
25216.000000,48520.000000,21538.000000,53609.000000
25317.000000,48610.000000,21689.000000,53746.000000
25396.000000,48679.000000,21801.000000,53848.000000
25452.000000,48725.000000,21878.000000,53920.000000
25488.000000,48752.000000,21922.000000,53965.000000
25507.000000,48764.000000,21940.000000,53983.000000
25510.000000,48760.000000,21936.000000,53979.000000
25501.000000,48745.000000,21915.000000,53960.000000
25481.000000,48724.000000,21878.000000,53928.000000
25454.000000,48699.000000,21829.000000,53888.000000
25420.000000,48670.000000,21772.000000,53844.000000
25382.000000,48636.000000,21711.000000,53797.000000
25340.000000,48602.000000,21648.000000,53750.000000
25297.000000,48568.000000,21586.000000,53706.000000
25254.000000,48532.000000,21526.000000,53664.000000
25210.000000,48498.000000,21467.000000,53622.000000
25165.000000,48465.000000,21409.000000,53578.000000
25119.000000,48436.000000,21352.000000,53533.000000
25073.000000,48409.000000,21300.000000,53486.000000
25029.000000,48386.000000,21254.000000,53444.000000
24992.000000,48363.000000,21216.000000,53410.000000
24962.000000,48340.000000,21182.000000,53379.000000
24936.000000,48320.000000,21151.000000,53348.000000
24915.000000,48304.000000,21122.000000,53317.000000
24900.000000,48290.000000,21095.000000,53287.000000
24889.000000,48278.000000,21069.000000,53257.000000
24881.000000,48265.000000,21043.000000,53228.000000
24872.000000,48252.000000,21016.000000,53197.000000
24861.000000,48239.000000,20987.000000,53160.000000
24845.000000,48223.000000,20951.000000,53114.000000
24823.000000,48202.000000,20908.000000,53060.000000
24795.000000,48179.000000,20862.000000,53007.000000
24765.000000,48157.000000,20814.000000,52956.000000
24734.000000,48135.000000,20766.000000,52910.000000
24704.000000,48117.000000,20717.000000,52868.000000
24675.000000,48099.000000,20668.000000,52824.000000
24650.000000,48077.000000,20617.000000,52781.000000
24626.000000,48053.000000,20562.000000,52741.000000
24601.000000,48028.000000,20503.000000,52706.000000
24578.000000,48004.000000,20445.000000,52677.000000
24556.000000,47979.000000,20392.000000,52649.000000
24538.000000,47955.000000,20343.000000,52626.000000
24523.000000,47935.000000,20303.000000,52608.000000
24510.000000,47920.000000,20271.000000,52595.000000
24497.000000,47907.000000,20248.000000,52586.000000
24486.000000,47897.000000,20233.000000,52579.000000
24475.000000,47890.000000,20224.000000,52574.000000
24467.000000,47885.000000,20217.000000,52573.000000
24463.000000,47882.000000,20215.000000,52576.000000
24463.000000,47881.000000,20218.000000,52580.000000
24465.000000,47881.000000,20224.000000,52585.000000
24467.000000,47883.000000,20233.000000,52591.000000
24467.000000,47886.000000,20242.000000,52594.000000
24467.000000,47890.000000,20247.000000,52596.000000
24467.000000,47895.000000,20247.000000,52598.000000
24466.000000,47901.000000,20245.000000,52596.000000
24462.000000,47904.000000,20240.000000,52583.000000
24457.000000,47904.000000,20231.000000,52559.000000
24451.000000,47901.000000,20217.000000,52530.000000
24439.000000,47896.000000,20201.000000,52501.000000
24423.000000,47888.000000,20181.000000,52470.000000
24406.000000,47879.000000,20158.000000,52441.000000
24388.000000,47869.000000,20129.000000,52408.000000
24367.000000,47854.000000,20094.000000,52371.000000
24344.000000,47834.000000,20054.000000,52332.000000
24321.000000,47812.000000,20012.000000,52290.000000
24295.000000,47790.000000,19967.000000,52243.000000
24266.000000,47768.000000,19918.000000,52195.000000
24236.000000,47745.000000,19863.000000,52146.000000
24207.000000,47722.000000,19804.000000,52097.000000
24176.000000,47700.000000,19744.000000,52048.000000
24144.000000,47675.000000,19683.000000,52005.000000
24109.000000,47648.000000,19621.000000,51962.000000
24074.000000,47620.000000,19560.000000,51919.000000
24038.000000,47593.000000,19504.000000,51874.000000
24001.000000,47566.000000,19448.000000,51829.000000
23964.000000,47543.000000,19390.000000,51785.000000
23924.000000,47521.000000,19327.000000,51738.000000
23883.000000,47500.000000,19264.000000,51690.000000
23844.000000,47479.000000,19204.000000,51641.000000
23807.000000,47453.000000,19145.000000,51591.000000
23771.000000,47425.000000,19089.000000,51541.000000
23739.000000,47397.000000,19038.000000,51493.000000
23709.000000,47372.000000,18991.000000,51442.000000
23680.000000,47346.000000,18950.000000,51387.000000
23651.000000,47322.000000,18913.000000,51332.000000
23622.000000,47297.000000,18877.000000,51282.000000
23592.000000,47272.000000,18841.000000,51238.000000
23563.000000,47246.000000,18801.000000,51197.000000
23538.000000,47223.000000,18758.000000,51159.000000
23515.000000,47201.000000,18715.000000,51126.000000
23496.000000,47181.000000,18675.000000,51098.000000
23476.000000,47159.000000,18641.000000,51076.000000
23456.000000,47135.000000,18611.000000,51056.000000
23435.000000,47116.000000,18582.000000,51037.000000
23411.000000,47100.000000,18555.000000,51020.000000
23383.000000,47084.000000,18529.000000,51004.000000
23355.000000,47066.000000,18504.000000,50992.000000
23330.000000,47052.000000,18480.000000,50982.000000
23308.000000,47041.000000,18456.000000,50971.000000
23286.000000,47032.000000,18433.000000,50954.000000
23266.000000,47025.000000,18409.000000,50933.000000
23247.000000,47018.000000,18386.000000,50909.000000
23232.000000,47013.000000,18365.000000,50883.000000
23222.000000,47009.000000,18345.000000,50853.000000
23213.000000,47003.000000,18325.000000,50820.000000
23202.000000,46996.000000,18304.000000,50785.000000
23193.000000,46991.000000,18283.000000,50751.000000
23186.000000,46986.000000,18262.000000,50721.000000
23180.000000,46979.000000,18241.000000,50693.000000
23173.000000,46970.000000,18219.000000,50668.000000
23165.000000,46962.000000,18197.000000,50649.000000
23157.000000,46954.000000,18177.000000,50638.000000
23148.000000,46946.000000,18154.000000,50627.000000
23135.000000,46940.000000,18128.000000,50615.000000
23120.000000,46935.000000,18101.000000,50603.000000
23105.000000,46929.000000,18077.000000,50589.000000
23090.000000,46923.000000,18054.000000,50577.000000
23075.000000,46915.000000,18031.000000,50567.000000
23061.000000,46905.000000,18007.000000,50556.000000
23049.000000,46891.000000,17982.000000,50543.000000
23038.000000,46876.000000,17959.000000,50531.000000
23024.000000,46859.000000,17936.000000,50519.000000
23006.000000,46841.000000,17913.000000,50506.000000
22986.000000,46821.000000,17888.000000,50490.000000
22965.000000,46799.000000,17863.000000,50473.000000
22944.000000,46777.000000,17842.000000,50460.000000
22927.000000,46760.000000,17828.000000,50456.000000
22920.000000,46753.000000,17830.000000,50465.000000
22929.000000,46758.000000,17860.000000,50492.000000
22956.000000,46781.000000,17922.000000,50543.000000
23007.000000,46827.000000,18023.000000,50625.000000
23087.000000,46897.000000,18168.000000,50743.000000
23196.000000,46992.000000,18361.000000,50900.000000
23336.000000,47112.000000,18600.000000,51092.000000
23503.000000,47255.000000,18882.000000,51318.000000
23693.000000,47416.000000,19197.000000,51575.000000
23900.000000,47591.000000,19534.000000,51855.000000
24114.000000,47772.000000,19879.000000,52146.000000
24327.000000,47958.000000,20223.000000,52442.000000
24538.000000,48139.000000,20554.000000,52735.000000
24739.000000,48309.000000,20861.000000,53014.000000
24920.000000,48464.000000,21138.000000,53274.000000
25080.000000,48601.000000,21382.000000,53509.000000
25217.000000,48720.000000,21590.000000,53717.000000
25330.000000,48816.000000,21758.000000,53892.000000
25419.000000,48891.000000,21890.000000,54030.000000
25485.000000,48944.000000,21988.000000,54136.000000
25527.000000,48977.000000,22053.000000,54212.000000
25546.000000,48995.000000,22090.000000,54262.000000
25549.000000,49002.000000,22102.000000,54291.000000
25540.000000,48998.000000,22093.000000,54299.000000
25523.000000,48985.000000,22069.000000,54288.000000
25497.000000,48965.000000,22033.000000,54261.000000
25463.000000,48940.000000,21989.000000,54224.000000
25426.000000,48910.000000,21938.000000,54182.000000
25387.000000,48879.000000,21884.000000,54138.000000
25349.000000,48847.000000,21829.000000,54091.000000
25313.000000,48816.000000,21779.000000,54040.000000
25277.000000,48788.000000,21730.000000,53983.000000
25244.000000,48762.000000,21683.000000,53922.000000
25216.000000,48739.000000,21639.000000,53862.000000
25194.000000,48717.000000,21598.000000,53807.000000
25171.000000,48697.000000,21561.000000,53760.000000
25146.000000,48681.000000,21531.000000,53721.000000
25124.000000,48669.000000,21506.000000,53690.000000
25108.000000,48659.000000,21484.000000,53669.000000
25095.000000,48652.000000,21464.000000,53659.000000
25088.000000,48647.000000,21447.000000,53655.000000
25083.000000,48643.000000,21430.000000,53653.000000
25079.000000,48640.000000,21414.000000,53650.000000
25074.000000,48634.000000,21398.000000,53646.000000
25065.000000,48624.000000,21382.000000,53640.000000
25055.000000,48613.000000,21363.000000,53632.000000
25044.000000,48600.000000,21343.000000,53624.000000
25031.000000,48584.000000,21320.000000,53613.000000
25015.000000,48562.000000,21288.000000,53596.000000
24993.000000,48539.000000,21249.000000,53568.000000
24964.000000,48514.000000,21204.000000,53532.000000
24931.000000,48489.000000,21154.000000,53491.000000
24895.000000,48462.000000,21101.000000,53446.000000
24858.000000,48432.000000,21046.000000,53399.000000
24821.000000,48398.000000,20989.000000,53351.000000
24785.000000,48364.000000,20932.000000,53304.000000
24751.000000,48333.000000,20876.000000,53258.000000
24719.000000,48306.000000,20821.000000,53212.000000
24688.000000,48283.000000,20768.000000,53166.000000
24658.000000,48261.000000,20717.000000,53119.000000
24630.000000,48240.000000,20669.000000,53074.000000
24607.000000,48223.000000,20627.000000,53034.000000
24589.000000,48210.000000,20593.000000,52998.000000
24574.000000,48201.000000,20571.000000,52967.000000
24563.000000,48193.000000,20556.000000,52945.000000
24557.000000,48185.000000,20546.000000,52929.000000
24554.000000,48176.000000,20537.000000,52917.000000
24554.000000,48168.000000,20530.000000,52908.000000
24553.000000,48164.000000,20526.000000,52900.000000
24551.000000,48160.000000,20524.000000,52889.000000
24551.000000,48159.000000,20522.000000,52878.000000
24552.000000,48159.000000,20521.000000,52872.000000
24553.000000,48159.000000,20522.000000,52866.000000
24558.000000,48161.000000,20526.000000,52860.000000
24562.000000,48166.000000,20528.000000,52852.000000
24564.000000,48169.000000,20526.000000,52840.000000
24561.000000,48169.000000,20516.000000,52830.000000
24551.000000,48164.000000,20498.000000,52820.000000
24532.000000,48156.000000,20474.000000,52804.000000
24508.000000,48144.000000,20444.000000,52780.000000
24481.000000,48128.000000,20408.000000,52751.000000
24454.000000,48109.000000,20366.000000,52717.000000
24423.000000,48085.000000,20318.000000,52677.000000
24388.000000,48057.000000,20263.000000,52635.000000
24352.000000,48028.000000,20203.000000,52592.000000
24317.000000,47996.000000,20139.000000,52547.000000
24283.000000,47964.000000,20075.000000,52500.000000
24250.000000,47931.000000,20012.000000,52454.000000
24218.000000,47897.000000,19950.000000,52408.000000
24186.000000,47864.000000,19889.000000,52362.000000
24154.000000,47834.000000,19828.000000,52314.000000
24119.000000,47805.000000,19767.000000,52261.000000
24081.000000,47775.000000,19705.000000,52206.000000
24040.000000,47746.000000,19643.000000,52152.000000
23999.000000,47720.000000,19582.000000,52103.000000
23957.000000,47693.000000,19520.000000,52055.000000
23918.000000,47667.000000,19461.000000,52006.000000
23880.000000,47642.000000,19405.000000,51955.000000
23845.000000,47619.000000,19353.000000,51906.000000
23814.000000,47595.000000,19299.000000,51863.000000
23784.000000,47572.000000,19244.000000,51823.000000
23755.000000,47549.000000,19192.000000,51782.000000
23728.000000,47527.000000,19144.000000,51739.000000
23701.000000,47503.000000,19098.000000,51698.000000
23674.000000,47478.000000,19056.000000,51658.000000
23646.000000,47452.000000,19012.000000,51622.000000
23618.000000,47424.000000,18967.000000,51583.000000
23589.000000,47397.000000,18924.000000,51540.000000
23565.000000,47372.000000,18884.000000,51497.000000
23546.000000,47352.000000,18848.000000,51456.000000
23530.000000,47336.000000,18813.000000,51414.000000
23513.000000,47320.000000,18780.000000,51370.000000
23496.000000,47304.000000,18750.000000,51328.000000
23481.000000,47289.000000,18724.000000,51291.000000
23466.000000,47276.000000,18698.000000,51257.000000
23453.000000,47266.000000,18673.000000,51226.000000
23442.000000,47263.000000,18650.000000,51198.000000
23434.000000,47262.000000,18627.000000,51172.000000
23427.000000,47258.000000,18603.000000,51145.000000
23419.000000,47249.000000,18580.000000,51117.000000
23409.000000,47238.000000,18558.000000,51090.000000
23396.000000,47223.000000,18531.000000,51064.000000
23382.000000,47208.000000,18504.000000,51041.000000
23369.000000,47194.000000,18480.000000,51019.000000
23353.000000,47179.000000,18458.000000,50995.000000
23336.000000,47167.000000,18438.000000,50969.000000
23316.000000,47158.000000,18421.000000,50940.000000
23294.000000,47152.000000,18405.000000,50912.000000
23270.000000,47147.000000,18386.000000,50887.000000
23248.000000,47139.000000,18363.000000,50868.000000
23230.000000,47132.000000,18341.000000,50854.000000
23219.000000,47127.000000,18320.000000,50846.000000
23211.000000,47124.000000,18300.000000,50840.000000
23207.000000,47120.000000,18279.000000,50831.000000
23204.000000,47115.000000,18257.000000,50817.000000
23198.000000,47109.000000,18233.000000,50802.000000
23189.000000,47099.000000,18207.000000,50785.000000
23176.000000,47086.000000,18183.000000,50767.000000
23162.000000,47075.000000,18160.000000,50746.000000
23148.000000,47064.000000,18140.000000,50726.000000
23133.000000,47050.000000,18121.000000,50710.000000
23114.000000,47035.000000,18103.000000,50697.000000
23092.000000,47021.000000,18084.000000,50687.000000
23067.000000,47006.000000,18065.000000,50680.000000
23043.000000,46989.000000,18049.000000,50674.000000
23026.000000,46976.000000,18046.000000,50676.000000
23024.000000,46975.000000,18065.000000,50697.000000
23041.000000,46991.000000,18119.000000,50745.000000
23087.000000,47030.000000,18215.000000,50825.000000
23164.000000,47097.000000,18360.000000,50945.000000
23274.000000,47193.000000,18555.000000,51113.000000
23410.000000,47315.000000,18799.000000,51330.000000
23571.000000,47458.000000,19087.000000,51589.000000
23755.000000,47621.000000,19410.000000,51879.000000
23956.000000,47798.000000,19753.000000,52192.000000
24168.000000,47982.000000,20107.000000,52518.000000
24380.000000,48166.000000,20460.000000,52840.000000
24583.000000,48342.000000,20798.000000,53145.000000
24771.000000,48505.000000,21108.000000,53427.000000
24943.000000,48655.000000,21387.000000,53679.000000
25096.000000,48792.000000,21633.000000,53898.000000
25228.000000,48909.000000,21844.000000,54081.000000
25338.000000,49005.000000,22017.000000,54231.000000
25426.000000,49078.000000,22153.000000,54348.000000
25494.000000,49131.000000,22255.000000,54434.000000
25542.000000,49169.000000,22326.000000,54496.000000
25573.000000,49195.000000,22368.000000,54539.000000
25590.000000,49211.000000,22389.000000,54564.000000
25594.000000,49215.000000,22393.000000,54571.000000
25588.000000,49209.000000,22382.000000,54562.000000
25575.000000,49196.000000,22355.000000,54542.000000
25558.000000,49178.000000,22315.000000,54517.000000
25537.000000,49160.000000,22269.000000,54491.000000
25511.000000,49140.000000,22221.000000,54461.000000
25481.000000,49118.000000,22172.000000,54426.000000
25450.000000,49094.000000,22121.000000,54389.000000
25420.000000,49069.000000,22073.000000,54355.000000
25394.000000,49044.000000,22030.000000,54322.000000
25370.000000,49018.000000,21989.000000,54288.000000
25345.000000,48993.000000,21950.000000,54250.000000
25321.000000,48972.000000,21915.000000,54213.000000
25304.000000,48956.000000,21885.000000,54183.000000
25290.000000,48943.000000,21857.000000,54160.000000
25276.000000,48929.000000,21832.000000,54146.000000
25265.000000,48915.000000,21809.000000,54137.000000
25256.000000,48902.000000,21788.000000,54126.000000
25249.000000,48892.000000,21768.000000,54113.000000
25242.000000,48885.000000,21750.000000,54100.000000
25233.000000,48879.000000,21734.000000,54085.000000
25223.000000,48874.000000,21722.000000,54072.000000
25215.000000,48868.000000,21712.000000,54062.000000
25206.000000,48862.000000,21702.000000,54054.000000
25194.000000,48854.000000,21691.000000,54042.000000
25178.000000,48843.000000,21675.000000,54023.000000
25158.000000,48827.000000,21648.000000,54002.000000
25138.000000,48807.000000,21612.000000,53978.000000
25116.000000,48785.000000,21569.000000,53948.000000
25090.000000,48764.000000,21522.000000,53909.000000
25063.000000,48747.000000,21471.000000,53863.000000
25035.000000,48727.000000,21417.000000,53814.000000
25007.000000,48703.000000,21360.000000,53761.000000
24980.000000,48676.000000,21302.000000,53701.000000
24948.000000,48644.000000,21247.000000,53636.000000
24912.000000,48613.000000,21195.000000,53571.000000
24876.000000,48584.000000,21147.000000,53511.000000
24842.000000,48558.000000,21102.000000,53454.000000
24807.000000,48534.000000,21058.000000,53403.000000
24775.000000,48511.000000,21017.000000,53358.000000
24745.000000,48486.000000,20977.000000,53316.000000
24719.000000,48461.000000,20940.000000,53273.000000
24695.000000,48438.000000,20907.000000,53232.000000
24676.000000,48422.000000,20878.000000,53196.000000
24665.000000,48411.000000,20854.000000,53166.000000
24659.000000,48406.000000,20832.000000,53142.000000
24658.000000,48404.000000,20816.000000,53122.000000
24660.000000,48402.000000,20803.000000,53107.000000
24659.000000,48396.000000,20794.000000,53099.000000
24657.000000,48385.000000,20785.000000,53096.000000
24654.000000,48374.000000,20775.000000,53097.000000
24648.000000,48363.000000,20760.000000,53096.000000
24637.000000,48348.000000,20741.000000,53093.000000
24624.000000,48329.000000,20719.000000,53086.000000
24609.000000,48310.000000,20696.000000,53077.000000
24594.000000,48294.000000,20669.000000,53068.000000
24579.000000,48281.000000,20641.000000,53057.000000
24562.000000,48269.000000,20609.000000,53040.000000
24542.000000,48258.000000,20571.000000,53017.000000
24519.000000,48246.000000,20529.000000,52988.000000
24494.000000,48231.000000,20484.000000,52952.000000
24468.000000,48213.000000,20439.000000,52912.000000
24441.000000,48195.000000,20392.000000,52868.000000
24410.000000,48176.000000,20343.000000,52819.000000
24378.000000,48156.000000,20292.000000,52762.000000
24346.000000,48132.000000,20237.000000,52700.000000
24310.000000,48107.000000,20177.000000,52637.000000
24272.000000,48080.000000,20116.000000,52576.000000
24234.000000,48053.000000,20055.000000,52518.000000
24197.000000,48026.000000,19994.000000,52459.000000
24164.000000,47998.000000,19934.000000,52402.000000
24133.000000,47970.000000,19876.000000,52349.000000
24104.000000,47941.000000,19817.000000,52296.000000
24081.000000,47914.000000,19756.000000,52239.000000
24062.000000,47891.000000,19698.000000,52183.000000
24043.000000,47870.000000,19643.000000,52130.000000
24024.000000,47853.000000,19590.000000,52081.000000
24004.000000,47837.000000,19540.000000,52037.000000
23985.000000,47825.000000,19495.000000,51995.000000
23967.000000,47814.000000,19454.000000,51953.000000
23951.000000,47803.000000,19415.000000,51917.000000
23935.000000,47787.000000,19375.000000,51888.000000
23921.000000,47770.000000,19336.000000,51865.000000
23906.000000,47753.000000,19301.000000,51844.000000
23891.000000,47734.000000,19265.000000,51818.000000
23872.000000,47712.000000,19226.000000,51790.000000
23851.000000,47688.000000,19189.000000,51761.000000
23829.000000,47665.000000,19155.000000,51736.000000
23805.000000,47646.000000,19122.000000,51715.000000
23783.000000,47629.000000,19089.000000,51696.000000
23764.000000,47614.000000,19057.000000,51677.000000
23746.000000,47599.000000,19027.000000,51657.000000
23728.000000,47586.000000,19000.000000,51638.000000
23711.000000,47574.000000,18977.000000,51615.000000
23696.000000,47561.000000,18955.000000,51591.000000
23680.000000,47544.000000,18931.000000,51567.000000
23665.000000,47525.000000,18905.000000,51540.000000
23651.000000,47507.000000,18880.000000,51515.000000
23640.000000,47491.000000,18858.000000,51491.000000
23630.000000,47477.000000,18841.000000,51469.000000
23621.000000,47466.000000,18826.000000,51445.000000
23614.000000,47457.000000,18814.000000,51418.000000
23605.000000,47451.000000,18802.000000,51389.000000
23591.000000,47445.000000,18789.000000,51361.000000
23576.000000,47441.000000,18774.000000,51337.000000
23561.000000,47440.000000,18756.000000,51316.000000
23543.000000,47441.000000,18735.000000,51298.000000
23523.000000,47438.000000,18710.000000,51277.000000
23501.000000,47431.000000,18683.000000,51256.000000
23481.000000,47418.000000,18654.000000,51237.000000
23465.000000,47403.000000,18626.000000,51215.000000
23449.000000,47387.000000,18600.000000,51190.000000
23434.000000,47372.000000,18575.000000,51162.000000
23420.000000,47358.000000,18549.000000,51134.000000
23408.000000,47345.000000,18526.000000,51107.000000
23395.000000,47331.000000,18500.000000,51083.000000
23378.000000,47314.000000,18469.000000,51061.000000
23359.000000,47297.000000,18436.000000,51046.000000
23340.000000,47281.000000,18404.000000,51037.000000
23322.000000,47265.000000,18371.000000,51029.000000
23307.000000,47247.000000,18335.000000,51021.000000
23296.000000,47229.000000,18301.000000,51015.000000
23286.000000,47214.000000,18268.000000,51010.000000
23272.000000,47200.000000,18238.000000,51000.000000
23257.000000,47186.000000,18213.000000,50988.000000
23247.000000,47174.000000,18199.000000,50978.000000
23248.000000,47169.000000,18202.000000,50978.000000
23261.000000,47178.000000,18230.000000,50995.000000
23291.000000,47207.000000,18291.000000,51040.000000
23343.000000,47257.000000,18394.000000,51118.000000
23424.000000,47330.000000,18545.000000,51233.000000
23539.000000,47426.000000,18747.000000,51389.000000
23685.000000,47547.000000,18993.000000,51589.000000
23861.000000,47693.000000,19280.000000,51830.000000
24061.000000,47862.000000,19606.000000,52110.000000
24280.000000,48049.000000,19963.000000,52423.000000
24511.000000,48248.000000,20339.000000,52756.000000
24745.000000,48450.000000,20713.000000,53092.000000
24975.000000,48645.000000,21069.000000,53420.000000
25193.000000,48827.000000,21399.000000,53728.000000
25394.000000,48993.000000,21698.000000,54010.000000
25578.000000,49143.000000,21958.000000,54261.000000
25740.000000,49275.000000,22181.000000,54475.000000
25877.000000,49387.000000,22370.000000,54655.000000
25989.000000,49477.000000,22527.000000,54801.000000
26074.000000,49549.000000,22646.000000,54916.000000
26132.000000,49602.000000,22725.000000,55001.000000
26170.000000,49635.000000,22773.000000,55058.000000
26190.000000,49651.000000,22796.000000,55094.000000
26197.000000,49654.000000,22799.000000,55111.000000
26193.000000,49650.000000,22788.000000,55113.000000
26182.000000,49640.000000,22764.000000,55102.000000
26164.000000,49625.000000,22730.000000,55078.000000
26142.000000,49605.000000,22688.000000,55044.000000
26116.000000,49582.000000,22642.000000,55001.000000
26088.000000,49557.000000,22594.000000,54952.000000
26060.000000,49533.000000,22549.000000,54902.000000
26034.000000,49511.000000,22510.000000,54854.000000
26010.000000,49488.000000,22475.000000,54805.000000
25989.000000,49466.000000,22442.000000,54755.000000
25972.000000,49447.000000,22412.000000,54709.000000
25957.000000,49432.000000,22385.000000,54669.000000
25946.000000,49422.000000,22361.000000,54635.000000
25942.000000,49418.000000,22343.000000,54613.000000
25940.000000,49415.000000,22329.000000,54605.000000
25937.000000,49413.000000,22319.000000,54608.000000
25934.000000,49409.000000,22312.000000,54612.000000
25930.000000,49406.000000,22305.000000,54615.000000
25925.000000,49403.000000,22296.000000,54618.000000
25918.000000,49400.000000,22286.000000,54624.000000
25909.000000,49396.000000,22274.000000,54630.000000
25899.000000,49390.000000,22262.000000,54629.000000
25890.000000,49383.000000,22250.000000,54622.000000
25880.000000,49374.000000,22239.000000,54614.000000
25868.000000,49362.000000,22227.000000,54602.000000
25853.000000,49345.000000,22212.000000,54579.000000
25837.000000,49324.000000,22192.000000,54547.000000
25816.000000,49300.000000,22167.000000,54507.000000
25792.000000,49274.000000,22136.000000,54460.000000
25764.000000,49251.000000,22102.000000,54408.000000
25734.000000,49230.000000,22062.000000,54352.000000
25704.000000,49210.000000,22016.000000,54295.000000
25677.000000,49188.000000,21965.000000,54240.000000
25652.000000,49169.000000,21910.000000,54186.000000
25629.000000,49149.000000,21854.000000,54134.000000
25605.000000,49126.000000,21798.000000,54085.000000
25580.000000,49100.000000,21743.000000,54038.000000
25555.000000,49075.000000,21691.000000,53995.000000
25530.000000,49048.000000,21642.000000,53955.000000
25503.000000,49019.000000,21592.000000,53914.000000
25475.000000,48991.000000,21542.000000,53875.000000
25446.000000,48967.000000,21494.000000,53840.000000
25416.000000,48947.000000,21452.000000,53814.000000
25386.000000,48927.000000,21414.000000,53795.000000
25358.000000,48908.000000,21377.000000,53781.000000
25332.000000,48889.000000,21343.000000,53769.000000
25309.000000,48871.000000,21312.000000,53758.000000
25288.000000,48852.000000,21285.000000,53750.000000
25268.000000,48832.000000,21259.000000,53741.000000
25251.000000,48813.000000,21231.000000,53728.000000
25237.000000,48796.000000,21204.000000,53713.000000
25225.000000,48779.000000,21178.000000,53694.000000
25209.000000,48764.000000,21158.000000,53670.000000
25192.000000,48750.000000,21142.000000,53643.000000
25174.000000,48738.000000,21126.000000,53614.000000
25155.000000,48726.000000,21103.000000,53581.000000
25135.000000,48713.000000,21076.000000,53543.000000
25111.000000,48696.000000,21044.000000,53499.000000
25083.000000,48675.000000,21008.000000,53454.000000
25053.000000,48654.000000,20967.000000,53408.000000
25023.000000,48634.000000,20926.000000,53360.000000
24992.000000,48615.000000,20885.000000,53314.000000
24963.000000,48597.000000,20841.000000,53271.000000
24936.000000,48577.000000,20794.000000,53228.000000
24912.000000,48557.000000,20744.000000,53185.000000
24887.000000,48536.000000,20690.000000,53141.000000
24862.000000,48512.000000,20632.000000,53096.000000
24836.000000,48485.000000,20570.000000,53049.000000
24808.000000,48454.000000,20504.000000,53004.000000
24778.000000,48422.000000,20438.000000,52959.000000
24742.000000,48391.000000,20371.000000,52910.000000
24701.000000,48361.000000,20303.000000,52857.000000
24657.000000,48332.000000,20237.000000,52805.000000
24613.000000,48305.000000,20174.000000,52756.000000
24572.000000,48280.000000,20115.000000,52709.000000
24535.000000,48255.000000,20057.000000,52661.000000
24501.000000,48229.000000,19997.000000,52617.000000
24464.000000,48201.000000,19936.000000,52572.000000
24426.000000,48175.000000,19879.000000,52527.000000
24387.000000,48150.000000,19825.000000,52484.000000
24353.000000,48125.000000,19774.000000,52443.000000
24322.000000,48101.000000,19726.000000,52397.000000
24295.000000,48077.000000,19682.000000,52345.000000
24271.000000,48058.000000,19643.000000,52293.000000
24250.000000,48043.000000,19606.000000,52248.000000
24230.000000,48028.000000,19572.000000,52202.000000
24209.000000,48012.000000,19538.000000,52152.000000
24191.000000,47994.000000,19502.000000,52101.000000
24175.000000,47975.000000,19464.000000,52053.000000
24161.000000,47958.000000,19429.000000,52013.000000
24149.000000,47944.000000,19397.000000,51976.000000
24139.000000,47930.000000,19365.000000,51943.000000
24128.000000,47917.000000,19333.000000,51917.000000
24118.000000,47910.000000,19304.000000,51896.000000
24106.000000,47905.000000,19276.000000,51876.000000
24095.000000,47897.000000,19248.000000,51854.000000
24086.000000,47887.000000,19220.000000,51831.000000
24079.000000,47879.000000,19193.000000,51810.000000
24072.000000,47872.000000,19166.000000,51791.000000
24063.000000,47864.000000,19137.000000,51777.000000
24049.000000,47855.000000,19107.000000,51766.000000
24032.000000,47844.000000,19075.000000,51755.000000
24012.000000,47829.000000,19042.000000,51743.000000
23989.000000,47808.000000,19009.000000,51731.000000
23962.000000,47784.000000,18975.000000,51719.000000
23935.000000,47760.000000,18940.000000,51702.000000
23910.000000,47741.000000,18908.000000,51681.000000
23887.000000,47726.000000,18882.000000,51660.000000
23865.000000,47714.000000,18861.000000,51635.000000
23848.000000,47704.000000,18842.000000,51602.000000
23836.000000,47697.000000,18821.000000,51565.000000
23828.000000,47692.000000,18801.000000,51529.000000
23822.000000,47687.000000,18784.000000,51496.000000
23816.000000,47680.000000,18770.000000,51464.000000
23810.000000,47673.000000,18758.000000,51436.000000
23802.000000,47666.000000,18746.000000,51410.000000
23791.000000,47659.000000,18732.000000,51384.000000
23779.000000,47649.000000,18715.000000,51361.000000
23767.000000,47637.000000,18690.000000,51341.000000
23753.000000,47624.000000,18660.000000,51323.000000
23736.000000,47609.000000,18630.000000,51308.000000
23715.000000,47592.000000,18602.000000,51297.000000
23693.000000,47573.000000,18573.000000,51288.000000
23669.000000,47551.000000,18542.000000,51277.000000
23645.000000,47528.000000,18511.000000,51269.000000
23618.000000,47505.000000,18480.000000,51259.000000
23590.000000,47485.000000,18446.000000,51244.000000
23560.000000,47466.000000,18410.000000,51224.000000
23532.000000,47446.000000,18373.000000,51198.000000
23505.000000,47426.000000,18335.000000,51170.000000
23479.000000,47408.000000,18301.000000,51140.000000
23455.000000,47392.000000,18273.000000,51108.000000
23438.000000,47380.000000,18249.000000,51074.000000
23426.000000,47370.000000,18232.000000,51042.000000
23418.000000,47365.000000,18227.000000,51016.000000
23416.000000,47368.000000,18238.000000,51004.000000
23425.000000,47380.000000,18266.000000,51010.000000
23449.000000,47403.000000,18318.000000,51040.000000
23492.000000,47443.000000,18401.000000,51104.000000
23557.000000,47501.000000,18524.000000,51209.000000
23652.000000,47585.000000,18694.000000,51361.000000
23778.000000,47696.000000,18914.000000,51559.000000
23933.000000,47831.000000,19183.000000,51801.000000
24113.000000,47987.000000,19494.000000,52084.000000
24315.000000,48159.000000,19840.000000,52399.000000
24534.000000,48347.000000,20210.000000,52736.000000
24763.000000,48543.000000,20590.000000,53085.000000
24993.000000,48739.000000,20966.000000,53434.000000
25216.000000,48926.000000,21324.000000,53771.000000
25421.000000,49100.000000,21652.000000,54086.000000
25607.000000,49260.000000,21945.000000,54375.000000
25769.000000,49401.000000,22203.000000,54632.000000
25907.000000,49521.000000,22424.000000,54851.000000
26021.000000,49617.000000,22609.000000,55031.000000
26111.000000,49691.000000,22756.000000,55171.000000
26179.000000,49746.000000,22865.000000,55271.000000
26228.000000,49784.000000,22938.000000,55335.000000
26261.000000,49808.000000,22978.000000,55367.000000
26280.000000,49822.000000,22995.000000,55376.000000
26288.000000,49829.000000,22995.000000,55370.000000
26286.000000,49826.000000,22978.000000,55349.000000
26275.000000,49815.000000,22948.000000,55314.000000
26259.000000,49801.000000,22911.000000,55272.000000
26239.000000,49785.000000,22871.000000,55225.000000
26218.000000,49768.000000,22827.000000,55173.000000
26200.000000,49754.000000,22783.000000,55121.000000
26183.000000,49742.000000,22741.000000,55073.000000
26165.000000,49730.000000,22703.000000,55031.000000
26150.000000,49718.000000,22667.000000,54995.000000
26136.000000,49705.000000,22632.000000,54963.000000
26122.000000,49692.000000,22598.000000,54935.000000
26110.000000,49680.000000,22569.000000,54918.000000
26102.000000,49668.000000,22545.000000,54912.000000
26097.000000,49655.000000,22527.000000,54915.000000
26091.000000,49643.000000,22513.000000,54918.000000
26088.000000,49633.000000,22500.000000,54918.000000
26085.000000,49625.000000,22486.000000,54918.000000
26081.000000,49621.000000,22470.000000,54919.000000
26078.000000,49620.000000,22455.000000,54917.000000
26079.000000,49622.000000,22444.000000,54910.000000
26082.000000,49625.000000,22434.000000,54897.000000
26085.000000,49629.000000,22425.000000,54881.000000
26086.000000,49632.000000,22416.000000,54862.000000
26084.000000,49631.000000,22407.000000,54840.000000
26081.000000,49625.000000,22398.000000,54817.000000
26076.000000,49616.000000,22385.000000,54790.000000
26071.000000,49601.000000,22365.000000,54762.000000
26064.000000,49583.000000,22339.000000,54731.000000
26050.000000,49563.000000,22308.000000,54696.000000
26032.000000,49547.000000,22272.000000,54658.000000
26013.000000,49534.000000,22232.000000,54622.000000
25993.000000,49521.000000,22189.000000,54583.000000
25970.000000,49507.000000,22142.000000,54543.000000
25943.000000,49487.000000,22095.000000,54504.000000
25914.000000,49462.000000,22046.000000,54469.000000
25883.000000,49433.000000,21996.000000,54434.000000
25851.000000,49403.000000,21945.000000,54401.000000
25818.000000,49374.000000,21893.000000,54368.000000
25787.000000,49346.000000,21840.000000,54335.000000
25759.000000,49319.000000,21789.000000,54305.000000
25733.000000,49295.000000,21742.000000,54278.000000
25707.000000,49274.000000,21703.000000,54251.000000
25683.000000,49256.000000,21670.000000,54224.000000
25662.000000,49241.000000,21642.000000,54197.000000
25641.000000,49228.000000,21619.000000,54173.000000
25620.000000,49220.000000,21602.000000,54148.000000
25601.000000,49211.000000,21590.000000,54125.000000
25584.000000,49204.000000,21580.000000,54102.000000
25568.000000,49200.000000,21571.000000,54082.000000
25556.000000,49195.000000,21562.000000,54063.000000
25545.000000,49189.000000,21553.000000,54044.000000
25537.000000,49182.000000,21542.000000,54025.000000
25531.000000,49175.000000,21529.000000,54007.000000
25524.000000,49168.000000,21514.000000,53990.000000
25512.000000,49159.000000,21494.000000,53972.000000
25496.000000,49147.000000,21468.000000,53949.000000
25479.000000,49134.000000,21438.000000,53924.000000
25466.000000,49121.000000,21403.000000,53902.000000
25459.000000,49108.000000,21363.000000,53878.000000
25457.000000,49096.000000,21318.000000,53848.000000
25452.000000,49083.000000,21272.000000,53817.000000
25438.000000,49067.000000,21225.000000,53786.000000
25411.000000,49045.000000,21173.000000,53756.000000
25376.000000,49020.000000,21119.000000,53722.000000
25338.000000,48990.000000,21062.000000,53682.000000
25297.000000,48957.000000,21000.000000,53634.000000
25249.000000,48921.000000,20936.000000,53579.000000
25197.000000,48883.000000,20873.000000,53518.000000
25148.000000,48847.000000,20810.000000,53450.000000
25107.000000,48813.000000,20749.000000,53375.000000
25071.000000,48781.000000,20691.000000,53300.000000
25039.000000,48749.000000,20632.000000,53226.000000
25009.000000,48717.000000,20573.000000,53151.000000
24984.000000,48689.000000,20519.000000,53081.000000
24962.000000,48664.000000,20467.000000,53021.000000
24938.000000,48640.000000,20413.000000,52970.000000
24914.000000,48617.000000,20358.000000,52927.000000
24888.000000,48597.000000,20304.000000,52890.000000
24864.000000,48578.000000,20250.000000,52861.000000
24841.000000,48560.000000,20196.000000,52836.000000
24819.000000,48541.000000,20143.000000,52810.000000
24796.000000,48518.000000,20093.000000,52782.000000
24771.000000,48495.000000,20044.000000,52752.000000
24742.000000,48474.000000,19998.000000,52722.000000
24710.000000,48455.000000,19953.000000,52689.000000
24678.000000,48434.000000,19907.000000,52654.000000
24646.000000,48411.000000,19860.000000,52613.000000
24618.000000,48389.000000,19813.000000,52567.000000
24591.000000,48368.000000,19771.000000,52519.000000
24566.000000,48348.000000,19735.000000,52472.000000
24543.000000,48332.000000,19707.000000,52430.000000
24525.000000,48322.000000,19685.000000,52395.000000
24508.000000,48313.000000,19663.000000,52363.000000
24491.000000,48302.000000,19639.000000,52330.000000
24475.000000,48287.000000,19613.000000,52298.000000
24461.000000,48269.000000,19586.000000,52272.000000
24447.000000,48251.000000,19561.000000,52249.000000
24433.000000,48233.000000,19536.000000,52225.000000
24419.000000,48214.000000,19508.000000,52204.000000
24402.000000,48195.000000,19474.000000,52185.000000
24380.000000,48176.000000,19437.000000,52164.000000
24353.000000,48159.000000,19398.000000,52138.000000
24326.000000,48142.000000,19361.000000,52110.000000
24301.000000,48127.000000,19328.000000,52088.000000
24280.000000,48113.000000,19301.000000,52072.000000
24262.000000,48103.000000,19279.000000,52061.000000
24246.000000,48095.000000,19257.000000,52051.000000
24231.000000,48087.000000,19235.000000,52038.000000
24218.000000,48080.000000,19215.000000,52022.000000
24205.000000,48072.000000,19198.000000,52001.000000
24189.000000,48062.000000,19177.000000,51975.000000
24172.000000,48049.000000,19152.000000,51942.000000
24154.000000,48035.000000,19125.000000,51906.000000
24132.000000,48019.000000,19095.000000,51874.000000
24105.000000,48000.000000,19065.000000,51848.000000
24073.000000,47978.000000,19032.000000,51822.000000
24041.000000,47953.000000,18995.000000,51792.000000
24008.000000,47924.000000,18955.000000,51763.000000
23979.000000,47897.000000,18916.000000,51735.000000
23955.000000,47877.000000,18879.000000,51711.000000
23934.000000,47864.000000,18847.000000,51691.000000
23915.000000,47857.000000,18820.000000,51677.000000
23900.000000,47855.000000,18797.000000,51666.000000
23889.000000,47854.000000,18776.000000,51654.000000
23877.000000,47848.000000,18752.000000,51640.000000
23863.000000,47837.000000,18725.000000,51623.000000
23845.000000,47824.000000,18697.000000,51608.000000
23821.000000,47807.000000,18671.000000,51596.000000
23793.000000,47787.000000,18648.000000,51582.000000
23764.000000,47766.000000,18625.000000,51566.000000
23737.000000,47747.000000,18602.000000,51550.000000
23715.000000,47731.000000,18581.000000,51531.000000
23697.000000,47716.000000,18561.000000,51505.000000
23682.000000,47705.000000,18540.000000,51475.000000
23671.000000,47699.000000,18519.000000,51441.000000
23667.000000,47697.000000,18499.000000,51407.000000
23669.000000,47696.000000,18481.000000,51379.000000
23676.000000,47699.000000,18474.000000,51358.000000
23692.000000,47709.000000,18488.000000,51349.000000
23723.000000,47735.000000,18532.000000,51366.000000
23775.000000,47782.000000,18615.000000,51419.000000
23852.000000,47851.000000,18741.000000,51518.000000
23960.000000,47945.000000,18918.000000,51673.000000
24100.000000,48062.000000,19147.000000,51886.000000
24267.000000,48197.000000,19420.000000,52145.000000
24457.000000,48350.000000,19731.000000,52441.000000
24667.000000,48522.000000,20074.000000,52765.000000
24890.000000,48708.000000,20440.000000,53112.000000
25120.000000,48900.000000,20814.000000,53468.000000
25346.000000,49094.000000,21184.000000,53816.000000
25564.000000,49282.000000,21539.000000,54141.000000
25769.000000,49456.000000,21867.000000,54433.000000
25954.000000,49611.000000,22161.000000,54690.000000
26117.000000,49746.000000,22416.000000,54913.000000
26255.000000,49866.000000,22635.000000,55102.000000
26370.000000,49971.000000,22816.000000,55258.000000
26465.000000,50057.000000,22956.000000,55381.000000
26542.000000,50123.000000,23058.000000,55472.000000
26602.000000,50170.000000,23122.000000,55535.000000
26643.000000,50200.000000,23153.000000,55572.000000
26665.000000,50213.000000,23153.000000,55586.000000
26669.000000,50210.000000,23129.000000,55582.000000
26661.000000,50196.000000,23087.000000,55562.000000
26643.000000,50173.000000,23037.000000,55532.000000
26616.000000,50144.000000,22983.000000,55494.000000
26582.000000,50112.000000,22925.000000,55446.000000
26546.000000,50078.000000,22864.000000,55391.000000
26506.000000,50045.000000,22807.000000,55335.000000
26466.000000,50011.000000,22754.000000,55279.000000
26429.000000,49977.000000,22707.000000,55224.000000
26397.000000,49946.000000,22664.000000,55168.000000
26372.000000,49922.000000,22627.000000,55114.000000
26351.000000,49906.000000,22593.000000,55066.000000
26334.000000,49894.000000,22565.000000,55026.000000
26321.000000,49884.000000,22541.000000,54997.000000
26311.000000,49876.000000,22520.000000,54979.000000
26301.000000,49869.000000,22500.000000,54966.000000
26291.000000,49862.000000,22477.000000,54954.000000
26281.000000,49854.000000,22455.000000,54945.000000
26270.000000,49846.000000,22436.000000,54941.000000
26260.000000,49838.000000,22423.000000,54943.000000
26250.000000,49829.000000,22414.000000,54950.000000
26238.000000,49820.000000,22405.000000,54958.000000
26221.000000,49810.000000,22394.000000,54962.000000
26203.000000,49797.000000,22376.000000,54959.000000
26181.000000,49779.000000,22353.000000,54946.000000
26154.000000,49756.000000,22326.000000,54922.000000
26121.000000,49732.000000,22298.000000,54887.000000
26084.000000,49709.000000,22267.000000,54844.000000
26045.000000,49688.000000,22229.000000,54798.000000
26007.000000,49664.000000,22183.000000,54749.000000
25969.000000,49637.000000,22132.000000,54698.000000
25933.000000,49609.000000,22078.000000,54650.000000
25898.000000,49582.000000,22024.000000,54608.000000
25864.000000,49556.000000,21969.000000,54570.000000
25832.000000,49532.000000,21914.000000,54534.000000
25803.000000,49508.000000,21857.000000,54497.000000
25774.000000,49482.000000,21802.000000,54462.000000
25748.000000,49455.000000,21749.000000,54429.000000
25722.000000,49429.000000,21701.000000,54401.000000
25698.000000,49404.000000,21658.000000,54377.000000
25676.000000,49381.000000,21620.000000,54355.000000
25656.000000,49363.000000,21590.000000,54334.000000
25640.000000,49351.000000,21566.000000,54309.000000
25629.000000,49344.000000,21550.000000,54278.000000
25622.000000,49341.000000,21541.000000,54248.000000
25620.000000,49341.000000,21535.000000,54221.000000
25619.000000,49341.000000,21532.000000,54198.000000
25616.000000,49339.000000,21528.000000,54180.000000
25611.000000,49335.000000,21521.000000,54169.000000
25604.000000,49328.000000,21511.000000,54160.000000
25598.000000,49318.000000,21499.000000,54151.000000
25591.000000,49304.000000,21480.000000,54144.000000
25578.000000,49284.000000,21454.000000,54135.000000
25560.000000,49263.000000,21425.000000,54121.000000
25539.000000,49242.000000,21392.000000,54104.000000
25514.000000,49221.000000,21355.000000,54084.000000
25487.000000,49201.000000,21313.000000,54058.000000
25458.000000,49182.000000,21268.000000,54026.000000
25427.000000,49162.000000,21221.000000,53988.000000
25397.000000,49143.000000,21176.000000,53945.000000
25370.000000,49130.000000,21130.000000,53899.000000
25344.000000,49121.000000,21086.000000,53853.000000
25321.000000,49113.000000,21043.000000,53809.000000
25300.000000,49106.000000,21002.000000,53763.000000
25279.000000,49097.000000,20962.000000,53713.000000
25257.000000,49084.000000,20920.000000,53665.000000
25235.000000,49067.000000,20872.000000,53619.000000
25209.000000,49042.000000,20816.000000,53573.000000
25178.000000,49010.000000,20752.000000,53521.000000
25141.000000,48971.000000,20683.000000,53460.000000
25099.000000,48927.000000,20613.000000,53395.000000
25054.000000,48882.000000,20544.000000,53336.000000
25011.000000,48837.000000,20476.000000,53282.000000
24972.000000,48795.000000,20412.000000,53231.000000
24937.000000,48756.000000,20350.000000,53184.000000
24904.000000,48720.000000,20291.000000,53138.000000
24873.000000,48691.000000,20237.000000,53092.000000
24841.000000,48666.000000,20187.000000,53045.000000
24808.000000,48643.000000,20139.000000,52998.000000
24777.000000,48621.000000,20094.000000,52954.000000
24747.000000,48601.000000,20051.000000,52909.000000
24718.000000,48584.000000,20010.000000,52861.000000
24691.000000,48570.000000,19970.000000,52813.000000
24669.000000,48558.000000,19933.000000,52774.000000
24650.000000,48546.000000,19898.000000,52744.000000
24632.000000,48535.000000,19862.000000,52718.000000
24615.000000,48525.000000,19826.000000,52694.000000
24600.000000,48514.000000,19788.000000,52672.000000
24585.000000,48502.000000,19750.000000,52650.000000
24569.000000,48488.000000,19715.000000,52628.000000
24550.000000,48473.000000,19683.000000,52607.000000
24529.000000,48459.000000,19654.000000,52586.000000
24505.000000,48446.000000,19626.000000,52566.000000
24479.000000,48435.000000,19600.000000,52545.000000
24452.000000,48425.000000,19577.000000,52521.000000
24428.000000,48413.000000,19556.000000,52493.000000
24408.000000,48400.000000,19535.000000,52467.000000
24394.000000,48388.000000,19514.000000,52443.000000
24383.000000,48377.000000,19492.000000,52420.000000
24373.000000,48368.000000,19470.000000,52394.000000
24363.000000,48359.000000,19447.000000,52369.000000
24353.000000,48348.000000,19423.000000,52344.000000
24343.000000,48335.000000,19399.000000,52321.000000
24331.000000,48325.000000,19378.000000,52301.000000
24319.000000,48316.000000,19360.000000,52280.000000
24307.000000,48306.000000,19342.000000,52257.000000
24292.000000,48296.000000,19321.000000,52236.000000
24276.000000,48284.000000,19297.000000,52216.000000
24261.000000,48271.000000,19269.000000,52197.000000
24246.000000,48260.000000,19240.000000,52181.000000
24228.000000,48248.000000,19212.000000,52168.000000
24205.000000,48234.000000,19183.000000,52158.000000
24178.000000,48218.000000,19151.000000,52145.000000
24148.000000,48199.000000,19119.000000,52127.000000
24119.000000,48178.000000,19086.000000,52107.000000
24094.000000,48157.000000,19055.000000,52087.000000
24071.000000,48137.000000,19026.000000,52069.000000
24050.000000,48120.000000,19000.000000,52051.000000
24031.000000,48104.000000,18975.000000,52033.000000
24013.000000,48091.000000,18951.000000,52014.000000
23994.000000,48081.000000,18929.000000,51995.000000
23974.000000,48075.000000,18908.000000,51976.000000
23954.000000,48067.000000,18890.000000,51956.000000
23935.000000,48059.000000,18875.000000,51936.000000
23916.000000,48051.000000,18861.000000,51918.000000
23900.000000,48045.000000,18851.000000,51902.000000
23892.000000,48045.000000,18849.000000,51893.000000
23897.000000,48055.000000,18866.000000,51898.000000
23918.000000,48079.000000,18912.000000,51924.000000
23960.000000,48120.000000,18993.000000,51978.000000
24030.000000,48179.000000,19114.000000,52068.000000
24131.000000,48261.000000,19279.000000,52204.000000
24259.000000,48366.000000,19490.000000,52386.000000
24412.000000,48493.000000,19744.000000,52608.000000
24589.000000,48638.000000,20035.000000,52864.000000
24784.000000,48800.000000,20355.000000,53148.000000
24992.000000,48975.000000,20694.000000,53449.000000
25204.000000,49156.000000,21040.000000,53760.000000
25410.000000,49333.000000,21379.000000,54067.000000
25605.000000,49500.000000,21695.000000,54362.000000
25784.000000,49656.000000,21980.000000,54633.000000
25944.000000,49797.000000,22231.000000,54875.000000
26086.000000,49920.000000,22447.000000,55079.000000
26211.000000,50024.000000,22629.000000,55244.000000
26314.000000,50108.000000,22774.000000,55371.000000
26395.000000,50174.000000,22887.000000,55467.000000
26457.000000,50223.000000,22969.000000,55536.000000
26499.000000,50255.000000,23020.000000,55579.000000
26522.000000,50271.000000,23044.000000,55598.000000
26528.000000,50275.000000,23047.000000,55601.000000
26518.000000,50267.000000,23031.000000,55589.000000
26495.000000,50247.000000,22996.000000,55560.000000
26463.000000,50218.000000,22946.000000,55519.000000
26423.000000,50182.000000,22885.000000,55472.000000
26376.000000,50141.000000,22816.000000,55421.000000
26323.000000,50096.000000,22741.000000,55366.000000
26268.000000,50051.000000,22662.000000,55306.000000
26216.000000,50006.000000,22585.000000,55244.000000
26166.000000,49963.000000,22512.000000,55181.000000
26120.000000,49922.000000,22441.000000,55115.000000
26078.000000,49887.000000,22376.000000,55052.000000
26039.000000,49855.000000,22317.000000,54994.000000
26006.000000,49827.000000,22264.000000,54939.000000
25978.000000,49803.000000,22216.000000,54889.000000
25954.000000,49782.000000,22173.000000,54841.000000
25932.000000,49763.000000,22132.000000,54797.000000
25910.000000,49744.000000,22092.000000,54757.000000
25888.000000,49725.000000,22050.000000,54717.000000
25864.000000,49705.000000,22008.000000,54678.000000
25839.000000,49681.000000,21964.000000,54643.000000
25810.000000,49656.000000,21915.000000,54606.000000
25775.000000,49627.000000,21860.000000,54567.000000
25737.000000,49593.000000,21800.000000,54528.000000
25697.000000,49556.000000,21740.000000,54488.000000
25655.000000,49520.000000,21682.000000,54447.000000
25610.000000,49486.000000,21624.000000,54403.000000
25563.000000,49454.000000,21566.000000,54354.000000
25517.000000,49422.000000,21511.000000,54300.000000
25477.000000,49391.000000,21457.000000,54240.000000
25445.000000,49365.000000,21404.000000,54176.000000
25423.000000,49349.000000,21355.000000,54111.000000
25408.000000,49338.000000,21310.000000,54050.000000
25399.000000,49331.000000,21270.000000,53996.000000
25393.000000,49328.000000,21236.000000,53950.000000
25387.000000,49326.000000,21207.000000,53913.000000
25382.000000,49321.000000,21181.000000,53888.000000
25378.000000,49312.000000,21157.000000,53875.000000
25375.000000,49301.000000,21138.000000,53871.000000
25371.000000,49294.000000,21126.000000,53873.000000
25365.000000,49287.000000,21118.000000,53882.000000
25357.000000,49282.000000,21114.000000,53897.000000
25350.000000,49278.000000,21115.000000,53916.000000
25344.000000,49276.000000,21117.000000,53933.000000
25339.000000,49275.000000,21119.000000,53943.000000
25335.000000,49276.000000,21119.000000,53947.000000
25332.000000,49277.000000,21119.000000,53947.000000
25329.000000,49280.000000,21120.000000,53945.000000
25328.000000,49281.000000,21120.000000,53941.000000
25329.000000,49281.000000,21119.000000,53933.000000
25329.000000,49281.000000,21117.000000,53918.000000
25327.000000,49279.000000,21113.000000,53901.000000
25324.000000,49277.000000,21107.000000,53883.000000
25321.000000,49272.000000,21094.000000,53865.000000
25320.000000,49266.000000,21074.000000,53848.000000
25317.000000,49258.000000,21047.000000,53834.000000
25311.000000,49249.000000,21017.000000,53821.000000
25303.000000,49239.000000,20983.000000,53808.000000
25290.000000,49226.000000,20944.000000,53792.000000
25271.000000,49209.000000,20900.000000,53766.000000
25247.000000,49188.000000,20849.000000,53733.000000
25219.000000,49162.000000,20795.000000,53694.000000
25187.000000,49135.000000,20741.000000,53649.000000
25151.000000,49109.000000,20688.000000,53597.000000
25117.000000,49086.000000,20635.000000,53541.000000
25083.000000,49063.000000,20584.000000,53481.000000
25048.000000,49038.000000,20536.000000,53418.000000
25015.000000,49013.000000,20489.000000,53353.000000
24984.000000,48991.000000,20441.000000,53290.000000
24959.000000,48972.000000,20394.000000,53235.000000
24940.000000,48957.000000,20347.000000,53185.000000
24924.000000,48946.000000,20300.000000,53141.000000
24907.000000,48935.000000,20253.000000,53099.000000
24889.000000,48921.000000,20204.000000,53060.000000
24867.000000,48903.000000,20152.000000,53024.000000
24843.000000,48882.000000,20100.000000,52993.000000
24815.000000,48858.000000,20051.000000,52963.000000
24785.000000,48835.000000,20006.000000,52934.000000
24753.000000,48811.000000,19964.000000,52905.000000
24719.000000,48785.000000,19922.000000,52878.000000
24685.000000,48758.000000,19880.000000,52851.000000
24651.000000,48731.000000,19838.000000,52821.000000
24618.000000,48704.000000,19798.000000,52791.000000
24588.000000,48678.000000,19761.000000,52757.000000
24561.000000,48656.000000,19727.000000,52721.000000
24539.000000,48638.000000,19697.000000,52682.000000
24521.000000,48624.000000,19670.000000,52644.000000
24505.000000,48612.000000,19647.000000,52610.000000
24491.000000,48601.000000,19626.000000,52582.000000
24478.000000,48589.000000,19607.000000,52560.000000
24469.000000,48579.000000,19587.000000,52544.000000
24464.000000,48573.000000,19568.000000,52533.000000
24461.000000,48572.000000,19553.000000,52523.000000
24458.000000,48573.000000,19542.000000,52515.000000
24452.000000,48572.000000,19530.000000,52510.000000
24440.000000,48564.000000,19514.000000,52506.000000
24423.000000,48552.000000,19494.000000,52498.000000
24403.000000,48537.000000,19472.000000,52490.000000
24382.000000,48520.000000,19449.000000,52477.000000
24358.000000,48498.000000,19423.000000,52460.000000
24332.000000,48474.000000,19396.000000,52440.000000
24305.000000,48453.000000,19368.000000,52419.000000
24282.000000,48437.000000,19340.000000,52397.000000
24264.000000,48424.000000,19311.000000,52372.000000
24250.000000,48413.000000,19285.000000,52347.000000
24239.000000,48400.000000,19261.000000,52322.000000
24230.000000,48392.000000,19241.000000,52297.000000
24223.000000,48388.000000,19224.000000,52272.000000
24216.000000,48389.000000,19209.000000,52247.000000
24208.000000,48388.000000,19196.000000,52220.000000
24199.000000,48385.000000,19184.000000,52192.000000
24189.000000,48377.000000,19174.000000,52168.000000
24178.000000,48364.000000,19162.000000,52147.000000
24169.000000,48350.000000,19147.000000,52125.000000
24160.000000,48336.000000,19131.000000,52102.000000
24150.000000,48323.000000,19115.000000,52085.000000
24141.000000,48314.000000,19103.000000,52079.000000
24136.000000,48309.000000,19099.000000,52088.000000
24138.000000,48311.000000,19109.000000,52113.000000
24152.000000,48325.000000,19138.000000,52157.000000
24183.000000,48356.000000,19195.000000,52224.000000
24239.000000,48407.000000,19293.000000,52323.000000
24324.000000,48483.000000,19441.000000,52462.000000
24440.000000,48584.000000,19641.000000,52642.000000
24582.000000,48708.000000,19886.000000,52859.000000
24749.000000,48852.000000,20169.000000,53109.000000
24935.000000,49012.000000,20485.000000,53390.000000
25136.000000,49183.000000,20825.000000,53692.000000
25345.000000,49361.000000,21179.000000,54006.000000
25554.000000,49540.000000,21530.000000,54319.000000
25755.000000,49714.000000,21865.000000,54620.000000
25940.000000,49877.000000,22173.000000,54897.000000
26109.000000,50026.000000,22449.000000,55144.000000
26259.000000,50156.000000,22688.000000,55357.000000
26390.000000,50267.000000,22890.000000,55536.000000
26499.000000,50358.000000,23056.000000,55681.000000
26584.000000,50429.000000,23186.000000,55794.000000
26646.000000,50481.000000,23281.000000,55881.000000
26687.000000,50515.000000,23343.000000,55944.000000
26709.000000,50533.000000,23377.000000,55977.000000
26716.000000,50539.000000,23388.000000,55984.000000
26710.000000,50534.000000,23379.000000,55971.000000
26695.000000,50520.000000,23352.000000,55941.000000
26673.000000,50500.000000,23313.000000,55901.000000
26647.000000,50478.000000,23266.000000,55852.000000
26619.000000,50453.000000,23209.000000,55796.000000
26588.000000,50426.000000,23146.000000,55741.000000
26555.000000,50399.000000,23082.000000,55690.000000
26521.000000,50372.000000,23018.000000,55648.000000
26488.000000,50345.000000,22953.000000,55613.000000
26454.000000,50320.000000,22888.000000,55582.000000
26419.000000,50294.000000,22827.000000,55551.000000
26383.000000,50263.000000,22773.000000,55519.000000
26347.000000,50230.000000,22721.000000,55483.000000
26310.000000,50193.000000,22672.000000,55441.000000
26273.000000,50159.000000,22624.000000,55397.000000
26236.000000,50128.000000,22576.000000,55355.000000
26199.000000,50101.000000,22529.000000,55312.000000
26163.000000,50074.000000,22484.000000,55269.000000
26129.000000,50048.000000,22446.000000,55228.000000
26098.000000,50020.000000,22412.000000,55190.000000
26066.000000,49989.000000,22380.000000,55151.000000
26037.000000,49959.000000,22346.000000,55105.000000
26012.000000,49934.000000,22311.000000,55053.000000
25993.000000,49914.000000,22276.000000,55006.000000
25975.000000,49899.000000,22246.000000,54964.000000
25959.000000,49886.000000,22217.000000,54924.000000
25941.000000,49874.000000,22184.000000,54884.000000
25920.000000,49859.000000,22145.000000,54843.000000
25897.000000,49841.000000,22099.000000,54802.000000
25874.000000,49823.000000,22050.000000,54766.000000
25851.000000,49807.000000,21998.000000,54733.000000
25828.000000,49791.000000,21946.000000,54699.000000
25804.000000,49773.000000,21895.000000,54662.000000
25779.000000,49754.000000,21845.000000,54625.000000
25752.000000,49732.000000,21796.000000,54591.000000
25724.000000,49707.000000,21749.000000,54561.000000
25699.000000,49681.000000,21704.000000,54536.000000
25678.000000,49659.000000,21661.000000,54516.000000
25662.000000,49642.000000,21626.000000,54495.000000
25650.000000,49630.000000,21599.000000,54475.000000
25641.000000,49622.000000,21577.000000,54455.000000
25636.000000,49613.000000,21557.000000,54436.000000
25632.000000,49605.000000,21543.000000,54416.000000
25630.000000,49602.000000,21533.000000,54397.000000
25632.000000,49604.000000,21531.000000,54380.000000
25636.000000,49609.000000,21532.000000,54367.000000
25642.000000,49615.000000,21534.000000,54356.000000
25648.000000,49621.000000,21536.000000,54346.000000
25652.000000,49626.000000,21540.000000,54336.000000
25654.000000,49630.000000,21543.000000,54321.000000
25650.000000,49631.000000,21540.000000,54302.000000
25641.000000,49625.000000,21528.000000,54283.000000
25629.000000,49614.000000,21509.000000,54266.000000
25614.000000,49601.000000,21486.000000,54249.000000
25596.000000,49588.000000,21459.000000,54230.000000
25576.000000,49575.000000,21426.000000,54209.000000
25558.000000,49559.000000,21389.000000,54182.000000
25541.000000,49542.000000,21350.000000,54150.000000
25525.000000,49526.000000,21311.000000,54116.000000
25507.000000,49513.000000,21272.000000,54082.000000
25491.000000,49501.000000,21231.000000,54046.000000
25475.000000,49485.000000,21188.000000,54010.000000
25460.000000,49466.000000,21142.000000,53975.000000
25441.000000,49444.000000,21091.000000,53939.000000
25415.000000,49425.000000,21035.000000,53904.000000
25386.000000,49406.000000,20977.000000,53868.000000
25355.000000,49386.000000,20917.000000,53830.000000
25322.000000,49363.000000,20859.000000,53794.000000
25288.000000,49340.000000,20806.000000,53759.000000
25254.000000,49318.000000,20757.000000,53722.000000
25221.000000,49295.000000,20707.000000,53682.000000
25187.000000,49271.000000,20658.000000,53635.000000
25151.000000,49246.000000,20610.000000,53583.000000
25116.000000,49219.000000,20563.000000,53530.000000
25084.000000,49191.000000,20515.000000,53478.000000
25056.000000,49165.000000,20470.000000,53426.000000
25028.000000,49141.000000,20429.000000,53372.000000
25005.000000,49118.000000,20391.000000,53319.000000
24986.000000,49099.000000,20355.000000,53272.000000
24973.000000,49083.000000,20321.000000,53232.000000
24963.000000,49068.000000,20288.000000,53196.000000
24950.000000,49052.000000,20255.000000,53166.000000
24932.000000,49036.000000,20222.000000,53143.000000
24907.000000,49017.000000,20188.000000,53124.000000
24877.000000,48999.000000,20153.000000,53104.000000
24845.000000,48977.000000,20115.000000,53079.000000
24810.000000,48949.000000,20073.000000,53053.000000
24771.000000,48921.000000,20030.000000,53027.000000
24733.000000,48896.000000,19992.000000,53002.000000
24700.000000,48876.000000,19960.000000,52981.000000
24673.000000,48858.000000,19933.000000,52966.000000
24654.000000,48844.000000,19908.000000,52953.000000
24643.000000,48833.000000,19888.000000,52940.000000
24637.000000,48823.000000,19869.000000,52927.000000
24634.000000,48813.000000,19849.000000,52913.000000
24633.000000,48808.000000,19831.000000,52892.000000
24631.000000,48808.000000,19816.000000,52867.000000
24624.000000,48807.000000,19803.000000,52839.000000
24611.000000,48802.000000,19791.000000,52815.000000
24597.000000,48791.000000,19779.000000,52792.000000
24582.000000,48777.000000,19767.000000,52767.000000
24566.000000,48763.000000,19753.000000,52744.000000
24548.000000,48749.000000,19739.000000,52726.000000
24529.000000,48736.000000,19722.000000,52714.000000
24509.000000,48723.000000,19700.000000,52706.000000
24489.000000,48713.000000,19679.000000,52702.000000
24470.000000,48703.000000,19658.000000,52697.000000
24452.000000,48693.000000,19636.000000,52692.000000
24434.000000,48684.000000,19612.000000,52682.000000
24419.000000,48677.000000,19587.000000,52670.000000
24404.000000,48669.000000,19559.000000,52659.000000
24391.000000,48659.000000,19530.000000,52647.000000
24376.000000,48644.000000,19498.000000,52629.000000
24359.000000,48625.000000,19466.000000,52611.000000
24338.000000,48603.000000,19438.000000,52597.000000
24316.000000,48581.000000,19413.000000,52583.000000
24292.000000,48558.000000,19393.000000,52564.000000
24270.000000,48539.000000,19378.000000,52540.000000
24256.000000,48528.000000,19372.000000,52517.000000
24254.000000,48526.000000,19380.000000,52505.000000
24266.000000,48538.000000,19410.000000,52507.000000
24294.000000,48568.000000,19472.000000,52530.000000
24345.000000,48620.000000,19573.000000,52589.000000
24424.000000,48696.000000,19719.000000,52692.000000
24533.000000,48799.000000,19912.000000,52848.000000
24674.000000,48925.000000,20152.000000,53055.000000
24846.000000,49070.000000,20435.000000,53306.000000
25044.000000,49232.000000,20753.000000,53595.000000
25258.000000,49405.000000,21095.000000,53914.000000
25478.000000,49583.000000,21451.000000,54252.000000
25697.000000,49761.000000,21806.000000,54596.000000
25910.000000,49936.000000,22152.000000,54932.000000
26110.000000,50103.000000,22479.000000,55249.000000
26294.000000,50260.000000,22778.000000,55537.000000
26459.000000,50403.000000,23044.000000,55789.000000
26605.000000,50532.000000,23275.000000,56003.000000
26729.000000,50643.000000,23468.000000,56180.000000
26831.000000,50734.000000,23621.000000,56319.000000
26910.000000,50805.000000,23739.000000,56419.000000
26969.000000,50856.000000,23822.000000,56484.000000
27007.000000,50890.000000,23871.000000,56518.000000
27028.000000,50911.000000,23892.000000,56528.000000
27037.000000,50919.000000,23894.000000,56523.000000
27035.000000,50915.000000,23881.000000,56508.000000
27024.000000,50902.000000,23855.000000,56484.000000
27007.000000,50885.000000,23820.000000,56454.000000
26983.000000,50864.000000,23775.000000,56419.000000
26955.000000,50838.000000,23723.000000,56382.000000
26923.000000,50808.000000,23669.000000,56343.000000
26890.000000,50776.000000,23616.000000,56303.000000
26858.000000,50744.000000,23563.000000,56261.000000
26826.000000,50714.000000,23510.000000,56216.000000
26798.000000,50683.000000,23458.000000,56168.000000
26774.000000,50655.000000,23412.000000,56124.000000
26755.000000,50629.000000,23370.000000,56085.000000
26739.000000,50607.000000,23334.000000,56050.000000
26726.000000,50590.000000,23306.000000,56018.000000
26716.000000,50579.000000,23284.000000,55989.000000
26708.000000,50572.000000,23264.000000,55960.000000
26703.000000,50569.000000,23247.000000,55931.000000
26699.000000,50567.000000,23232.000000,55904.000000
26696.000000,50566.000000,23219.000000,55883.000000
26694.000000,50567.000000,23207.000000,55866.000000
26693.000000,50566.000000,23194.000000,55853.000000
26691.000000,50563.000000,23179.000000,55844.000000
26688.000000,50556.000000,23161.000000,55841.000000
26683.000000,50549.000000,23144.000000,55842.000000
26675.000000,50541.000000,23126.000000,55839.000000
26662.000000,50528.000000,23104.000000,55828.000000
26647.000000,50511.000000,23074.000000,55806.000000
26631.000000,50493.000000,23037.000000,55776.000000
26612.000000,50473.000000,22993.000000,55741.000000
26590.000000,50450.000000,22947.000000,55702.000000
26563.000000,50425.000000,22900.000000,55659.000000
26533.000000,50399.000000,22851.000000,55611.000000
26504.000000,50374.000000,22803.000000,55559.000000
26476.000000,50351.000000,22757.000000,55505.000000
26449.000000,50329.000000,22713.000000,55451.000000
26423.000000,50307.000000,22669.000000,55394.000000
26397.000000,50287.000000,22628.000000,55336.000000
26372.000000,50269.000000,22588.000000,55282.000000
26349.000000,50252.000000,22550.000000,55231.000000
26328.000000,50233.000000,22514.000000,55184.000000
26312.000000,50215.000000,22483.000000,55146.000000
26299.000000,50200.000000,22453.000000,55116.000000
26288.000000,50188.000000,22427.000000,55092.000000
26278.000000,50179.000000,22406.000000,55076.000000
26270.000000,50173.000000,22388.000000,55066.000000
26266.000000,50169.000000,22375.000000,55061.000000
26267.000000,50165.000000,22366.000000,55057.000000
26269.000000,50158.000000,22357.000000,55055.000000
26268.000000,50153.000000,22347.000000,55056.000000
26268.000000,50149.000000,22336.000000,55059.000000
26265.000000,50146.000000,22325.000000,55060.000000
26260.000000,50141.000000,22314.000000,55057.000000
26253.000000,50133.000000,22301.000000,55054.000000
26247.000000,50124.000000,22284.000000,55047.000000
26237.000000,50116.000000,22264.000000,55037.000000
26220.000000,50105.000000,22241.000000,55022.000000
26200.000000,50089.000000,22215.000000,55001.000000
26178.000000,50073.000000,22185.000000,54972.000000
26158.000000,50058.000000,22150.000000,54937.000000
26139.000000,50043.000000,22109.000000,54895.000000
26115.000000,50023.000000,22063.000000,54845.000000
26087.000000,49999.000000,22013.000000,54790.000000
26057.000000,49973.000000,21963.000000,54733.000000
26027.000000,49948.000000,21912.000000,54675.000000
25998.000000,49924.000000,21859.000000,54621.000000
25971.000000,49900.000000,21804.000000,54566.000000
25946.000000,49878.000000,21747.000000,54510.000000
25920.000000,49855.000000,21688.000000,54450.000000
25890.000000,49830.000000,21627.000000,54390.000000
25861.000000,49803.000000,21566.000000,54336.000000
25830.000000,49774.000000,21505.000000,54289.000000
25795.000000,49743.000000,21444.000000,54244.000000
25756.000000,49711.000000,21386.000000,54203.000000
25717.000000,49676.000000,21329.000000,54164.000000
25681.000000,49640.000000,21270.000000,54128.000000
25649.000000,49608.000000,21211.000000,54089.000000
25619.000000,49582.000000,21154.000000,54043.000000
25590.000000,49559.000000,21100.000000,53992.000000
25564.000000,49538.000000,21051.000000,53939.000000
25540.000000,49516.000000,21007.000000,53886.000000
25520.000000,49494.000000,20965.000000,53833.000000
25502.000000,49471.000000,20924.000000,53780.000000
25486.000000,49448.000000,20885.000000,53730.000000
25471.000000,49424.000000,20848.000000,53686.000000
25456.000000,49401.000000,20812.000000,53648.000000
25441.000000,49382.000000,20776.000000,53616.000000
25425.000000,49364.000000,20739.000000,53588.000000
25407.000000,49347.000000,20701.000000,53564.000000
25388.000000,49327.000000,20663.000000,53547.000000
25367.000000,49306.000000,20624.000000,53529.000000
25343.000000,49284.000000,20582.000000,53506.000000
25319.000000,49263.000000,20541.000000,53484.000000
25293.000000,49242.000000,20502.000000,53464.000000
25268.000000,49221.000000,20466.000000,53440.000000
25240.000000,49201.000000,20433.000000,53410.000000
25210.000000,49184.000000,20403.000000,53372.000000
25177.000000,49170.000000,20377.000000,53329.000000
25142.000000,49157.000000,20353.000000,53281.000000
25110.000000,49142.000000,20328.000000,53235.000000
25081.000000,49129.000000,20304.000000,53195.000000
25059.000000,49117.000000,20281.000000,53163.000000
25041.000000,49105.000000,20258.000000,53137.000000
25022.000000,49092.000000,20236.000000,53118.000000
25002.000000,49079.000000,20214.000000,53102.000000
24979.000000,49065.000000,20190.000000,53088.000000
24954.000000,49047.000000,20160.000000,53077.000000
24929.000000,49029.000000,20130.000000,53071.000000
24905.000000,49009.000000,20101.000000,53066.000000
24882.000000,48992.000000,20070.000000,53059.000000
24860.000000,48979.000000,20042.000000,53046.000000
24842.000000,48966.000000,20015.000000,53031.000000
24828.000000,48952.000000,19989.000000,53014.000000
24817.000000,48940.000000,19967.000000,52995.000000
24806.000000,48930.000000,19946.000000,52971.000000
24793.000000,48921.000000,19926.000000,52945.000000
24781.000000,48915.000000,19909.000000,52922.000000
24770.000000,48910.000000,19891.000000,52901.000000
24760.000000,48901.000000,19870.000000,52881.000000
24748.000000,48885.000000,19846.000000,52864.000000
24732.000000,48868.000000,19820.000000,52845.000000
24712.000000,48851.000000,19791.000000,52823.000000
24688.000000,48835.000000,19759.000000,52800.000000
24664.000000,48822.000000,19728.000000,52776.000000
24642.000000,48811.000000,19700.000000,52753.000000
24624.000000,48803.000000,19677.000000,52730.000000
24613.000000,48801.000000,19666.000000,52716.000000
24617.000000,48806.000000,19675.000000,52724.000000
24642.000000,48826.000000,19713.000000,52758.000000
24691.000000,48867.000000,19790.000000,52823.000000
24768.000000,48933.000000,19915.000000,52928.000000
24873.000000,49024.000000,20093.000000,53077.000000
25007.000000,49144.000000,20325.000000,53267.000000
25171.000000,49291.000000,20607.000000,53498.000000
25365.000000,49460.000000,20933.000000,53770.000000
25581.000000,49646.000000,21289.000000,54075.000000
25809.000000,49843.000000,21663.000000,54405.000000
26042.000000,50044.000000,22039.000000,54746.000000
26269.000000,50239.000000,22406.000000,55089.000000
26485.000000,50423.000000,22752.000000,55418.000000
26687.000000,50594.000000,23068.000000,55720.000000
26871.000000,50750.000000,23348.000000,55986.000000
27036.000000,50889.000000,23595.000000,56215.000000
27178.000000,51006.000000,23808.000000,56405.000000
27296.000000,51102.000000,23984.000000,56560.000000
27393.000000,51177.000000,24122.000000,56680.000000
27469.000000,51233.000000,24223.000000,56767.000000
27523.000000,51273.000000,24289.000000,56822.000000
27554.000000,51297.000000,24327.000000,56847.000000
27568.000000,51306.000000,24342.000000,56850.000000
27568.000000,51303.000000,24341.000000,56837.000000
27559.000000,51293.000000,24324.000000,56813.000000
27541.000000,51281.000000,24293.000000,56786.000000
27517.000000,51263.000000,24252.000000,56759.000000
27488.000000,51240.000000,24206.000000,56729.000000
27456.000000,51213.000000,24157.000000,56695.000000
27422.000000,51184.000000,24103.000000,56659.000000
27384.000000,51150.000000,24047.000000,56621.000000
27349.000000,51114.000000,23991.000000,56582.000000
27318.000000,51081.000000,23940.000000,56543.000000
27290.000000,51049.000000,23894.000000,56505.000000
27265.000000,51020.000000,23852.000000,56469.000000
27244.000000,50994.000000,23816.000000,56432.000000
27228.000000,50972.000000,23785.000000,56397.000000
27217.000000,50955.000000,23758.000000,56367.000000
27205.000000,50941.000000,23734.000000,56341.000000
27192.000000,50931.000000,23714.000000,56318.000000
27180.000000,50921.000000,23696.000000,56298.000000
27171.000000,50911.000000,23680.000000,56280.000000
27165.000000,50904.000000,23665.000000,56263.000000
27161.000000,50902.000000,23654.000000,56243.000000
27155.000000,50902.000000,23647.000000,56220.000000
27146.000000,50902.000000,23640.000000,56202.000000
27134.000000,50905.000000,23630.000000,56190.000000
27121.000000,50906.000000,23617.000000,56178.000000
27106.000000,50902.000000,23600.000000,56165.000000
27089.000000,50895.000000,23577.000000,56156.000000
27073.000000,50883.000000,23550.000000,56146.000000
27056.000000,50865.000000,23518.000000,56130.000000
27036.000000,50843.000000,23476.000000,56101.000000
27010.000000,50817.000000,23426.000000,56059.000000
26980.000000,50788.000000,23369.000000,56011.000000
26946.000000,50753.000000,23311.000000,55962.000000
26911.000000,50717.000000,23252.000000,55912.000000
26877.000000,50681.000000,23193.000000,55865.000000
26843.000000,50647.000000,23134.000000,55819.000000
26810.000000,50615.000000,23078.000000,55773.000000
26776.000000,50586.000000,23022.000000,55723.000000
26742.000000,50561.000000,22967.000000,55668.000000
26707.000000,50541.000000,22921.000000,55610.000000
26673.000000,50523.000000,22883.000000,55552.000000
26643.000000,50506.000000,22850.000000,55497.000000
26620.000000,50490.000000,22821.000000,55445.000000
26601.000000,50477.000000,22794.000000,55404.000000
26584.000000,50465.000000,22770.000000,55376.000000
26572.000000,50453.000000,22753.000000,55358.000000
26566.000000,50446.000000,22739.000000,55346.000000
26567.000000,50440.000000,22728.000000,55340.000000
26571.000000,50436.000000,22718.000000,55340.000000
26577.000000,50433.000000,22707.000000,55337.000000
26580.000000,50429.000000,22693.000000,55330.000000
26581.000000,50423.000000,22678.000000,55318.000000
26580.000000,50417.000000,22660.000000,55305.000000
26578.000000,50410.000000,22639.000000,55293.000000
26576.000000,50403.000000,22615.000000,55282.000000
26573.000000,50393.000000,22589.000000,55268.000000
26567.000000,50382.000000,22562.000000,55253.000000
26559.000000,50369.000000,22531.000000,55237.000000
26547.000000,50355.000000,22496.000000,55216.000000
26531.000000,50341.000000,22457.000000,55187.000000
26513.000000,50328.000000,22415.000000,55154.000000
26494.000000,50315.000000,22369.000000,55115.000000
26474.000000,50301.000000,22322.000000,55065.000000
26450.000000,50286.000000,22277.000000,55010.000000
26423.000000,50269.000000,22233.000000,54954.000000
26394.000000,50249.000000,22188.000000,54899.000000
26365.000000,50226.000000,22142.000000,54843.000000
26334.000000,50200.000000,22092.000000,54786.000000
26301.000000,50174.000000,22037.000000,54729.000000
26266.000000,50148.000000,21975.000000,54673.000000
26231.000000,50120.000000,21909.000000,54615.000000
26194.000000,50090.000000,21844.000000,54556.000000
26154.000000,50058.000000,21784.000000,54497.000000
26110.000000,50026.000000,21727.000000,54439.000000
26062.000000,49995.000000,21673.000000,54387.000000
26011.000000,49964.000000,21620.000000,54342.000000
25967.000000,49936.000000,21566.000000,54302.000000
25932.000000,49910.000000,21511.000000,54267.000000
25900.000000,49884.000000,21458.000000,54235.000000
25868.000000,49858.000000,21406.000000,54202.000000
25839.000000,49833.000000,21357.000000,54167.000000
25814.000000,49811.000000,21311.000000,54130.000000
25793.000000,49790.000000,21267.000000,54093.000000
25774.000000,49767.000000,21224.000000,54056.000000
25754.000000,49746.000000,21183.000000,54018.000000
25736.000000,49730.000000,21144.000000,53976.000000
25719.000000,49713.000000,21106.000000,53933.000000
25702.000000,49696.000000,21071.000000,53892.000000
25687.000000,49679.000000,21037.000000,53856.000000
25676.000000,49664.000000,21002.000000,53830.000000
25664.000000,49650.000000,20968.000000,53806.000000
25653.000000,49635.000000,20935.000000,53777.000000
25641.000000,49619.000000,20900.000000,53746.000000
25629.000000,49601.000000,20862.000000,53715.000000
25614.000000,49582.000000,20826.000000,53687.000000
25596.000000,49561.000000,20793.000000,53661.000000
25580.000000,49544.000000,20763.000000,53638.000000
25564.000000,49528.000000,20735.000000,53619.000000
25544.000000,49513.000000,20708.000000,53603.000000
25521.000000,49496.000000,20683.000000,53591.000000
25496.000000,49479.000000,20656.000000,53577.000000
25469.000000,49463.000000,20626.000000,53557.000000
25445.000000,49448.000000,20594.000000,53533.000000
25425.000000,49437.000000,20562.000000,53503.000000
25409.000000,49427.000000,20533.000000,53473.000000
25395.000000,49417.000000,20506.000000,53443.000000
25380.000000,49407.000000,20481.000000,53413.000000
25366.000000,49400.000000,20458.000000,53387.000000
25353.000000,49392.000000,20437.000000,53363.000000
25336.000000,49385.000000,20418.000000,53341.000000
25319.000000,49377.000000,20401.000000,53314.000000
25304.000000,49369.000000,20383.000000,53283.000000
25290.000000,49360.000000,20364.000000,53248.000000
25278.000000,49353.000000,20343.000000,53217.000000
25267.000000,49344.000000,20324.000000,53192.000000
25255.000000,49333.000000,20307.000000,53175.000000
25245.000000,49322.000000,20292.000000,53164.000000
25233.000000,49313.000000,20275.000000,53152.000000
25220.000000,49306.000000,20254.000000,53137.000000
25209.000000,49299.000000,20229.000000,53121.000000
25200.000000,49292.000000,20202.000000,53107.000000
25192.000000,49287.000000,20172.000000,53094.000000
25181.000000,49281.000000,20139.000000,53081.000000
25168.000000,49272.000000,20104.000000,53071.000000
25154.000000,49258.000000,20071.000000,53063.000000
25139.000000,49240.000000,20041.000000,53054.000000
25124.000000,49223.000000,20011.000000,53043.000000
25110.000000,49207.000000,19983.000000,53028.000000
25095.000000,49190.000000,19957.000000,53006.000000
25079.000000,49173.000000,19933.000000,52976.000000
25064.000000,49156.000000,19909.000000,52943.000000
25046.000000,49140.000000,19884.000000,52908.000000
25025.000000,49123.000000,19859.000000,52875.000000
25003.000000,49107.000000,19834.000000,52840.000000
24984.000000,49094.000000,19814.000000,52807.000000
24971.000000,49088.000000,19807.000000,52782.000000
24970.000000,49094.000000,19822.000000,52776.000000
24990.000000,49118.000000,19868.000000,52805.000000
