660nm,730nm,850nm,940nm
26571.000000,7851.000000,28535.000000,38469.000000
26525.000000,7834.000000,28492.000000,38437.000000
26507.000000,7819.000000,28450.000000,38408.000000
26493.000000,7807.000000,28411.000000,38384.000000
26451.000000,7791.000000,28373.000000,38354.000000
26404.000000,7772.000000,28334.000000,38310.000000
26381.000000,7753.000000,28298.000000,38263.000000
26357.000000,7733.000000,28266.000000,38220.000000
26311.000000,7711.000000,28239.000000,38175.000000
26267.000000,7691.000000,28210.000000,38127.000000
26246.000000,7671.000000,28178.000000,38088.000000
26220.000000,7649.000000,28145.000000,38056.000000
26176.000000,7628.000000,28110.000000,38024.000000
26142.000000,7608.000000,28075.000000,37991.000000
26131.000000,7592.000000,28043.000000,37962.000000
26113.000000,7582.000000,28017.000000,37935.000000
26074.000000,7574.000000,27993.000000,37899.000000
26047.000000,7564.000000,27967.000000,37856.000000
26039.000000,7554.000000,27941.000000,37819.000000
26019.000000,7544.000000,27914.000000,37789.000000
25980.000000,7532.000000,27881.000000,37759.000000
25956.000000,7516.000000,27843.000000,37727.000000
25949.000000,7502.000000,27807.000000,37695.000000
25926.000000,7492.000000,27774.000000,37669.000000
25886.000000,7483.000000,27743.000000,37639.000000
25866.000000,7477.000000,27716.000000,37604.000000
25859.000000,7469.000000,27689.000000,37567.000000
25832.000000,7460.000000,27660.000000,37528.000000
25788.000000,7448.000000,27629.000000,37490.000000
25761.000000,7432.000000,27593.000000,37455.000000
25745.000000,7418.000000,27552.000000,37426.000000
25708.000000,7401.000000,27510.000000,37401.000000
25659.000000,7381.000000,27464.000000,37368.000000
25630.000000,7364.000000,27418.000000,37325.000000
25610.000000,7351.000000,27375.000000,37277.000000
25566.000000,7336.000000,27331.000000,37226.000000
25510.000000,7316.000000,27285.000000,37168.000000
25469.000000,7294.000000,27234.000000,37106.000000
25431.000000,7271.000000,27180.000000,37047.000000
25371.000000,7246.000000,27124.000000,36994.000000
25311.000000,7220.000000,27068.000000,36938.000000
25285.000000,7202.000000,27018.000000,36882.000000
25271.000000,7192.000000,26979.000000,36835.000000
25244.000000,7186.000000,26953.000000,36804.000000
25231.000000,7189.000000,26948.000000,36787.000000
25266.000000,7207.000000,26978.000000,36796.000000
25330.000000,7239.000000,27045.000000,36848.000000
25403.000000,7285.000000,27146.000000,36943.000000
25508.000000,7344.000000,27280.000000,37077.000000
25668.000000,7419.000000,27445.000000,37250.000000
25851.000000,7508.000000,27641.000000,37462.000000
26034.000000,7607.000000,27863.000000,37705.000000
26237.000000,7711.000000,28103.000000,37958.000000
26473.000000,7820.000000,28357.000000,38216.000000
26705.000000,7935.000000,28622.000000,38480.000000
26911.000000,8050.000000,28888.000000,38741.000000
27119.000000,8159.000000,29142.000000,38992.000000
27338.000000,8259.000000,29379.000000,39240.000000
27537.000000,8351.000000,29602.000000,39484.000000
27702.000000,8436.000000,29809.000000,39715.000000
27864.000000,8512.000000,29999.000000,39929.000000
28027.000000,8583.000000,30173.000000,40121.000000
28158.000000,8649.000000,30331.000000,40289.000000
28254.000000,8705.000000,30471.000000,40433.000000
28348.000000,8749.000000,30591.000000,40549.000000
28437.000000,8782.000000,30693.000000,40646.000000
28483.000000,8803.000000,30774.000000,40725.000000
28492.000000,8813.000000,30831.000000,40789.000000
28505.000000,8816.000000,30867.000000,40840.000000
28526.000000,8817.000000,30889.000000,40880.000000
28524.000000,8815.000000,30898.000000,40911.000000
28504.000000,8810.000000,30894.000000,40924.000000
28499.000000,8802.000000,30883.000000,40916.000000
28498.000000,8793.000000,30865.000000,40898.000000
28470.000000,8782.000000,30841.000000,40875.000000
28426.000000,8768.000000,30812.000000,40844.000000
28402.000000,8755.000000,30781.000000,40810.000000
28389.000000,8744.000000,30747.000000,40785.000000
28358.000000,8733.000000,30714.000000,40768.000000
28321.000000,8721.000000,30681.000000,40751.000000
28303.000000,8707.000000,30650.000000,40728.000000
28290.000000,8694.000000,30621.000000,40703.000000
28256.000000,8683.000000,30594.000000,40672.000000
28218.000000,8671.000000,30564.000000,40630.000000
28204.000000,8660.000000,30531.000000,40580.000000
28192.000000,8650.000000,30493.000000,40528.000000
28151.000000,8635.000000,30449.000000,40482.000000
28103.000000,8615.000000,30398.000000,40439.000000
28076.000000,8595.000000,30342.000000,40401.000000
28050.000000,8574.000000,30284.000000,40372.000000
28003.000000,8551.000000,30227.000000,40342.000000
27960.000000,8528.000000,30169.000000,40301.000000
27941.000000,8509.000000,30114.000000,40254.000000
27916.000000,8495.000000,30068.000000,40206.000000
27867.000000,8480.000000,30030.000000,40154.000000
27821.000000,8465.000000,29995.000000,40099.000000
27798.000000,8453.000000,29963.000000,40052.000000
27775.000000,8447.000000,29936.000000,40021.000000
27739.000000,8439.000000,29913.000000,39994.000000
27718.000000,8428.000000,29893.000000,39965.000000
27726.000000,8422.000000,29883.000000,39943.000000
27731.000000,8421.000000,29882.000000,39936.000000
27725.000000,8423.000000,29889.000000,39937.000000
27737.000000,8428.000000,29902.000000,39939.000000
27770.000000,8437.000000,29917.000000,39953.000000
27786.000000,8447.000000,29932.000000,39975.000000
27786.000000,8455.000000,29946.000000,39998.000000
27805.000000,8465.000000,29960.000000,40021.000000
27845.000000,8479.000000,29978.000000,40047.000000
27869.000000,8495.000000,29994.000000,40078.000000
27875.000000,8507.000000,30006.000000,40101.000000
27897.000000,8516.000000,30015.000000,40108.000000
27929.000000,8523.000000,30024.000000,40114.000000
27939.000000,8528.000000,30035.000000,40120.000000
27933.000000,8528.000000,30042.000000,40116.000000
27939.000000,8526.000000,30043.000000,40107.000000
27951.000000,8523.000000,30039.000000,40103.000000
27938.000000,8518.000000,30030.000000,40102.000000
27910.000000,8511.000000,30016.000000,40093.000000
27905.000000,8505.000000,29999.000000,40077.000000
27911.000000,8500.000000,29983.000000,40062.000000
27894.000000,8494.000000,29964.000000,40048.000000
27862.000000,8483.000000,29938.000000,40029.000000
27843.000000,8467.000000,29901.000000,40002.000000
27824.000000,8449.000000,29856.000000,39960.000000
27773.000000,8426.000000,29810.000000,39908.000000
27714.000000,8399.000000,29760.000000,39860.000000
27673.000000,8371.000000,29703.000000,39816.000000
27634.000000,8347.000000,29641.000000,39770.000000
27574.000000,8323.000000,29580.000000,39716.000000
27509.000000,8297.000000,29520.000000,39654.000000
27463.000000,8274.000000,29459.000000,39585.000000
27417.000000,8252.000000,29398.000000,39514.000000
27348.000000,8228.000000,29332.000000,39441.000000
27279.000000,8199.000000,29262.000000,39368.000000
27229.000000,8170.000000,29192.000000,39299.000000
27171.000000,8141.000000,29126.000000,39233.000000
27095.000000,8113.000000,29061.000000,39168.000000
27031.000000,8086.000000,28996.000000,39101.000000
26996.000000,8064.000000,28934.000000,39031.000000
26957.000000,8045.000000,28876.000000,38959.000000
26899.000000,8023.000000,28820.000000,38893.000000
26850.000000,7998.000000,28762.000000,38831.000000
26819.000000,7975.000000,28703.000000,38778.000000
26772.000000,7952.000000,28647.000000,38740.000000
26708.000000,7929.000000,28593.000000,38706.000000
26662.000000,7908.000000,28539.000000,38669.000000
26639.000000,7891.000000,28491.000000,38633.000000
26606.000000,7875.000000,28448.000000,38593.000000
26554.000000,7856.000000,28405.000000,38542.000000
26516.000000,7836.000000,28363.000000,38481.000000
26493.000000,7815.000000,28319.000000,38421.000000
26456.000000,7794.000000,28271.000000,38368.000000
26406.000000,7770.000000,28218.000000,38315.000000
26375.000000,7747.000000,28165.000000,38264.000000
26361.000000,7726.000000,28119.000000,38226.000000
26328.000000,7708.000000,28080.000000,38198.000000
26285.000000,7692.000000,28046.000000,38168.000000
26264.000000,7682.000000,28017.000000,38134.000000
26256.000000,7678.000000,27993.000000,38098.000000
26227.000000,7675.000000,27970.000000,38056.000000
26184.000000,7668.000000,27942.000000,38007.000000
26156.000000,7656.000000,27910.000000,37956.000000
26133.000000,7643.000000,27873.000000,37914.000000
26087.000000,7628.000000,27834.000000,37877.000000
26037.000000,7611.000000,27793.000000,37841.000000
26013.000000,7595.000000,27756.000000,37808.000000
25997.000000,7580.000000,27725.000000,37781.000000
25962.000000,7565.000000,27696.000000,37748.000000
25924.000000,7548.000000,27662.000000,37708.000000
25907.000000,7532.000000,27628.000000,37667.000000
25893.000000,7523.000000,27600.000000,37632.000000
25861.000000,7517.000000,27574.000000,37601.000000
25832.000000,7512.000000,27543.000000,37573.000000
25826.000000,7506.000000,27508.000000,37549.000000
25821.000000,7500.000000,27477.000000,37530.000000
25799.000000,7493.000000,27450.000000,37510.000000
25781.000000,7485.000000,27428.000000,37485.000000
25782.000000,7477.000000,27406.000000,37456.000000
25776.000000,7469.000000,27385.000000,37426.000000
25748.000000,7459.000000,27361.000000,37396.000000
25725.000000,7446.000000,27332.000000,37362.000000
25716.000000,7429.000000,27296.000000,37332.000000
25692.000000,7411.000000,27257.000000,37313.000000
25648.000000,7391.000000,27216.000000,37298.000000
25613.000000,7371.000000,27171.000000,37269.000000
25592.000000,7355.000000,27130.000000,37231.000000
25554.000000,7340.000000,27091.000000,37192.000000
25493.000000,7325.000000,27047.000000,37140.000000
25444.000000,7307.000000,27000.000000,37069.000000
25415.000000,7287.000000,26951.000000,36999.000000
25374.000000,7265.000000,26897.000000,36936.000000
25318.000000,7241.000000,26840.000000,36877.000000
25281.000000,7219.000000,26783.000000,36832.000000
25267.000000,7205.000000,26735.000000,36805.000000
25248.000000,7201.000000,26705.000000,36799.000000
25231.000000,7204.000000,26697.000000,36809.000000
25258.000000,7218.000000,26718.000000,36835.000000
25327.000000,7248.000000,26778.000000,36890.000000
25410.000000,7293.000000,26879.000000,36976.000000
25515.000000,7350.000000,27017.000000,37095.000000
25673.000000,7423.000000,27188.000000,37253.000000
25869.000000,7511.000000,27391.000000,37453.000000
26068.000000,7613.000000,27618.000000,37685.000000
26275.000000,7723.000000,27861.000000,37932.000000
26516.000000,7839.000000,28116.000000,38191.000000
26772.000000,7958.000000,28385.000000,38466.000000
27006.000000,8078.000000,28665.000000,38748.000000
27228.000000,8195.000000,28941.000000,39020.000000
27464.000000,8311.000000,29209.000000,39280.000000
27697.000000,8424.000000,29467.000000,39533.000000
27898.000000,8526.000000,29709.000000,39775.000000
28081.000000,8618.000000,29929.000000,40003.000000
28267.000000,8702.000000,30128.000000,40215.000000
28433.000000,8780.000000,30309.000000,40415.000000
28558.000000,8847.000000,30468.000000,40598.000000
28668.000000,8904.000000,30605.000000,40758.000000
28775.000000,8951.000000,30722.000000,40896.000000
28855.000000,8987.000000,30820.000000,41010.000000
28894.000000,9015.000000,30899.000000,41097.000000
28919.000000,9034.000000,30958.000000,41159.000000
28945.000000,9042.000000,30997.000000,41198.000000
28942.000000,9039.000000,31016.000000,41215.000000
28898.000000,9024.000000,31015.000000,41213.000000
28847.000000,9000.000000,30994.000000,41195.000000
28806.000000,8971.000000,30958.000000,41172.000000
28754.000000,8941.000000,30914.000000,41145.000000
28684.000000,8911.000000,30866.000000,41104.000000
28631.000000,8886.000000,30817.000000,41053.000000
28602.000000,8870.000000,30776.000000,41006.000000
28565.000000,8857.000000,30745.000000,40964.000000
28519.000000,8842.000000,30717.000000,40928.000000
28496.000000,8828.000000,30695.000000,40900.000000
28496.000000,8819.000000,30678.000000,40889.000000
28486.000000,8811.000000,30660.000000,40889.000000
28470.000000,8805.000000,30640.000000,40885.000000
28475.000000,8803.000000,30621.000000,40874.000000
28490.000000,8803.000000,30604.000000,40856.000000
28480.000000,8800.000000,30585.000000,40827.000000
28449.000000,8788.000000,30556.000000,40788.000000
28424.000000,8771.000000,30520.000000,40748.000000
28401.000000,8754.000000,30482.000000,40714.000000
28353.000000,8733.000000,30436.000000,40682.000000
28291.000000,8710.000000,30378.000000,40649.000000
28244.000000,8687.000000,30316.000000,40609.000000
28201.000000,8667.000000,30255.000000,40565.000000
28137.000000,8647.000000,30193.000000,40515.000000
28068.000000,8623.000000,30129.000000,40452.000000
28019.000000,8599.000000,30066.000000,40379.000000
27975.000000,8574.000000,30007.000000,40308.000000
27913.000000,8548.000000,29950.000000,40242.000000
27850.000000,8521.000000,29894.000000,40181.000000
27813.000000,8496.000000,29846.000000,40129.000000
27789.000000,8476.000000,29809.000000,40092.000000
27758.000000,8462.000000,29784.000000,40065.000000
27740.000000,8453.000000,29768.000000,40048.000000
27753.000000,8452.000000,29765.000000,40040.000000
27773.000000,8460.000000,29773.000000,40035.000000
27780.000000,8471.000000,29793.000000,40031.000000
27794.000000,8485.000000,29820.000000,40030.000000
27835.000000,8502.000000,29848.000000,40041.000000
27877.000000,8521.000000,29876.000000,40070.000000
27902.000000,8536.000000,29903.000000,40113.000000
27936.000000,8547.000000,29931.000000,40161.000000
27992.000000,8562.000000,29959.000000,40209.000000
28040.000000,8580.000000,29984.000000,40255.000000
28068.000000,8599.000000,30006.000000,40295.000000
28103.000000,8619.000000,30028.000000,40327.000000
28151.000000,8641.000000,30048.000000,40355.000000
28178.000000,8660.000000,30066.000000,40382.000000
28182.000000,8673.000000,30077.000000,40409.000000
28195.000000,8684.000000,30083.000000,40428.000000
28222.000000,8691.000000,30085.000000,40446.000000
28230.000000,8692.000000,30079.000000,40463.000000
28222.000000,8690.000000,30066.000000,40472.000000
28231.000000,8689.000000,30048.000000,40471.000000
28252.000000,8689.000000,30028.000000,40461.000000
28251.000000,8686.000000,30006.000000,40436.000000
28230.000000,8678.000000,29982.000000,40397.000000
28222.000000,8669.000000,29954.000000,40350.000000
28220.000000,8659.000000,29926.000000,40308.000000
28195.000000,8646.000000,29894.000000,40267.000000
28153.000000,8628.000000,29855.000000,40222.000000
28124.000000,8608.000000,29808.000000,40177.000000
28099.000000,8587.000000,29760.000000,40136.000000
28055.000000,8565.000000,29712.000000,40101.000000
28004.000000,8542.000000,29662.000000,40059.000000
27973.000000,8521.000000,29614.000000,40002.000000
27941.000000,8499.000000,29565.000000,39941.000000
27880.000000,8476.000000,29510.000000,39881.000000
27810.000000,8448.000000,29447.000000,39818.000000
27764.000000,8420.000000,29381.000000,39752.000000
27727.000000,8394.000000,29316.000000,39694.000000
27673.000000,8368.000000,29253.000000,39643.000000
27623.000000,8343.000000,29190.000000,39592.000000
27599.000000,8322.000000,29132.000000,39545.000000
27579.000000,8305.000000,29078.000000,39502.000000
27541.000000,8288.000000,29029.000000,39452.000000
27509.000000,8271.000000,28987.000000,39392.000000
27500.000000,8260.000000,28949.000000,39330.000000
27485.000000,8248.000000,28913.000000,39280.000000
27447.000000,8232.000000,28877.000000,39241.000000
27412.000000,8210.000000,28836.000000,39211.000000
27398.000000,8187.000000,28793.000000,39192.000000
27379.000000,8166.000000,28753.000000,39178.000000
27340.000000,8147.000000,28717.000000,39158.000000
27312.000000,8128.000000,28684.000000,39128.000000
27306.000000,8113.000000,28654.000000,39086.000000
27292.000000,8100.000000,28626.000000,39035.000000
27258.000000,8090.000000,28593.000000,38972.000000
27234.000000,8082.000000,28557.000000,38909.000000
27229.000000,8076.000000,28523.000000,38865.000000
27210.000000,8070.000000,28490.000000,38839.000000
27178.000000,8061.000000,28457.000000,38817.000000
27167.000000,8051.000000,28425.000000,38802.000000
27176.000000,8043.000000,28399.000000,38796.000000
27173.000000,8038.000000,28382.000000,38788.000000
27163.000000,8032.000000,28366.000000,38769.000000
27182.000000,8023.000000,28355.000000,38746.000000
27218.000000,8014.000000,28353.000000,38740.000000
27226.000000,8008.000000,28352.000000,38742.000000
27211.000000,8002.000000,28340.000000,38734.000000
27202.000000,7995.000000,28319.000000,38719.000000
27197.000000,7989.000000,28297.000000,38705.000000
27170.000000,7984.000000,28275.000000,38682.000000
27125.000000,7978.000000,28249.000000,38648.000000
27094.000000,7970.000000,28218.000000,38608.000000
27066.000000,7962.000000,28185.000000,38569.000000
27017.000000,7950.000000,28148.000000,38530.000000
26959.000000,7933.000000,28107.000000,38483.000000
26919.000000,7913.000000,28062.000000,38426.000000
26886.000000,7893.000000,28016.000000,38371.000000
26841.000000,7876.000000,27969.000000,38324.000000
26801.000000,7863.000000,27923.000000,38282.000000
26789.000000,7854.000000,27883.000000,38244.000000
26782.000000,7846.000000,27849.000000,38211.000000
26750.000000,7835.000000,27815.000000,38171.000000
26707.000000,7818.000000,27779.000000,38121.000000
26678.000000,7801.000000,27741.000000,38067.000000
26644.000000,7780.000000,27699.000000,38016.000000
26585.000000,7754.000000,27649.000000,37967.000000
26526.000000,7722.000000,27591.000000,37917.000000
26491.000000,7689.000000,27529.000000,37871.000000
26455.000000,7655.000000,27467.000000,37833.000000
26398.000000,7620.000000,27407.000000,37799.000000
26347.000000,7587.000000,27350.000000,37762.000000
26325.000000,7564.000000,27305.000000,37721.000000
26305.000000,7554.000000,27279.000000,37684.000000
26283.000000,7554.000000,27273.000000,37664.000000
26294.000000,7567.000000,27290.000000,37675.000000
26352.000000,7598.000000,27339.000000,37729.000000
26431.000000,7647.000000,27425.000000,37823.000000
26522.000000,7709.000000,27545.000000,37945.000000
26651.000000,7780.000000,27698.000000,38087.000000
26818.000000,7862.000000,27883.000000,38251.000000
26989.000000,7954.000000,28095.000000,38440.000000
27160.000000,8052.000000,28328.000000,38645.000000
27358.000000,8154.000000,28571.000000,38861.000000
27580.000000,8258.000000,28818.000000,39097.000000
27793.000000,8362.000000,29065.000000,39350.000000
27996.000000,8465.000000,29309.000000,39605.000000
28215.000000,8565.000000,29549.000000,39859.000000
28443.000000,8662.000000,29787.000000,40110.000000
28647.000000,8754.000000,30018.000000,40350.000000
28822.000000,8838.000000,30234.000000,40567.000000
28993.000000,8916.000000,30435.000000,40762.000000
29152.000000,8987.000000,30619.000000,40943.000000
29273.000000,9051.000000,30779.000000,41110.000000
29369.000000,9105.000000,30912.000000,41257.000000
29465.000000,9151.000000,31021.000000,41391.000000
29552.000000,9188.000000,31113.000000,41513.000000
29607.000000,9216.000000,31186.000000,41623.000000
29643.000000,9236.000000,31242.000000,41710.000000
29683.000000,9251.000000,31289.000000,41771.000000
29714.000000,9262.000000,31327.000000,41812.000000
29716.000000,9267.000000,31352.000000,41832.000000
29707.000000,9268.000000,31361.000000,41831.000000
29708.000000,9265.000000,31360.000000,41814.000000
29703.000000,9261.000000,31351.000000,41787.000000
29673.000000,9254.000000,31335.000000,41752.000000
29642.000000,9245.000000,31313.000000,41712.000000
29633.000000,9237.000000,31286.000000,41676.000000
29625.000000,9230.000000,31257.000000,41652.000000
29601.000000,9221.000000,31227.000000,41640.000000
29581.000000,9209.000000,31199.000000,41631.000000
29581.000000,9196.000000,31174.000000,41620.000000
29580.000000,9185.000000,31150.000000,41602.000000
29559.000000,9175.000000,31126.000000,41573.000000
29537.000000,9164.000000,31098.000000,41535.000000
29521.000000,9153.000000,31065.000000,41490.000000
29486.000000,9140.000000,31026.000000,41439.000000
29427.000000,9125.000000,30981.000000,41390.000000
29380.000000,9110.000000,30932.000000,41347.000000
29354.000000,9098.000000,30885.000000,41308.000000
29322.000000,9088.000000,30842.000000,41272.000000
29278.000000,9077.000000,30801.000000,41233.000000
29250.000000,9066.000000,30761.000000,41189.000000
29240.000000,9056.000000,30723.000000,41152.000000
29218.000000,9046.000000,30687.000000,41122.000000
29178.000000,9031.000000,30652.000000,41089.000000
29150.000000,9013.000000,30619.000000,41057.000000
29141.000000,8998.000000,30592.000000,41032.000000
29121.000000,8985.000000,30568.000000,41011.000000
29095.000000,8973.000000,30544.000000,40983.000000
29092.000000,8966.000000,30525.000000,40954.000000
29105.000000,8965.000000,30512.000000,40932.000000
29108.000000,8967.000000,30503.000000,40918.000000
29107.000000,8969.000000,30497.000000,40904.000000
29125.000000,8973.000000,30497.000000,40893.000000
29155.000000,8984.000000,30502.000000,40897.000000
29175.000000,8999.000000,30511.000000,40912.000000
29198.000000,9018.000000,30525.000000,40936.000000
29248.000000,9037.000000,30546.000000,40974.000000
29306.000000,9058.000000,30573.000000,41020.000000
29346.000000,9077.000000,30602.000000,41059.000000
29379.000000,9093.000000,30630.000000,41092.000000
29426.000000,9110.000000,30657.000000,41121.000000
29469.000000,9126.000000,30680.000000,41151.000000
29486.000000,9138.000000,30697.000000,41176.000000
29496.000000,9146.000000,30709.000000,41187.000000
29522.000000,9151.000000,30717.000000,41191.000000
29545.000000,9156.000000,30722.000000,41204.000000
29544.000000,9160.000000,30722.000000,41215.000000
29537.000000,9161.000000,30716.000000,41211.000000
29538.000000,9158.000000,30702.000000,41194.000000
29527.000000,9153.000000,30682.000000,41172.000000
29488.000000,9141.000000,30657.000000,41144.000000
29448.000000,9123.000000,30628.000000,41107.000000
29420.000000,9101.000000,30595.000000,41064.000000
29384.000000,9078.000000,30556.000000,41018.000000
29329.000000,9051.000000,30511.000000,40970.000000
29279.000000,9020.000000,30461.000000,40916.000000
29243.000000,8989.000000,30409.000000,40856.000000
29195.000000,8957.000000,30353.000000,40794.000000
29127.000000,8926.000000,30289.000000,40726.000000
29068.000000,8897.000000,30220.000000,40655.000000
29023.000000,8869.000000,30149.000000,40589.000000
28967.000000,8842.000000,30075.000000,40528.000000
28900.000000,8815.000000,29996.000000,40470.000000
28847.000000,8790.000000,29916.000000,40414.000000
28811.000000,8770.000000,29840.000000,40354.000000
28759.000000,8746.000000,29764.000000,40285.000000
28687.000000,8717.000000,29686.000000,40206.000000
28627.000000,8686.000000,29609.000000,40118.000000
28574.000000,8654.000000,29535.000000,40028.000000
28499.000000,8618.000000,29458.000000,39936.000000
28405.000000,8577.000000,29376.000000,39840.000000
28320.000000,8533.000000,29291.000000,39745.000000
28241.000000,8489.000000,29209.000000,39656.000000
28147.000000,8446.000000,29127.000000,39573.000000
28046.000000,8403.000000,29043.000000,39485.000000
27958.000000,8360.000000,28960.000000,39385.000000
27872.000000,8316.000000,28875.000000,39283.000000
27767.000000,8269.000000,28785.000000,39179.000000
27655.000000,8220.000000,28687.000000,39072.000000
27561.000000,8172.000000,28589.000000,38965.000000
27475.000000,8126.000000,28497.000000,38865.000000
27376.000000,8083.000000,28409.000000,38777.000000
27283.000000,8041.000000,28328.000000,38697.000000
27217.000000,8006.000000,28256.000000,38626.000000
27159.000000,7976.000000,28194.000000,38559.000000
27084.000000,7946.000000,28138.000000,38489.000000
27013.000000,7916.000000,28085.000000,38415.000000
26966.000000,7887.000000,28033.000000,38339.000000
26924.000000,7861.000000,27978.000000,38273.000000
26866.000000,7835.000000,27920.000000,38219.000000
26815.000000,7810.000000,27861.000000,38166.000000
26791.000000,7792.000000,27809.000000,38114.000000
26766.000000,7780.000000,27765.000000,38066.000000
26724.000000,7771.000000,27726.000000,38013.000000
26686.000000,7762.000000,27689.000000,37960.000000
26661.000000,7751.000000,27651.000000,37918.000000
26626.000000,7736.000000,27609.000000,37883.000000
26574.000000,7715.000000,27564.000000,37849.000000
26530.000000,7691.000000,27522.000000,37810.000000
26506.000000,7670.000000,27486.000000,37770.000000
26476.000000,7652.000000,27451.000000,37733.000000
26432.000000,7635.000000,27416.000000,37696.000000
26399.000000,7618.000000,27380.000000,37655.000000
26384.000000,7605.000000,27346.000000,37619.000000
26359.000000,7595.000000,27313.000000,37587.000000
26319.000000,7584.000000,27278.000000,37560.000000
26297.000000,7571.000000,27243.000000,37538.000000
26295.000000,7563.000000,27216.000000,37521.000000
26287.000000,7558.000000,27197.000000,37509.000000
26273.000000,7554.000000,27180.000000,37494.000000
26277.000000,7554.000000,27167.000000,37474.000000
26292.000000,7555.000000,27158.000000,37449.000000
26288.000000,7556.000000,27152.000000,37422.000000
26260.000000,7555.000000,27138.000000,37394.000000
26237.000000,7550.000000,27114.000000,37364.000000
26219.000000,7540.000000,27082.000000,37337.000000
26181.000000,7525.000000,27043.000000,37311.000000
26132.000000,7504.000000,27000.000000,37280.000000
26100.000000,7484.000000,26954.000000,37248.000000
26075.000000,7468.000000,26906.000000,37214.000000
26032.000000,7452.000000,26855.000000,37171.000000
25984.000000,7436.000000,26803.000000,37118.000000
25953.000000,7423.000000,26755.000000,37064.000000
25926.000000,7411.000000,26710.000000,37015.000000
25883.000000,7395.000000,26663.000000,36967.000000
25839.000000,7377.000000,26618.000000,36917.000000
25819.000000,7363.000000,26585.000000,36878.000000
25813.000000,7354.000000,26567.000000,36864.000000
25808.000000,7353.000000,26571.000000,36877.000000
25836.000000,7366.000000,26608.000000,36921.000000
25923.000000,7399.000000,26685.000000,37008.000000
26052.000000,7456.000000,26806.000000,37137.000000
26202.000000,7533.000000,26971.000000,37296.000000
26385.000000,7628.000000,27178.000000,37479.000000
26607.000000,7737.000000,27417.000000,37680.000000
26842.000000,7853.000000,27677.000000,37900.000000
27063.000000,7970.000000,27943.000000,38131.000000
27287.000000,8083.000000,28210.000000,38369.000000
27522.000000,8192.000000,28476.000000,38621.000000
27742.000000,8296.000000,28736.000000,38887.000000
27945.000000,8393.000000,28991.000000,39161.000000
28156.000000,8485.000000,29237.000000,39429.000000
28369.000000,8578.000000,29473.000000,39673.000000
28547.000000,8671.000000,29693.000000,39894.000000
28687.000000,8758.000000,29894.000000,40094.000000
28827.000000,8836.000000,30077.000000,40277.000000
28968.000000,8908.000000,30243.000000,40450.000000
29079.000000,8968.000000,30391.000000,40612.000000
29160.000000,9016.000000,30517.000000,40753.000000
29243.000000,9054.000000,30621.000000,40875.000000
29327.000000,9089.000000,30712.000000,40988.000000
29385.000000,9117.000000,30788.000000,41094.000000
29421.000000,9137.000000,30849.000000,41178.000000
29468.000000,9151.000000,30900.000000,41237.000000
29522.000000,9164.000000,30941.000000,41280.000000
29551.000000,9176.000000,30970.000000,41307.000000
29559.000000,9183.000000,30983.000000,41319.000000
29568.000000,9185.000000,30982.000000,41320.000000
29572.000000,9178.000000,30967.000000,41319.000000
29550.000000,9162.000000,30941.000000,41318.000000
29519.000000,9142.000000,30908.000000,41310.000000
29506.000000,9127.000000,30874.000000,41289.000000
29497.000000,9118.000000,30843.000000,41268.000000
29465.000000,9108.000000,30815.000000,41247.000000
29429.000000,9096.000000,30789.000000,41223.000000
29412.000000,9085.000000,30764.000000,41193.000000
29398.000000,9078.000000,30739.000000,41161.000000
29369.000000,9070.000000,30711.000000,41126.000000
29341.000000,9059.000000,30680.000000,41096.000000
29334.000000,9048.000000,30646.000000,41076.000000
29327.000000,9038.000000,30611.000000,41062.000000
29301.000000,9027.000000,30574.000000,41045.000000
29277.000000,9015.000000,30535.000000,41016.000000
29271.000000,9005.000000,30502.000000,40977.000000
29261.000000,8994.000000,30474.000000,40935.000000
29228.000000,8982.000000,30442.000000,40891.000000
29195.000000,8966.000000,30404.000000,40842.000000
29176.000000,8949.000000,30361.000000,40794.000000
29151.000000,8931.000000,30313.000000,40751.000000
29107.000000,8911.000000,30263.000000,40714.000000
29070.000000,8892.000000,30213.000000,40678.000000
29058.000000,8878.000000,30172.000000,40636.000000
29045.000000,8871.000000,30142.000000,40587.000000
29017.000000,8863.000000,30117.000000,40530.000000
28997.000000,8855.000000,30095.000000,40471.000000
28989.000000,8847.000000,30078.000000,40419.000000
28970.000000,8838.000000,30063.000000,40377.000000
28937.000000,8824.000000,30045.000000,40342.000000
28920.000000,8811.000000,30028.000000,40317.000000
28927.000000,8804.000000,30020.000000,40311.000000
28932.000000,8800.000000,30018.000000,40323.000000
28933.000000,8799.000000,30020.000000,40339.000000
28955.000000,8803.000000,30028.000000,40356.000000
28993.000000,8813.000000,30043.000000,40376.000000
29016.000000,8825.000000,30058.000000,40397.000000
29022.000000,8835.000000,30071.000000,40417.000000
29038.000000,8845.000000,30085.000000,40432.000000
29063.000000,8856.000000,30103.000000,40441.000000
29070.000000,8866.000000,30121.000000,40453.000000
29069.000000,8873.000000,30136.000000,40466.000000
29086.000000,8879.000000,30146.000000,40478.000000
29112.000000,8885.000000,30154.000000,40490.000000
29124.000000,8892.000000,30160.000000,40498.000000
29123.000000,8897.000000,30162.000000,40493.000000
29132.000000,8901.000000,30158.000000,40478.000000
29142.000000,8905.000000,30149.000000,40463.000000
29130.000000,8905.000000,30134.000000,40451.000000
29115.000000,8901.000000,30115.000000,40438.000000
29124.000000,8899.000000,30093.000000,40427.000000
29139.000000,8900.000000,30073.000000,40423.000000
29139.000000,8903.000000,30054.000000,40416.000000
29135.000000,8902.000000,30028.000000,40395.000000
29140.000000,8899.000000,29999.000000,40365.000000
29134.000000,8896.000000,29968.000000,40336.000000
29101.000000,8890.000000,29932.000000,40303.000000
29061.000000,8873.000000,29887.000000,40255.000000
29027.000000,8847.000000,29834.000000,40202.000000
28978.000000,8814.000000,29772.000000,40151.000000
28903.000000,8775.000000,29705.000000,40097.000000
28829.000000,8737.000000,29636.000000,40033.000000
28774.000000,8702.000000,29570.000000,39963.000000
28713.000000,8669.000000,29501.000000,39894.000000
28633.000000,8635.000000,29426.000000,39814.000000
28559.000000,8599.000000,29350.000000,39723.000000
28502.000000,8564.000000,29277.000000,39632.000000
28439.000000,8529.000000,29207.000000,39546.000000
28365.000000,8493.000000,29135.000000,39466.000000
28309.000000,8458.000000,29062.000000,39393.000000
28273.000000,8428.000000,28994.000000,39329.000000
28227.000000,8403.000000,28934.000000,39277.000000
28171.000000,8383.000000,28881.000000,39227.000000
28133.000000,8366.000000,28834.000000,39175.000000
28114.000000,8351.000000,28790.000000,39130.000000
28083.000000,8336.000000,28746.000000,39087.000000
28039.000000,8318.000000,28699.000000,39041.000000
28004.000000,8298.000000,28651.000000,38995.000000
27978.000000,8282.000000,28605.000000,38954.000000
27937.000000,8266.000000,28557.000000,38913.000000
27882.000000,8247.000000,28507.000000,38860.000000
27844.000000,8228.000000,28463.000000,38795.000000
27815.000000,8210.000000,28423.000000,38727.000000
27766.000000,8189.000000,28383.000000,38663.000000
27704.000000,8162.000000,28335.000000,38601.000000
27654.000000,8134.000000,28283.000000,38543.000000
27609.000000,8107.000000,28234.000000,38493.000000
27549.000000,8081.000000,28188.000000,38444.000000
27493.000000,8057.000000,28144.000000,38394.000000
27465.000000,8040.000000,28104.000000,38351.000000
27448.000000,8028.000000,28070.000000,38320.000000
27420.000000,8018.000000,28038.000000,38295.000000
27398.000000,8011.000000,28012.000000,38272.000000
27403.000000,8009.000000,27992.000000,38253.000000
27415.000000,8012.000000,27978.000000,38240.000000
27414.000000,8018.000000,27972.000000,38234.000000
27416.000000,8024.000000,27969.000000,38234.000000
27438.000000,8030.000000,27971.000000,38242.000000
27460.000000,8038.000000,27975.000000,38250.000000
27465.000000,8045.000000,27983.000000,38250.000000
27472.000000,8053.000000,27994.000000,38245.000000
27490.000000,8060.000000,28003.000000,38240.000000
27497.000000,8064.000000,28002.000000,38241.000000
27480.000000,8062.000000,27988.000000,38236.000000
27461.000000,8055.000000,27964.000000,38217.000000
27452.000000,8047.000000,27933.000000,38189.000000
27428.000000,8037.000000,27897.000000,38156.000000
27385.000000,8025.000000,27859.000000,38116.000000
27352.000000,8013.000000,27818.000000,38071.000000
27335.000000,8002.000000,27779.000000,38028.000000
27305.000000,7986.000000,27740.000000,37990.000000
27255.000000,7965.000000,27698.000000,37953.000000
27215.000000,7944.000000,27651.000000,37913.000000
27195.000000,7925.000000,27604.000000,37872.000000
27166.000000,7909.000000,27561.000000,37834.000000
27125.000000,7894.000000,27521.000000,37792.000000
27103.000000,7884.000000,27486.000000,37745.000000
27100.000000,7875.000000,27454.000000,37705.000000
27086.000000,7866.000000,27421.000000,37670.000000
27066.000000,7857.000000,27394.000000,37642.000000
27078.000000,7856.000000,27385.000000,37630.000000
27122.000000,7870.000000,27399.000000,37642.000000
27175.000000,7900.000000,27443.000000,37676.000000
27243.000000,7942.000000,27523.000000,37736.000000
27355.000000,7996.000000,27638.000000,37832.000000
27499.000000,8064.000000,27787.000000,37967.000000
27647.000000,8144.000000,27961.000000,38130.000000
27805.000000,8232.000000,28153.000000,38315.000000
27995.000000,8330.000000,28364.000000,38524.000000
28205.000000,8436.000000,28596.000000,38755.000000
28405.000000,8543.000000,28841.000000,38993.000000
28602.000000,8645.000000,29088.000000,39227.000000
28812.000000,8743.000000,29329.000000,39460.000000
29015.000000,8837.000000,29564.000000,39691.000000
29187.000000,8924.000000,29791.000000,39911.000000
29351.000000,9004.000000,30005.000000,40126.000000
29526.000000,9080.000000,30207.000000,40343.000000
29693.000000,9155.000000,30399.000000,40557.000000
29830.000000,9229.000000,30582.000000,40752.000000
29960.000000,9296.000000,30753.000000,40921.000000
30098.000000,9361.000000,30910.000000,41070.000000
30221.000000,9418.000000,31052.000000,41201.000000
30311.000000,9465.000000,31173.000000,41318.000000
30389.000000,9501.000000,31272.000000,41421.000000
30467.000000,9530.000000,31351.000000,41512.000000
30525.000000,9553.000000,31412.000000,41594.000000
30553.000000,9571.000000,31456.000000,41664.000000
30578.000000,9583.000000,31488.000000,41716.000000
30609.000000,9587.000000,31508.000000,41746.000000
30617.000000,9587.000000,31518.000000,41761.000000
30592.000000,9580.000000,31513.000000,41766.000000
30562.000000,9568.000000,31495.000000,41755.000000
30544.000000,9553.000000,31469.000000,41738.000000
30515.000000,9534.000000,31436.000000,41717.000000
30472.000000,9514.000000,31399.000000,41689.000000
30440.000000,9494.000000,31360.000000,41651.000000
30418.000000,9473.000000,31317.000000,41608.000000
30379.000000,9452.000000,31270.000000,41559.000000
30324.000000,9426.000000,31216.000000,41509.000000
30278.000000,9395.000000,31159.000000,41461.000000
30246.000000,9366.000000,31107.000000,41414.000000
30203.000000,9338.000000,31056.000000,41364.000000
30152.000000,9309.000000,31000.000000,41303.000000
30114.000000,9284.000000,30943.000000,41235.000000
30083.000000,9261.000000,30886.000000,41166.000000
30028.000000,9235.000000,30827.000000,41098.000000
29958.000000,9210.000000,30763.000000,41037.000000
29905.000000,9185.000000,30700.000000,40991.000000
29861.000000,9161.000000,30640.000000,40951.000000
29803.000000,9137.000000,30583.000000,40903.000000
29739.000000,9115.000000,30529.000000,40851.000000
29694.000000,9097.000000,30480.000000,40803.000000
29660.000000,9082.000000,30438.000000,40767.000000
29617.000000,9069.000000,30400.000000,40742.000000
29582.000000,9058.000000,30366.000000,40719.000000
29578.000000,9052.000000,30338.000000,40700.000000
29588.000000,9050.000000,30314.000000,40690.000000
29585.000000,9048.000000,30299.000000,40682.000000
29587.000000,9046.000000,30296.000000,40675.000000
29612.000000,9049.000000,30301.000000,40666.000000
29639.000000,9052.000000,30310.000000,40651.000000
29644.000000,9051.000000,30318.000000,40638.000000
29646.000000,9048.000000,30327.000000,40638.000000
29666.000000,9045.000000,30341.000000,40654.000000
29686.000000,9045.000000,30360.000000,40678.000000
29691.000000,9049.000000,30383.000000,40696.000000
29702.000000,9055.000000,30408.000000,40705.000000
29728.000000,9062.000000,30434.000000,40707.000000
29741.000000,9069.000000,30457.000000,40711.000000
29731.000000,9071.000000,30471.000000,40719.000000
29725.000000,9070.000000,30473.000000,40727.000000
29731.000000,9071.000000,30470.000000,40734.000000
29726.000000,9073.000000,30465.000000,40736.000000
29708.000000,9075.000000,30457.000000,40725.000000
29703.000000,9076.000000,30447.000000,40707.000000
29710.000000,9074.000000,30435.000000,40689.000000
29702.000000,9068.000000,30416.000000,40665.000000
29673.000000,9055.000000,30387.000000,40635.000000
29648.000000,9038.000000,30350.000000,40597.000000
29629.000000,9020.000000,30313.000000,40561.000000
29590.000000,8998.000000,30274.000000,40529.000000
29538.000000,8973.000000,30227.000000,40494.000000
29500.000000,8947.000000,30175.000000,40458.000000
29472.000000,8927.000000,30125.000000,40426.000000
29429.000000,8910.000000,30076.000000,40387.000000
29374.000000,8891.000000,30025.000000,40335.000000
29332.000000,8869.000000,29972.000000,40274.000000
29296.000000,8846.000000,29919.000000,40213.000000
29242.000000,8820.000000,29861.000000,40156.000000
29180.000000,8792.000000,29797.000000,40103.000000
29134.000000,8764.000000,29728.000000,40052.000000
29096.000000,8737.000000,29658.000000,40001.000000
29042.000000,8710.000000,29586.000000,39944.000000
28979.000000,8683.000000,29514.000000,39873.000000
28929.000000,8658.000000,29447.000000,39791.000000
28879.000000,8632.000000,29382.000000,39706.000000
28805.000000,8602.000000,29312.000000,39625.000000
28729.000000,8571.000000,29241.000000,39547.000000
28675.000000,8542.000000,29175.000000,39480.000000
28627.000000,8513.000000,29114.000000,39431.000000
28562.000000,8481.000000,29052.000000,39393.000000
28499.000000,8450.000000,28990.000000,39351.000000
28460.000000,8425.000000,28933.000000,39303.000000
28428.000000,8407.000000,28883.000000,39253.000000
28387.000000,8392.000000,28840.000000,39199.000000
28357.000000,8378.000000,28799.000000,39143.000000
28347.000000,8368.000000,28761.000000,39097.000000
28332.000000,8360.000000,28724.000000,39067.000000
28299.000000,8347.000000,28687.000000,39036.000000
28272.000000,8333.000000,28649.000000,38999.000000
28264.000000,8322.000000,28614.000000,38958.000000
28248.000000,8312.000000,28581.000000,38911.000000
28212.000000,8301.000000,28547.000000,38848.000000
28178.000000,8289.000000,28512.000000,38774.000000
28153.000000,8276.000000,28477.000000,38709.000000
28113.000000,8261.000000,28442.000000,38658.000000
28059.000000,8241.000000,28403.000000,38610.000000
28017.000000,8216.000000,28358.000000,38562.000000
27995.000000,8193.000000,28319.000000,38518.000000
27967.000000,8174.000000,28284.000000,38483.000000
27929.000000,8159.000000,28251.000000,38449.000000
27905.000000,8144.000000,28219.000000,38413.000000
27891.000000,8130.000000,28189.000000,38388.000000
27860.000000,8115.000000,28159.000000,38373.000000
27817.000000,8099.000000,28124.000000,38356.000000
27789.000000,8084.000000,28088.000000,38338.000000
27774.000000,8074.000000,28056.000000,38325.000000
27745.000000,8066.000000,28031.000000,38313.000000
27703.000000,8055.000000,28009.000000,38292.000000
27675.000000,8043.000000,27986.000000,38262.000000
27655.000000,8031.000000,27962.000000,38231.000000
27621.000000,8017.000000,27937.000000,38193.000000
27582.000000,7999.000000,27908.000000,38153.000000
27561.000000,7980.000000,27876.000000,38122.000000
27549.000000,7963.000000,27844.000000,38102.000000
27524.000000,7947.000000,27810.000000,38080.000000
27497.000000,7933.000000,27772.000000,38051.000000
27487.000000,7922.000000,27734.000000,38014.000000
27478.000000,7914.000000,27696.000000,37969.000000
27449.000000,7905.000000,27661.000000,37919.000000
27416.000000,7895.000000,27626.000000,37871.000000
27398.000000,7884.000000,27592.000000,37827.000000
27383.000000,7875.000000,27562.000000,37801.000000
27361.000000,7871.000000,27544.000000,37797.000000
27358.000000,7876.000000,27547.000000,37816.000000
27397.000000,7894.000000,27578.000000,37867.000000
27467.000000,7929.000000,27645.000000,37949.000000
27556.000000,7979.000000,27751.000000,38056.000000
27686.000000,8044.000000,27895.000000,38186.000000
27862.000000,8126.000000,28074.000000,38350.000000
28057.000000,8222.000000,28283.000000,38550.000000
28256.000000,8328.000000,28513.000000,38771.000000
28478.000000,8439.000000,28761.000000,39009.000000
28729.000000,8556.000000,29025.000000,39262.000000
28982.000000,8678.000000,29300.000000,39525.000000
29220.000000,8800.000000,29576.000000,39791.000000
29458.000000,8920.000000,29846.000000,40056.000000
29697.000000,9039.000000,30108.000000,40322.000000
29911.000000,9152.000000,30358.000000,40593.000000
30099.000000,9255.000000,30592.000000,40856.000000
30288.000000,9346.000000,30809.000000,41100.000000
30481.000000,9431.000000,31011.000000,41324.000000
30647.000000,9509.000000,31199.000000,41529.000000
30785.000000,9577.000000,31370.000000,41710.000000
30920.000000,9639.000000,31521.000000,41873.000000
31049.000000,9693.000000,31651.000000,42021.000000
31143.000000,9737.000000,31759.000000,42148.000000
31208.000000,9773.000000,31845.000000,42250.000000
31273.000000,9804.000000,31914.000000,42335.000000
31331.000000,9828.000000,31967.000000,42410.000000
31359.000000,9842.000000,32002.000000,42470.000000
31371.000000,9849.000000,32022.000000,42511.000000
31392.000000,9851.000000,32031.000000,42535.000000
31410.000000,9852.000000,32033.000000,42541.000000
31403.000000,9850.000000,32024.000000,42534.000000
31380.000000,9842.000000,32006.000000,42516.000000
31366.000000,9830.000000,31983.000000,42490.000000
31349.000000,9814.000000,31954.000000,42458.000000
31309.000000,9796.000000,31922.000000,42419.000000
31265.000000,9776.000000,31891.000000,42373.000000
31242.000000,9758.000000,31860.000000,42327.000000
31225.000000,9742.000000,31828.000000,42291.000000
31193.000000,9728.000000,31791.000000,42260.000000
31159.000000,9711.000000,31751.000000,42226.000000
31137.000000,9694.000000,31713.000000,42188.000000
31110.000000,9676.000000,31676.000000,42144.000000
31062.000000,9655.000000,31637.000000,42089.000000
31014.000000,9632.000000,31593.000000,42025.000000
30979.000000,9609.000000,31546.000000,41964.000000
30940.000000,9590.000000,31498.000000,41912.000000
30883.000000,9569.000000,31449.000000,41872.000000
30832.000000,9546.000000,31398.000000,41842.000000
30802.000000,9527.000000,31348.000000,41815.000000
30768.000000,9511.000000,31300.000000,41789.000000
30721.000000,9495.000000,31254.000000,41757.000000
30684.000000,9480.000000,31211.000000,41724.000000
30664.000000,9468.000000,31173.000000,41690.000000
30637.000000,9456.000000,31139.000000,41652.000000
30598.000000,9442.000000,31108.000000,41617.000000
30575.000000,9433.000000,31084.000000,41588.000000
30577.000000,9430.000000,31071.000000,41572.000000
30577.000000,9429.000000,31065.000000,41569.000000
30569.000000,9428.000000,31062.000000,41566.000000
30574.000000,9430.000000,31064.000000,41559.000000
30591.000000,9433.000000,31074.000000,41556.000000
30594.000000,9436.000000,31089.000000,41563.000000
30590.000000,9439.000000,31104.000000,41578.000000
30605.000000,9445.000000,31120.000000,41603.000000
30634.000000,9453.000000,31139.000000,41636.000000
30651.000000,9462.000000,31157.000000,41669.000000
30661.000000,9473.000000,31176.000000,41692.000000
30688.000000,9488.000000,31197.000000,41706.000000
30723.000000,9503.000000,31219.000000,41716.000000
30737.000000,9513.000000,31233.000000,41724.000000
30738.000000,9515.000000,31239.000000,41727.000000
30749.000000,9514.000000,31241.000000,41728.000000
30763.000000,9512.000000,31242.000000,41731.000000
30756.000000,9509.000000,31240.000000,41732.000000
30741.000000,9504.000000,31231.000000,41721.000000
30740.000000,9499.000000,31219.000000,41703.000000
30741.000000,9497.000000,31203.000000,41682.000000
30720.000000,9494.000000,31181.000000,41653.000000
30688.000000,9486.000000,31153.000000,41614.000000
30664.000000,9472.000000,31120.000000,41573.000000
30632.000000,9453.000000,31080.000000,41534.000000
30574.000000,9427.000000,31033.000000,41492.000000
30513.000000,9397.000000,30981.000000,41449.000000
30468.000000,9365.000000,30925.000000,41412.000000
30421.000000,9334.000000,30864.000000,41380.000000
30359.000000,9304.000000,30803.000000,41344.000000
30303.000000,9275.000000,30744.000000,41297.000000
30264.000000,9249.000000,30687.000000,41240.000000
30221.000000,9225.000000,30628.000000,41180.000000
30164.000000,9202.000000,30564.000000,41116.000000
30110.000000,9176.000000,30498.000000,41046.000000
30067.000000,9148.000000,30432.000000,40976.000000
30013.000000,9121.000000,30364.000000,40911.000000
29944.000000,9092.000000,30296.000000,40846.000000
29889.000000,9062.000000,30229.000000,40780.000000
29855.000000,9033.000000,30168.000000,40714.000000
29817.000000,9008.000000,30112.000000,40657.000000
29769.000000,8987.000000,30061.000000,40599.000000
29735.000000,8968.000000,30013.000000,40533.000000
29710.000000,8952.000000,29964.000000,40466.000000
29665.000000,8937.000000,29914.000000,40401.000000
29602.000000,8917.000000,29859.000000,40337.000000
29549.000000,8894.000000,29804.000000,40276.000000
29509.000000,8871.000000,29748.000000,40221.000000
29457.000000,8847.000000,29688.000000,40172.000000
29397.000000,8821.000000,29630.000000,40119.000000
29357.000000,8801.000000,29578.000000,40065.000000
29329.000000,8783.000000,29532.000000,40015.000000
29285.000000,8763.000000,29489.000000,39971.000000
29232.000000,8738.000000,29445.000000,39929.000000
29196.000000,8714.000000,29404.000000,39892.000000
29170.000000,8694.000000,29369.000000,39867.000000
29133.000000,8671.000000,29335.000000,39846.000000
29093.000000,8645.000000,29296.000000,39818.000000
29070.000000,8622.000000,29256.000000,39784.000000
29056.000000,8605.000000,29222.000000,39747.000000
29027.000000,8592.000000,29192.000000,39710.000000
28996.000000,8580.000000,29163.000000,39668.000000
28986.000000,8570.000000,29137.000000,39621.000000
28977.000000,8562.000000,29112.000000,39576.000000
28946.000000,8553.000000,29084.000000,39533.000000
28907.000000,8544.000000,29050.000000,39489.000000
28883.000000,8534.000000,29015.000000,39452.000000
28864.000000,8525.000000,28979.000000,39424.000000
28835.000000,8515.000000,28943.000000,39399.000000
28812.000000,8503.000000,28907.000000,39369.000000
28806.000000,8493.000000,28874.000000,39335.000000
28793.000000,8484.000000,28845.000000,39300.000000
28760.000000,8471.000000,28813.000000,39262.000000
28724.000000,8450.000000,28775.000000,39221.000000
28700.000000,8426.000000,28734.000000,39179.000000
28669.000000,8405.000000,28697.000000,39138.000000
28625.000000,8386.000000,28663.000000,39109.000000
28589.000000,8370.000000,28630.000000,39087.000000
28575.000000,8360.000000,28602.000000,39059.000000
28558.000000,8354.000000,28577.000000,39026.000000
28523.000000,8345.000000,28546.000000,38981.000000
28488.000000,8331.000000,28510.000000,38923.000000
28457.000000,8310.000000,28469.000000,38871.000000
28408.000000,8284.000000,28420.000000,38828.000000
28345.000000,8255.000000,28366.000000,38788.000000
28292.000000,8228.000000,28309.000000,38754.000000
28251.000000,8206.000000,28253.000000,38728.000000
28201.000000,8187.000000,28197.000000,38703.000000
28141.000000,8167.000000,28143.000000,38671.000000
28100.000000,8148.000000,28098.000000,38635.000000
28080.000000,8134.000000,28068.000000,38600.000000
28064.000000,8127.000000,28057.000000,38570.000000
28061.000000,8129.000000,28067.000000,38555.000000
28100.000000,8146.000000,28110.000000,38570.000000
28182.000000,8181.000000,28192.000000,38628.000000
28289.000000,8235.000000,28311.000000,38733.000000
28427.000000,8307.000000,28468.000000,38878.000000
28613.000000,8398.000000,28664.000000,39057.000000
28832.000000,8503.000000,28896.000000,39268.000000
29056.000000,8622.000000,29151.000000,39502.000000
29287.000000,8747.000000,29419.000000,39755.000000
29539.000000,8877.000000,29696.000000,40029.000000
29794.000000,9007.000000,29978.000000,40318.000000
30028.000000,9131.000000,30259.000000,40611.000000
30251.000000,9245.000000,30533.000000,40895.000000
30481.000000,9353.000000,30796.000000,41171.000000
30703.000000,9458.000000,31046.000000,41445.000000
30896.000000,9558.000000,31281.000000,41712.000000
31073.000000,9649.000000,31498.000000,41961.000000
31246.000000,9733.000000,31698.000000,42188.000000
31399.000000,9810.000000,31877.000000,42395.000000
31518.000000,9876.000000,32033.000000,42575.000000
31619.000000,9930.000000,32163.000000,42721.000000
31715.000000,9974.000000,32272.000000,42843.000000
31785.000000,10006.000000,32361.000000,42950.000000
31816.000000,10025.000000,32427.000000,43041.000000
31831.000000,10034.000000,32469.000000,43113.000000
31847.000000,10039.000000,32492.000000,43167.000000
31846.000000,10042.000000,32501.000000,43200.000000
31827.000000,10040.000000,32500.000000,43214.000000
31815.000000,10032.000000,32488.000000,43213.000000
31812.000000,10022.000000,32469.000000,43202.000000
31797.000000,10009.000000,32452.000000,43181.000000
31762.000000,9993.000000,32433.000000,43153.000000
31729.000000,9975.000000,32408.000000,43117.000000
31705.000000,9954.000000,32377.000000,43076.000000
31673.000000,9930.000000,32345.000000,43030.000000
31635.000000,9907.000000,32311.000000,42981.000000
31613.000000,9886.000000,32279.000000,42934.000000
31602.000000,9871.000000,32250.000000,42892.000000
31576.000000,9860.000000,32222.000000,42848.000000
31538.000000,9848.000000,32190.000000,42797.000000
31515.000000,9836.000000,32155.000000,42742.000000
31500.000000,9824.000000,32122.000000,42691.000000
31465.000000,9807.000000,32087.000000,42639.000000
31414.000000,9786.000000,32046.000000,42582.000000
31370.000000,9763.000000,31997.000000,42528.000000
31333.000000,9741.000000,31946.000000,42487.000000
31283.000000,9717.000000,31894.000000,42453.000000
31229.000000,9692.000000,31840.000000,42418.000000
31193.000000,9672.000000,31788.000000,42377.000000
31162.000000,9656.000000,31740.000000,42333.000000
31115.000000,9640.000000,31693.000000,42294.000000
31066.000000,9621.000000,31649.000000,42259.000000
31036.000000,9602.000000,31612.000000,42229.000000
31016.000000,9587.000000,31584.000000,42209.000000
30987.000000,9575.000000,31560.000000,42194.000000
30962.000000,9566.000000,31538.000000,42182.000000
30957.000000,9560.000000,31522.000000,42174.000000
30955.000000,9560.000000,31513.000000,42170.000000
30940.000000,9562.000000,31508.000000,42160.000000
30927.000000,9563.000000,31508.000000,42146.000000
30927.000000,9566.000000,31514.000000,42140.000000
30925.000000,9569.000000,31523.000000,42147.000000
30912.000000,9569.000000,31530.000000,42160.000000
30908.000000,9565.000000,31535.000000,42172.000000
30924.000000,9561.000000,31541.000000,42183.000000
30940.000000,9563.000000,31551.000000,42194.000000
30943.000000,9567.000000,31562.000000,42199.000000
30948.000000,9572.000000,31571.000000,42202.000000
30964.000000,9575.000000,31580.000000,42210.000000
30973.000000,9576.000000,31588.000000,42221.000000
30967.000000,9575.000000,31591.000000,42227.000000
30968.000000,9573.000000,31590.000000,42228.000000
30981.000000,9575.000000,31589.000000,42229.000000
30983.000000,9576.000000,31584.000000,42230.000000
30968.000000,9575.000000,31571.000000,42218.000000
30959.000000,9572.000000,31553.000000,42189.000000
30955.000000,9566.000000,31529.000000,42159.000000
30932.000000,9554.000000,31501.000000,42131.000000
30893.000000,9537.000000,31466.000000,42106.000000
30859.000000,9517.000000,31428.000000,42080.000000
30831.000000,9496.000000,31389.000000,42046.000000
30786.000000,9474.000000,31346.000000,42000.000000
30725.000000,9449.000000,31297.000000,41939.000000
30673.000000,9423.000000,31245.000000,41874.000000
30626.000000,9397.000000,31188.000000,41824.000000
30560.000000,9368.000000,31123.000000,41781.000000
30486.000000,9334.000000,31053.000000,41731.000000
30426.000000,9300.000000,30983.000000,41674.000000
30374.000000,9268.000000,30914.000000,41615.000000
30312.000000,9237.000000,30845.000000,41556.000000
30246.000000,9206.000000,30778.000000,41494.000000
30195.000000,9181.000000,30714.000000,41428.000000
30148.000000,9160.000000,30652.000000,41358.000000
30083.000000,9140.000000,30585.000000,41280.000000
30017.000000,9116.000000,30514.000000,41202.000000
29970.000000,9090.000000,30443.000000,41132.000000
29926.000000,9064.000000,30376.000000,41070.000000
29865.000000,9036.000000,30311.000000,41008.000000
29803.000000,9006.000000,30248.000000,40939.000000
29759.000000,8979.000000,30190.000000,40868.000000
29716.000000,8953.000000,30135.000000,40795.000000
29654.000000,8924.000000,30079.000000,40721.000000
29592.000000,8893.000000,30019.000000,40648.000000
29544.000000,8863.000000,29954.000000,40579.000000
29497.000000,8833.000000,29889.000000,40518.000000
29441.000000,8806.000000,29825.000000,40463.000000
29394.000000,8786.000000,29766.000000,40407.000000
29366.000000,8772.000000,29717.000000,40354.000000
29335.000000,8758.000000,29675.000000,40309.000000
29290.000000,8745.000000,29632.000000,40262.000000
29251.000000,8733.000000,29588.000000,40209.000000
29224.000000,8720.000000,29544.000000,40160.000000
29185.000000,8703.000000,29502.000000,40122.000000
29133.000000,8682.000000,29458.000000,40088.000000
29093.000000,8661.000000,29412.000000,40054.000000
29065.000000,8642.000000,29368.000000,40019.000000
29023.000000,8622.000000,29328.000000,39982.000000
28970.000000,8603.000000,29287.000000,39934.000000
28932.000000,8586.000000,29248.000000,39877.000000
28907.000000,8566.000000,29213.000000,39832.000000
28869.000000,8541.000000,29181.000000,39804.000000
28824.000000,8517.000000,29147.000000,39779.000000
28796.000000,8498.000000,29113.000000,39752.000000
28780.000000,8486.000000,29082.000000,39717.000000
28752.000000,8475.000000,29049.000000,39669.000000
28714.000000,8462.000000,29012.000000,39615.000000
28688.000000,8445.000000,28975.000000,39561.000000
28672.000000,8429.000000,28941.000000,39512.000000
28644.000000,8413.000000,28908.000000,39465.000000
28612.000000,8398.000000,28873.000000,39417.000000
28596.000000,8386.000000,28840.000000,39372.000000
28588.000000,8376.000000,28811.000000,39342.000000
28564.000000,8369.000000,28783.000000,39325.000000
28533.000000,8362.000000,28755.000000,39305.000000
28514.000000,8357.000000,28724.000000,39274.000000
28493.000000,8349.000000,28691.000000,39239.000000
28448.000000,8334.000000,28651.000000,39200.000000
28397.000000,8313.000000,28604.000000,39158.000000
28361.000000,8290.000000,28555.000000,39118.000000
28329.000000,8267.000000,28508.000000,39079.000000
28282.000000,8242.000000,28460.000000,39030.000000
28232.000000,8213.000000,28409.000000,38964.000000
28194.000000,8184.000000,28355.000000,38891.000000
28152.000000,8155.000000,28299.000000,38821.000000
28089.000000,8125.000000,28237.000000,38761.000000
28025.000000,8094.000000,28170.000000,38711.000000
27977.000000,8064.000000,28106.000000,38668.000000
27929.000000,8039.000000,28046.000000,38622.000000
27865.000000,8019.000000,27987.000000,38566.000000
27803.000000,8000.000000,27929.000000,38502.000000
27755.000000,7981.000000,27874.000000,38440.000000
27707.000000,7964.000000,27823.000000,38390.000000
27659.000000,7950.000000,27779.000000,38359.000000
27640.000000,7944.000000,27753.000000,38353.000000
27665.000000,7954.000000,27760.000000,38371.000000
27718.000000,7983.000000,27808.000000,38418.000000
27798.000000,8029.000000,27902.000000,38501.000000
27927.000000,8093.000000,28043.000000,38622.000000
28104.000000,8175.000000,28227.000000,38783.000000
28302.000000,8274.000000,28445.000000,38983.000000
28510.000000,8383.000000,28688.000000,39208.000000
28743.000000,8497.000000,28949.000000,39457.000000
28993.000000,8619.000000,29227.000000,39739.000000
29235.000000,8747.000000,29520.000000,40055.000000
29468.000000,8874.000000,29818.000000,40377.000000
29712.000000,8999.000000,30115.000000,40682.000000
29961.000000,9123.000000,30406.000000,40973.000000
30189.000000,9240.000000,30686.000000,41250.000000
30395.000000,9346.000000,30946.000000,41504.000000
30598.000000,9444.000000,31185.000000,41742.000000
30794.000000,9538.000000,31409.000000,41977.000000
30964.000000,9624.000000,31617.000000,42201.000000
31112.000000,9700.000000,31805.000000,42402.000000
31258.000000,9770.000000,31971.000000,42578.000000
31392.000000,9831.000000,32117.000000,42736.000000
31493.000000,9882.000000,32240.000000,42873.000000
31567.000000,9920.000000,32340.000000,42985.000000
31633.000000,9946.000000,32421.000000,43075.000000
31681.000000,9966.000000,32484.000000,43150.000000
31695.000000,9978.000000,32528.000000,43211.000000
31697.000000,9981.000000,32554.000000,43255.000000
31706.000000,9980.000000,32569.000000,43286.000000
31709.000000,9976.000000,32574.000000,43307.000000
31689.000000,9966.000000,32566.000000,43317.000000
31662.000000,9952.000000,32548.000000,43304.000000
31645.000000,9939.000000,32523.000000,43271.000000
31622.000000,9926.000000,32493.000000,43233.000000
31578.000000,9910.000000,32453.000000,43194.000000
31534.000000,9890.000000,32407.000000,43150.000000
31505.000000,9870.000000,32361.000000,43109.000000
31472.000000,9850.000000,32316.000000,43076.000000
31428.000000,9830.000000,32275.000000,43046.000000
31394.000000,9810.000000,32239.000000,43011.000000
31376.000000,9794.000000,32208.000000,42969.000000
31348.000000,9783.000000,32174.000000,42927.000000
31302.000000,9771.000000,32134.000000,42890.000000
31264.000000,9757.000000,32089.000000,42858.000000
31235.000000,9740.000000,32037.000000,42828.000000
31192.000000,9716.000000,31976.000000,42793.000000
31133.000000,9689.000000,31912.000000,42745.000000
31082.000000,9661.000000,31850.000000,42689.000000
31045.000000,9636.000000,31795.000000,42629.000000
31001.000000,9615.000000,31746.000000,42571.000000
30949.000000,9592.000000,31699.000000,42510.000000
30913.000000,9569.000000,31653.000000,42445.000000
30889.000000,9548.000000,31610.000000,42393.000000
30852.000000,9530.000000,31569.000000,42359.000000
30810.000000,9513.000000,31531.000000,42334.000000
30789.000000,9498.000000,31499.000000,42317.000000
30787.000000,9490.000000,31480.000000,42310.000000
30779.000000,9489.000000,31472.000000,42309.000000
30765.000000,9492.000000,31469.000000,42307.000000
30769.000000,9498.000000,31474.000000,42307.000000
30782.000000,9506.000000,31487.000000,42312.000000
30780.000000,9514.000000,31502.000000,42315.000000
30773.000000,9518.000000,31517.000000,42314.000000
30781.000000,9522.000000,31531.000000,42319.000000
30794.000000,9528.000000,31546.000000,42335.000000
30794.000000,9533.000000,31562.000000,42359.000000
30799.000000,9536.000000,31575.000000,42385.000000
30824.000000,9541.000000,31588.000000,42404.000000
30853.000000,9549.000000,31601.000000,42418.000000
30864.000000,9557.000000,31611.000000,42427.000000
30872.000000,9566.000000,31618.000000,42426.000000
30888.000000,9576.000000,31625.000000,42418.000000
30897.000000,9584.000000,31632.000000,42411.000000
30884.000000,9583.000000,31635.000000,42404.000000
30868.000000,9574.000000,31633.000000,42400.000000
30866.000000,9562.000000,31626.000000,42404.000000
30861.000000,9551.000000,31615.000000,42409.000000
30837.000000,9539.000000,31596.000000,42401.000000
30811.000000,9528.000000,31572.000000,42377.000000
30793.000000,9516.000000,31542.000000,42341.000000
30763.000000,9502.000000,31504.000000,42299.000000
30711.000000,9482.000000,31459.000000,42253.000000
30661.000000,9460.000000,31410.000000,42206.000000
30625.000000,9438.000000,31354.000000,42167.000000
30581.000000,9414.000000,31294.000000,42129.000000
30527.000000,9390.000000,31232.000000,42084.000000
30486.000000,9369.000000,31172.000000,42038.000000
30459.000000,9349.000000,31117.000000,41993.000000
30418.000000,9329.000000,31062.000000,41942.000000
30359.000000,9304.000000,31003.000000,41877.000000
30309.000000,9278.000000,30940.000000,41795.000000
30268.000000,9250.000000,30874.000000,41711.000000
30211.000000,9219.000000,30803.000000,41627.000000
30139.000000,9182.000000,30729.000000,41546.000000
30074.000000,9143.000000,30654.000000,41473.000000
30020.000000,9110.000000,30582.000000,41412.000000
29959.000000,9080.000000,30513.000000,41354.000000
29891.000000,9050.000000,30446.000000,41287.000000
29840.000000,9025.000000,30386.000000,41213.000000
29802.000000,9008.000000,30333.000000,41144.000000
29753.000000,8993.000000,30281.000000,41081.000000
29691.000000,8976.000000,30224.000000,41024.000000
29642.000000,8956.000000,30164.000000,40973.000000
29603.000000,8935.000000,30106.000000,40929.000000
29555.000000,8914.000000,30051.000000,40890.000000
29509.000000,8895.000000,29998.000000,40851.000000
29479.000000,8878.000000,29948.000000,40810.000000
29452.000000,8861.000000,29902.000000,40771.000000
29409.000000,8841.000000,29857.000000,40727.000000
29363.000000,8818.000000,29814.000000,40669.000000
29332.000000,8795.000000,29773.000000,40602.000000
29304.000000,8770.000000,29732.000000,40545.000000
29262.000000,8743.000000,29687.000000,40501.000000
29218.000000,8716.000000,29641.000000,40456.000000
29187.000000,8693.000000,29597.000000,40411.000000
29156.000000,8677.000000,29556.000000,40369.000000
29112.000000,8663.000000,29519.000000,40322.000000
29072.000000,8647.000000,29485.000000,40265.000000
29047.000000,8632.000000,29453.000000,40205.000000
29020.000000,8617.000000,29420.000000,40149.000000
28979.000000,8599.000000,29382.000000,40100.000000
28945.000000,8581.000000,29342.000000,40056.000000
28929.000000,8567.000000,29306.000000,40013.000000
28911.000000,8557.000000,29274.000000,39967.000000
28878.000000,8547.000000,29243.000000,39923.000000
28851.000000,8534.000000,29212.000000,39884.000000
28833.000000,8522.000000,29180.000000,39852.000000
28803.000000,8510.000000,29150.000000,39827.000000
28756.000000,8496.000000,29118.000000,39809.000000
28720.000000,8480.000000,29083.000000,39795.000000
28697.000000,8466.000000,29044.000000,39785.000000
28663.000000,8453.000000,29001.000000,39779.000000
28619.000000,8440.000000,28957.000000,39760.000000
28589.000000,8428.000000,28918.000000,39724.000000
28573.000000,8415.000000,28883.000000,39684.000000
28545.000000,8399.000000,28848.000000,39640.000000
28502.000000,8379.000000,28812.000000,39590.000000
28469.000000,8362.000000,28777.000000,39544.000000
28445.000000,8348.000000,28743.000000,39505.000000
28409.000000,8335.000000,28706.000000,39465.000000
28366.000000,8319.000000,28666.000000,39421.000000
28338.000000,8305.000000,28627.000000,39371.000000
28319.000000,8293.000000,28589.000000,39319.000000
28282.000000,8280.000000,28552.000000,39264.000000
28233.000000,8261.000000,28510.000000,39201.000000
28193.000000,8237.000000,28461.000000,39138.000000
28155.000000,8213.000000,28408.000000,39085.000000
28100.000000,8188.000000,28349.000000,39041.000000
28040.000000,8158.000000,28285.000000,38998.000000
27995.000000,8128.000000,28222.000000,38956.000000
27949.000000,8101.000000,28160.000000,38914.000000
27887.000000,8075.000000,28098.000000,38862.000000
27825.000000,8048.000000,28035.000000,38795.000000
27781.000000,8021.000000,27975.000000,38722.000000
27744.000000,8002.000000,27925.000000,38655.000000
27704.000000,7991.000000,27886.000000,38607.000000
27686.000000,7988.000000,27868.000000,38586.000000
27710.000000,8000.000000,27884.000000,38602.000000
27771.000000,8032.000000,27944.000000,38664.000000
27863.000000,8083.000000,28049.000000,38772.000000
28004.000000,8154.000000,28202.000000,38919.000000
28200.000000,8249.000000,28405.000000,39103.000000
28426.000000,8363.000000,28651.000000,39326.000000
28662.000000,8488.000000,28926.000000,39579.000000
28914.000000,8618.000000,29216.000000,39854.000000
29183.000000,8749.000000,29513.000000,40151.000000
29449.000000,8878.000000,29811.000000,40472.000000
29700.000000,9002.000000,30103.000000,40800.000000
29951.000000,9126.000000,30388.000000,41122.000000
30204.000000,9248.000000,30672.000000,41428.000000
30430.000000,9365.000000,30948.000000,41716.000000
30629.000000,9471.000000,31207.000000,41975.000000
30823.000000,9570.000000,31449.000000,42208.000000
31009.000000,9663.000000,31673.000000,42430.000000
31163.000000,9747.000000,31875.000000,42636.000000
31285.000000,9817.000000,32052.000000,42819.000000
31399.000000,9877.000000,32203.000000,42983.000000
31510.000000,9928.000000,32332.000000,43130.000000
31595.000000,9972.000000,32436.000000,43255.000000
31654.000000,10006.000000,32517.000000,43352.000000
31712.000000,10032.000000,32580.000000,43426.000000
31765.000000,10050.000000,32627.000000,43483.000000
31789.000000,10059.000000,32658.000000,43519.000000
31788.000000,10058.000000,32668.000000,43533.000000
31786.000000,10049.000000,32663.000000,43537.000000
31778.000000,10035.000000,32647.000000,43536.000000
31742.000000,10013.000000,32622.000000,43524.000000
31692.000000,9988.000000,32586.000000,43506.000000
31655.000000,9964.000000,32546.000000,43490.000000
31622.000000,9942.000000,32502.000000,43473.000000
31576.000000,9920.000000,32456.000000,43444.000000
31528.000000,9897.000000,32408.000000,43399.000000
31493.000000,9873.000000,32364.000000,43343.000000
31457.000000,9851.000000,32320.000000,43278.000000
31403.000000,9826.000000,32270.000000,43205.000000
31346.000000,9800.000000,32218.000000,43132.000000
31303.000000,9779.000000,32170.000000,43063.000000
31257.000000,9760.000000,32123.000000,43001.000000
31190.000000,9737.000000,32069.000000,42945.000000
31124.000000,9709.000000,32010.000000,42894.000000
31074.000000,9682.000000,31947.000000,42846.000000
31026.000000,9656.000000,31880.000000,42796.000000
30966.000000,9629.000000,31811.000000,42736.000000
30913.000000,9602.000000,31746.000000,42669.000000
30876.000000,9578.000000,31689.000000,42601.000000
30836.000000,9556.000000,31640.000000,42537.000000
30785.000000,9533.000000,31594.000000,42479.000000
30743.000000,9510.000000,31547.000000,42429.000000
30711.000000,9489.000000,31505.000000,42394.000000
30671.000000,9470.000000,31470.000000,42378.000000
30628.000000,9451.000000,31439.000000,42375.000000
30611.000000,9433.000000,31415.000000,42378.000000
30622.000000,9425.000000,31402.000000,42385.000000
30633.000000,9425.000000,31398.000000,42400.000000
30642.000000,9432.000000,31400.000000,42413.000000
30666.000000,9443.000000,31411.000000,42420.000000
30699.000000,9458.000000,31430.000000,42428.000000
30718.000000,9474.000000,31451.000000,42437.000000
30727.000000,9490.000000,31472.000000,42446.000000
30751.000000,9506.000000,31497.000000,42461.000000
30786.000000,9522.000000,31525.000000,42487.000000
30803.000000,9536.000000,31550.000000,42515.000000
30809.000000,9543.000000,31572.000000,42538.000000
30830.000000,9549.000000,31591.000000,42556.000000
30859.000000,9556.000000,31609.000000,42569.000000
30876.000000,9565.000000,31624.000000,42576.000000
30885.000000,9573.000000,31636.000000,42576.000000
30901.000000,9581.000000,31648.000000,42572.000000
30914.000000,9589.000000,31658.000000,42568.000000
30905.000000,9594.000000,31660.000000,42558.000000
30884.000000,9591.000000,31650.000000,42545.000000
30869.000000,9584.000000,31632.000000,42536.000000
30855.000000,9575.000000,31607.000000,42530.000000
30825.000000,9561.000000,31575.000000,42519.000000
30792.000000,9543.000000,31539.000000,42502.000000
30773.000000,9528.000000,31503.000000,42479.000000
30749.000000,9515.000000,31469.000000,42452.000000
30706.000000,9500.000000,31430.000000,42412.000000
30660.000000,9483.000000,31384.000000,42357.000000
30623.000000,9466.000000,31335.000000,42295.000000
30580.000000,9446.000000,31283.000000,42237.000000
30517.000000,9417.000000,31223.000000,42175.000000
30451.000000,9381.000000,31156.000000,42105.000000
30394.000000,9342.000000,31083.000000,42037.000000
30332.000000,9304.000000,31007.000000,41976.000000
30259.000000,9269.000000,30929.000000,41913.000000
30196.000000,9239.000000,30854.000000,41842.000000
30152.000000,9217.000000,30785.000000,41764.000000
30103.000000,9199.000000,30723.000000,41683.000000
30033.000000,9177.000000,30659.000000,41596.000000
29966.000000,9151.000000,30593.000000,41508.000000
29909.000000,9122.000000,30524.000000,41434.000000
29843.000000,9090.000000,30454.000000,41369.000000
29767.000000,9057.000000,30382.000000,41303.000000
29704.000000,9020.000000,30308.000000,41235.000000
29656.000000,8984.000000,30237.000000,41171.000000
29600.000000,8947.000000,30167.000000,41115.000000
29536.000000,8914.000000,30099.000000,41055.000000
29491.000000,8887.000000,30038.000000,40992.000000
29461.000000,8863.000000,29983.000000,40933.000000
29421.000000,8841.000000,29934.000000,40880.000000
29372.000000,8819.000000,29885.000000,40834.000000
29338.000000,8799.000000,29836.000000,40787.000000
29314.000000,8781.000000,29787.000000,40737.000000
29278.000000,8763.000000,29734.000000,40690.000000
29234.000000,8744.000000,29681.000000,40644.000000
29199.000000,8726.000000,29630.000000,40595.000000
29168.000000,8710.000000,29579.000000,40535.000000
29124.000000,8696.000000,29529.000000,40467.000000
29076.000000,8678.000000,29478.000000,40399.000000
29044.000000,8662.000000,29435.000000,40340.000000
29018.000000,8650.000000,29399.000000,40295.000000
28980.000000,8638.000000,29367.000000,40258.000000
28942.000000,8627.000000,29340.000000,40217.000000
28923.000000,8615.000000,29318.000000,40175.000000
28907.000000,8602.000000,29289.000000,40142.000000
28875.000000,8585.000000,29254.000000,40115.000000
28841.000000,8566.000000,29217.000000,40092.000000
28823.000000,8549.000000,29186.000000,40075.000000
28806.000000,8531.000000,29161.000000,40059.000000
28775.000000,8513.000000,29137.000000,40035.000000
28746.000000,8495.000000,29109.000000,40004.000000
28728.000000,8480.000000,29078.000000,39974.000000
28703.000000,8465.000000,29049.000000,39944.000000
28660.000000,8451.000000,29019.000000,39912.000000
28621.000000,8433.000000,28985.000000,39881.000000
28600.000000,8414.000000,28949.000000,39855.000000
28580.000000,8396.000000,28913.000000,39837.000000
28552.000000,8380.000000,28881.000000,39819.000000
28531.000000,8366.000000,28851.000000,39794.000000
28516.000000,8356.000000,28818.000000,39757.000000
28484.000000,8349.000000,28782.000000,39708.000000
28438.000000,8340.000000,28742.000000,39647.000000
28400.000000,8329.000000,28700.000000,39579.000000
28373.000000,8318.000000,28656.000000,39521.000000
28334.000000,8305.000000,28609.000000,39481.000000
28285.000000,8287.000000,28561.000000,39443.000000
28248.000000,8268.000000,28514.000000,39398.000000
28225.000000,8251.000000,28474.000000,39346.000000
28192.000000,8236.000000,28438.000000,39292.000000
28144.000000,8217.000000,28398.000000,39241.000000
28103.000000,8194.000000,28353.000000,39190.000000
28064.000000,8168.000000,28303.000000,39138.000000
28005.000000,8136.000000,28243.000000,39084.000000
27933.000000,8101.000000,28172.000000,39030.000000
27877.000000,8067.000000,28099.000000,38978.000000
27834.000000,8039.000000,28035.000000,38934.000000
27789.000000,8014.000000,27979.000000,38898.000000
27755.000000,7994.000000,27938.000000,38869.000000
27761.000000,7989.000000,27925.000000,38859.000000
27804.000000,8005.000000,27951.000000,38880.000000
27867.000000,8043.000000,28023.000000,38934.000000
27962.000000,8099.000000,28142.000000,39027.000000
28108.000000,8173.000000,28309.000000,39170.000000
28293.000000,8265.000000,28524.000000,39367.000000
28493.000000,8372.000000,28777.000000,39610.000000
28713.000000,8488.000000,29054.000000,39891.000000
28965.000000,8614.000000,29342.000000,40195.000000
29233.000000,8747.000000,29632.000000,40507.000000
29496.000000,8880.000000,29925.000000,40815.000000
29761.000000,9013.000000,30223.000000,41110.000000
30037.000000,9145.000000,30518.000000,41396.000000
30299.000000,9272.000000,30800.000000,41678.000000
30529.000000,9390.000000,31066.000000,41947.000000
30739.000000,9498.000000,31312.000000,42202.000000
30940.000000,9596.000000,31538.000000,42448.000000
31118.000000,9685.000000,31748.000000,42684.000000
31266.000000,9766.000000,31939.000000,42902.000000
31402.000000,9840.000000,32109.000000,43090.000000
31534.000000,9912.000000,32259.000000,43244.000000
31641.000000,9977.000000,32388.000000,43370.000000
31710.000000,10027.000000,32489.000000,43475.000000
31761.000000,10061.000000,32565.000000,43557.000000
31800.000000,10081.000000,32616.000000,43623.000000
31811.000000,10084.000000,32645.000000,43676.000000
31797.000000,10074.000000,32657.000000,43717.000000
31786.000000,10060.000000,32656.000000,43748.000000
31788.000000,10049.000000,32648.000000,43760.000000
31779.000000,10040.000000,32633.000000,43753.000000
31752.000000,10028.000000,32609.000000,43728.000000
31729.000000,10012.000000,32579.000000,43687.000000
31709.000000,9993.000000,32543.000000,43639.000000
31669.000000,9971.000000,32498.000000,43589.000000
31616.000000,9946.000000,32447.000000,43540.000000
31574.000000,9923.000000,32393.000000,43494.000000
31543.000000,9902.000000,32340.000000,43449.000000
31498.000000,9880.000000,32285.000000,43406.000000
31443.000000,9854.000000,32227.000000,43362.000000
31403.000000,9830.000000,32172.000000,43320.000000
31372.000000,9808.000000,32122.000000,43280.000000
31329.000000,9783.000000,32071.000000,43231.000000
31275.000000,9754.000000,32017.000000,43168.000000
31227.000000,9724.000000,31960.000000,43096.000000
31179.000000,9695.000000,31902.000000,43023.000000
31115.000000,9665.000000,31841.000000,42948.000000
31048.000000,9636.000000,31777.000000,42873.000000
30999.000000,9612.000000,31713.000000,42805.000000
30959.000000,9591.000000,31651.000000,42748.000000
30913.000000,9570.000000,31593.000000,42694.000000
30871.000000,9552.000000,31539.000000,42645.000000
30847.000000,9538.000000,31495.000000,42607.000000
30826.000000,9530.000000,31460.000000,42578.000000
30795.000000,9521.000000,31431.000000,42547.000000
30770.000000,9517.000000,31412.000000,42511.000000
30766.000000,9518.000000,31405.000000,42478.000000
30768.000000,9520.000000,31406.000000,42456.000000
30763.000000,9519.000000,31410.000000,42445.000000
30764.000000,9514.000000,31416.000000,42448.000000
30781.000000,9513.000000,31426.000000,42471.000000
30802.000000,9519.000000,31442.000000,42510.000000
30816.000000,9531.000000,31466.000000,42550.000000
30839.000000,9547.000000,31497.000000,42581.000000
30880.000000,9567.000000,31536.000000,42602.000000
30914.000000,9586.000000,31579.000000,42621.000000
30928.000000,9600.000000,31616.000000,42638.000000
30943.000000,9611.000000,31645.000000,42651.000000
30967.000000,9618.000000,31669.000000,42668.000000
30982.000000,9623.000000,31688.000000,42687.000000
30984.000000,9626.000000,31698.000000,42701.000000
30995.000000,9628.000000,31701.000000,42709.000000
31018.000000,9632.000000,31699.000000,42714.000000
31029.000000,9637.000000,31693.000000,42719.000000
31027.000000,9639.000000,31683.000000,42724.000000
31030.000000,9639.000000,31674.000000,42728.000000
31038.000000,9637.000000,31663.000000,42732.000000
31029.000000,9631.000000,31648.000000,42726.000000
31002.000000,9621.000000,31624.000000,42705.000000
30975.000000,9607.000000,31590.000000,42674.000000
30951.000000,9589.000000,31550.000000,42642.000000
30913.000000,9567.000000,31502.000000,42607.000000
30868.000000,9541.000000,31450.000000,42563.000000
30835.000000,9517.000000,31397.000000,42520.000000
30806.000000,9495.000000,31342.000000,42480.000000
30762.000000,9474.000000,31285.000000,42429.000000
30710.000000,9450.000000,31227.000000,42356.000000
30665.000000,9428.000000,31166.000000,42269.000000
30619.000000,9408.000000,31100.000000,42186.000000
30559.000000,9384.000000,31033.000000,42106.000000
30493.000000,9355.000000,30966.000000,42027.000000
30437.000000,9323.000000,30902.000000,41956.000000
30384.000000,9291.000000,30840.000000,41898.000000
30319.000000,9260.000000,30776.000000,41844.000000
30257.000000,9226.000000,30709.000000,41787.000000
30215.000000,9197.000000,30647.000000,41732.000000
30179.000000,9176.000000,30592.000000,41686.000000
30137.000000,9156.000000,30541.000000,41646.000000
30102.000000,9135.000000,30492.000000,41600.000000
30083.000000,9121.000000,30447.000000,41534.000000
30058.000000,9113.000000,30405.000000,41456.000000
30014.000000,9102.000000,30363.000000,41379.000000
29969.000000,9084.000000,30319.000000,41316.000000
29936.000000,9064.000000,30273.000000,41269.000000
29901.000000,9044.000000,30225.000000,41231.000000
29854.000000,9024.000000,30176.000000,41195.000000
29814.000000,9006.000000,30127.000000,41162.000000
29791.000000,8991.000000,30082.000000,41134.000000
29767.000000,8977.000000,30038.000000,41109.000000
29734.000000,8963.000000,29997.000000,41080.000000
29711.000000,8950.000000,29960.000000,41043.000000
29701.000000,8938.000000,29928.000000,41000.000000
29681.000000,8926.000000,29898.000000,40954.000000
29651.000000,8913.000000,29864.000000,40905.000000
29632.000000,8900.000000,29829.000000,40853.000000
29622.000000,8887.000000,29796.000000,40813.000000
29601.000000,8874.000000,29765.000000,40787.000000
29570.000000,8860.000000,29733.000000,40764.000000
29552.000000,8844.000000,29702.000000,40745.000000
29546.000000,8832.000000,29671.000000,40731.000000
29532.000000,8822.000000,29641.000000,40712.000000
29513.000000,8812.000000,29614.000000,40686.000000
29507.000000,8804.000000,29597.000000,40658.000000
29507.000000,8799.000000,29583.000000,40631.000000
29492.000000,8795.000000,29568.000000,40600.000000
29468.000000,8791.000000,29549.000000,40565.000000
29455.000000,8787.000000,29528.000000,40536.000000
29448.000000,8787.000000,29507.000000,40516.000000
29424.000000,8784.000000,29486.000000,40501.000000
29396.000000,8777.000000,29462.000000,40489.000000
29383.000000,8770.000000,29437.000000,40482.000000
29373.000000,8764.000000,29415.000000,40475.000000
29349.000000,8758.000000,29394.000000,40458.000000
29320.000000,8752.000000,29370.000000,40430.000000
29298.000000,8745.000000,29344.000000,40397.000000
29271.000000,8736.000000,29317.000000,40360.000000
29227.000000,8721.000000,29286.000000,40316.000000
29182.000000,8703.000000,29252.000000,40264.000000
29150.000000,8682.000000,29218.000000,40213.000000
29117.000000,8658.000000,29181.000000,40172.000000
29068.000000,8628.000000,29137.000000,40135.000000
29020.000000,8594.000000,29088.000000,40095.000000
28990.000000,8563.000000,29038.000000,40053.000000
28959.000000,8538.000000,28988.000000,40012.000000
28915.000000,8517.000000,28939.000000,39969.000000
28874.000000,8499.000000,28892.000000,39926.000000
28846.000000,8488.000000,28850.000000,39882.000000
28818.000000,8480.000000,28811.000000,39842.000000
28785.000000,8474.000000,28777.000000,39802.000000
28767.000000,8472.000000,28753.000000,39762.000000
28770.000000,8474.000000,28744.000000,39737.000000
28785.000000,8481.000000,28755.000000,39738.000000
28817.000000,8498.000000,28798.000000,39770.000000
28892.000000,8531.000000,28878.000000,39843.000000
29014.000000,8584.000000,29000.000000,39964.000000
29164.000000,8655.000000,29162.000000,40135.000000
29335.000000,8742.000000,29361.000000,40345.000000
29542.000000,8845.000000,29594.000000,40585.000000
29778.000000,8961.000000,29855.000000,40845.000000
30016.000000,9083.000000,30133.000000,41116.000000
30247.000000,9206.000000,30417.000000,41390.000000
30488.000000,9333.000000,30702.000000,41665.000000
30733.000000,9459.000000,30984.000000,41948.000000
30959.000000,9579.000000,31257.000000,42230.000000
31170.000000,9691.000000,31517.000000,42503.000000
31382.000000,9798.000000,31766.000000,42764.000000
31590.000000,9901.000000,32004.000000,43011.000000
31773.000000,9995.000000,32224.000000,43240.000000
31933.000000,10077.000000,32425.000000,43449.000000
32083.000000,10151.000000,32607.000000,43641.000000
32216.000000,10214.000000,32764.000000,43814.000000
32312.000000,10264.000000,32891.000000,43963.000000
32386.000000,10299.000000,32989.000000,44088.000000
32458.000000,10325.000000,33065.000000,44199.000000
32516.000000,10345.000000,33122.000000,44292.000000
32545.000000,10356.000000,33160.000000,44366.000000
32561.000000,10361.000000,33179.000000,44415.000000
32577.000000,10363.000000,33187.000000,44433.000000
32576.000000,10361.000000,33187.000000,44425.000000
32547.000000,10352.000000,33176.000000,44397.000000
32508.000000,10335.000000,33151.000000,44362.000000
32478.000000,10315.000000,33113.000000,44327.000000
32442.000000,10294.000000,33067.000000,44288.000000
32389.000000,10270.000000,33017.000000,44245.000000
32339.000000,10245.000000,32964.000000,44206.000000
32302.000000,10220.000000,32912.000000,44168.000000
32262.000000,10195.000000,32861.000000,44123.000000
32211.000000,10170.000000,32812.000000,44069.000000
32165.000000,10146.000000,32760.000000,44010.000000
32131.000000,10122.000000,32703.000000,43952.000000
32090.000000,10097.000000,32644.000000,43893.000000
32033.000000,10069.000000,32581.000000,43831.000000
31977.000000,10035.000000,32512.000000,43772.000000
31930.000000,10001.000000,32439.000000,43716.000000
31875.000000,9968.000000,32366.000000,43661.000000
31809.000000,9937.000000,32292.000000,43595.000000
31756.000000,9910.000000,32223.000000,43519.000000
31717.000000,9888.000000,32164.000000,43443.000000
31672.000000,9866.000000,32112.000000,43372.000000
31619.000000,9843.000000,32061.000000,43307.000000
31578.000000,9823.000000,32014.000000,43249.000000
31552.000000,9809.000000,31972.000000,43208.000000
31526.000000,9797.000000,31935.000000,43185.000000
31503.000000,9787.000000,31906.000000,43168.000000
31502.000000,9781.000000,31891.000000,43152.000000
31518.000000,9783.000000,31891.000000,43142.000000
31530.000000,9789.000000,31902.000000,43139.000000
31540.000000,9800.000000,31919.000000,43136.000000
31564.000000,9817.000000,31942.000000,43133.000000
31593.000000,9837.000000,31968.000000,43142.000000
31608.000000,9853.000000,31991.000000,43168.000000
31620.000000,9866.000000,32012.000000,43204.000000
31649.000000,9879.000000,32037.000000,43246.000000
31684.000000,9895.000000,32067.000000,43292.000000
31710.000000,9910.000000,32101.000000,43336.000000
31733.000000,9924.000000,32137.000000,43371.000000
31766.000000,9936.000000,32174.000000,43398.000000
31800.000000,9946.000000,32209.000000,43422.000000
31820.000000,9954.000000,32235.000000,43452.000000
31841.000000,9961.000000,32254.000000,43484.000000
31877.000000,9972.000000,32269.000000,43517.000000
31908.000000,9983.000000,32282.000000,43546.000000
31918.000000,9991.000000,32290.000000,43565.000000
31923.000000,9994.000000,32294.000000,43569.000000
31937.000000,9997.000000,32297.000000,43557.000000
31940.000000,9998.000000,32293.000000,43533.000000
31920.000000,9991.000000,32279.000000,43505.000000
31890.000000,9976.000000,32254.000000,43472.000000
31861.000000,9957.000000,32218.000000,43438.000000
31823.000000,9936.000000,32174.000000,43408.000000
31775.000000,9914.000000,32127.000000,43375.000000
31733.000000,9895.000000,32079.000000,43329.000000
31701.000000,9879.000000,32030.000000,43272.000000
31659.000000,9863.000000,31978.000000,43209.000000
31602.000000,9842.000000,31917.000000,43147.000000
31544.000000,9816.000000,31851.000000,43081.000000
31491.000000,9786.000000,31784.000000,43016.000000
31426.000000,9752.000000,31717.000000,42954.000000
31355.000000,9716.000000,31649.000000,42889.000000
31301.000000,9683.000000,31586.000000,42827.000000
31261.000000,9654.000000,31528.000000,42772.000000
31217.000000,9630.000000,31470.000000,42715.000000
31170.000000,9606.000000,31411.000000,42656.000000
31135.000000,9584.000000,31353.000000,42594.000000
31111.000000,9565.000000,31299.000000,42537.000000
31075.000000,9548.000000,31247.000000,42485.000000
31028.000000,9529.000000,31194.000000,42437.000000
30991.000000,9508.000000,31140.000000,42391.000000
30960.000000,9486.000000,31084.000000,42340.000000
30917.000000,9464.000000,31026.000000,42280.000000
30866.000000,9442.000000,30963.000000,42208.000000
30823.000000,9419.000000,30902.000000,42128.000000
30782.000000,9397.000000,30848.000000,42059.000000
30727.000000,9376.000000,30797.000000,42009.000000
30667.000000,9354.000000,30747.000000,41971.000000
30624.000000,9331.000000,30700.000000,41937.000000
30594.000000,9307.000000,30659.000000,41908.000000
30558.000000,9282.000000,30617.000000,41879.000000
30519.000000,9259.000000,30573.000000,41842.000000
30489.000000,9240.000000,30533.000000,41800.000000
30459.000000,9226.000000,30498.000000,41755.000000
30416.000000,9211.000000,30464.000000,41709.000000
30375.000000,9196.000000,30430.000000,41661.000000
30346.000000,9179.000000,30394.000000,41619.000000
30321.000000,9164.000000,30359.000000,41590.000000
30287.000000,9147.000000,30323.000000,41571.000000
30260.000000,9132.000000,30286.000000,41544.000000
30251.000000,9122.000000,30258.000000,41508.000000
30243.000000,9118.000000,30238.000000,41472.000000
30222.000000,9116.000000,30218.000000,41435.000000
30203.000000,9112.000000,30196.000000,41396.000000
30195.000000,9106.000000,30173.000000,41357.000000
30180.000000,9095.000000,30151.000000,41324.000000
30151.000000,9079.000000,30126.000000,41298.000000
30124.000000,9062.000000,30099.000000,41277.000000
30108.000000,9046.000000,30069.000000,41259.000000
30086.000000,9032.000000,30034.000000,41240.000000
30056.000000,9020.000000,29998.000000,41213.000000
30035.000000,9012.000000,29964.000000,41178.000000
30027.000000,9005.000000,29933.000000,41139.000000
30009.000000,8999.000000,29904.000000,41103.000000
29981.000000,8990.000000,29877.000000,41069.000000
29960.000000,8979.000000,29852.000000,41035.000000
29949.000000,8969.000000,29830.000000,41004.000000
29927.000000,8959.000000,29806.000000,40977.000000
29898.000000,8945.000000,29776.000000,40943.000000
29878.000000,8929.000000,29742.000000,40908.000000
29865.000000,8914.000000,29708.000000,40877.000000
29844.000000,8900.000000,29672.000000,40843.000000
29812.000000,8884.000000,29630.000000,40800.000000
29787.000000,8866.000000,29591.000000,40751.000000
29761.000000,8845.000000,29554.000000,40707.000000
29718.000000,8820.000000,29510.000000,40668.000000
29665.000000,8794.000000,29463.000000,40632.000000
29624.000000,8770.000000,29423.000000,40611.000000
29602.000000,8753.000000,29398.000000,40609.000000
29590.000000,8746.000000,29393.000000,40619.000000
29598.000000,8754.000000,29418.000000,40643.000000
29649.000000,8783.000000,29481.000000,40699.000000
29739.000000,8833.000000,29586.000000,40800.000000
29854.000000,8902.000000,29730.000000,40936.000000
30002.000000,8986.000000,29909.000000,41098.000000
30189.000000,9083.000000,30120.000000,41285.000000
30395.000000,9190.000000,30356.000000,41499.000000
30604.000000,9303.000000,30608.000000,41739.000000
30824.000000,9420.000000,30869.000000,42000.000000
31064.000000,9541.000000,31135.000000,42280.000000
31307.000000,9665.000000,31404.000000,42573.000000
31537.000000,9787.000000,31672.000000,42858.000000
31766.000000,9907.000000,31938.000000,43134.000000
31999.000000,10028.000000,32204.000000,43397.000000
32216.000000,10144.000000,32461.000000,43645.000000
32401.000000,10248.000000,32698.000000,43878.000000
32571.000000,10339.000000,32906.000000,44092.000000
32730.000000,10418.000000,33088.000000,44289.000000
32866.000000,10486.000000,33244.000000,44470.000000
32978.000000,10541.000000,33375.000000,44635.000000
33082.000000,10586.000000,33482.000000,44789.000000
33179.000000,10625.000000,33575.000000,44928.000000
33253.000000,10655.000000,33657.000000,45044.000000
33301.000000,10676.000000,33724.000000,45133.000000
33340.000000,10692.000000,33773.000000,45198.000000
33375.000000,10705.000000,33808.000000,45241.000000
33389.000000,10715.000000,33831.000000,45263.000000
33385.000000,10717.000000,33840.000000,45269.000000
33386.000000,10714.000000,33835.000000,45263.000000
33390.000000,10707.000000,33820.000000,45256.000000
33376.000000,10693.000000,33795.000000,45249.000000
33345.000000,10676.000000,33757.000000,45234.000000
33320.000000,10656.000000,33713.000000,45213.000000
33301.000000,10636.000000,33672.000000,45187.000000
33270.000000,10617.000000,33632.000000,45152.000000
33233.000000,10598.000000,33590.000000,45105.000000
33207.000000,10580.000000,33546.000000,45050.000000
33184.000000,10561.000000,33504.000000,44995.000000
33146.000000,10543.000000,33463.000000,44940.000000
33100.000000,10524.000000,33418.000000,44888.000000
33059.000000,10503.000000,33369.000000,44845.000000
33017.000000,10482.000000,33319.000000,44807.000000
32966.000000,10459.000000,33267.000000,44765.000000
32915.000000,10436.000000,33210.000000,44717.000000
32878.000000,10414.000000,33151.000000,44666.000000
32846.000000,10394.000000,33095.000000,44611.000000
32807.000000,10376.000000,33047.000000,44551.000000
32772.000000,10358.000000,33004.000000,44490.000000
32752.000000,10345.000000,32966.000000,44433.000000
32735.000000,10338.000000,32938.000000,44385.000000
32710.000000,10333.000000,32913.000000,44345.000000
32690.000000,10330.000000,32889.000000,44317.000000
32686.000000,10328.000000,32870.000000,44310.000000
32683.000000,10325.000000,32860.000000,44315.000000
32673.000000,10323.000000,32856.000000,44321.000000
32675.000000,10322.000000,32859.000000,44328.000000
32698.000000,10322.000000,32870.000000,44337.000000
32721.000000,10326.000000,32888.000000,44348.000000
32736.000000,10334.000000,32909.000000,44362.000000
32759.000000,10345.000000,32929.000000,44382.000000
32790.000000,10356.000000,32952.000000,44408.000000
32810.000000,10365.000000,32978.000000,44434.000000
32817.000000,10373.000000,33005.000000,44460.000000
32831.000000,10379.000000,33031.000000,44489.000000
32858.000000,10387.000000,33058.000000,44525.000000
32880.000000,10395.000000,33085.000000,44561.000000
32898.000000,10402.000000,33112.000000,44591.000000
32927.000000,10412.000000,33139.000000,44619.000000
32963.000000,10424.000000,33168.000000,44648.000000
32986.000000,10435.000000,33193.000000,44674.000000
32998.000000,10443.000000,33212.000000,44684.000000
33017.000000,10451.000000,33227.000000,44675.000000
33037.000000,10457.000000,33235.000000,44655.000000
33036.000000,10459.000000,33232.000000,44631.000000
33016.000000,10453.000000,33216.000000,44602.000000
32997.000000,10443.000000,33189.000000,44576.000000
32977.000000,10430.000000,33153.000000,44554.000000
32938.000000,10414.000000,33108.000000,44530.000000
32888.000000,10393.000000,33054.000000,44500.000000
32849.000000,10371.000000,32999.000000,44462.000000
32817.000000,10347.000000,32944.000000,44415.000000
32776.000000,10322.000000,32890.000000,44354.000000
32730.000000,10293.000000,32834.000000,44290.000000
32691.000000,10265.000000,32780.000000,44231.000000
32652.000000,10242.000000,32724.000000,44171.000000
32601.000000,10222.000000,32665.000000,44108.000000
32551.000000,10200.000000,32605.000000,44047.000000
32513.000000,10178.000000,32544.000000,43999.000000
32473.000000,10153.000000,32483.000000,43966.000000
32423.000000,10123.000000,32424.000000,43937.000000
32374.000000,10093.000000,32367.000000,43906.000000
32342.000000,10071.000000,32316.000000,43876.000000
32312.000000,10055.000000,32267.000000,43838.000000
32272.000000,10042.000000,32216.000000,43783.000000
32237.000000,10029.000000,32163.000000,43714.000000
32214.000000,10016.000000,32110.000000,43640.000000
32182.000000,10001.000000,32060.000000,43567.000000
32134.000000,9981.000000,32012.000000,43505.000000
32088.000000,9959.000000,31964.000000,43457.000000
32052.000000,9937.000000,31918.000000,43413.000000
32012.000000,9916.000000,31875.000000,43371.000000
31968.000000,9894.000000,31833.000000,43327.000000
31936.000000,9875.000000,31795.000000,43283.000000
31920.000000,9863.000000,31764.000000,43243.000000
31898.000000,9854.000000,31737.000000,43199.000000
31865.000000,9842.000000,31709.000000,43150.000000
31840.000000,9826.000000,31682.000000,43105.000000
31824.000000,9809.000000,31653.000000,43072.000000
31798.000000,9790.000000,31619.000000,43045.000000
31764.000000,9771.000000,31583.000000,43022.000000
31739.000000,9754.000000,31551.000000,43003.000000
31724.000000,9741.000000,31525.000000,42990.000000
31706.000000,9733.000000,31503.000000,42978.000000
31685.000000,9725.000000,31482.000000,42961.000000
31679.000000,9718.000000,31466.000000,42941.000000
31679.000000,9714.000000,31454.000000,42925.000000
31665.000000,9711.000000,31444.000000,42914.000000
31643.000000,9706.000000,31433.000000,42903.000000
31632.000000,9699.000000,31417.000000,42891.000000
31626.000000,9693.000000,31395.000000,42879.000000
31611.000000,9686.000000,31367.000000,42864.000000
31591.000000,9678.000000,31336.000000,42840.000000
31585.000000,9673.000000,31310.000000,42811.000000
31581.000000,9672.000000,31291.000000,42779.000000
31561.000000,9668.000000,31273.000000,42740.000000
31536.000000,9660.000000,31255.000000,42694.000000
31523.000000,9653.000000,31237.000000,42644.000000
31509.000000,9644.000000,31220.000000,42600.000000
31478.000000,9630.000000,31197.000000,42562.000000
31445.000000,9612.000000,31166.000000,42527.000000
31426.000000,9594.000000,31132.000000,42493.000000
31408.000000,9576.000000,31096.000000,42460.000000
31376.000000,9556.000000,31060.000000,42426.000000
31345.000000,9538.000000,31024.000000,42387.000000
31323.000000,9524.000000,30989.000000,42342.000000
31295.000000,9509.000000,30950.000000,42295.000000
31250.000000,9490.000000,30907.000000,42251.000000
31204.000000,9467.000000,30863.000000,42209.000000
31168.000000,9440.000000,30819.000000,42177.000000
31132.000000,9413.000000,30773.000000,42152.000000
31097.000000,9388.000000,30733.000000,42127.000000
31080.000000,9369.000000,30707.000000,42105.000000
31088.000000,9361.000000,30704.000000,42091.000000
31109.000000,9366.000000,30728.000000,42091.000000
31147.000000,9388.000000,30782.000000,42117.000000
31223.000000,9430.000000,30869.000000,42176.000000
31337.000000,9490.000000,30990.000000,42280.000000
31469.000000,9564.000000,31139.000000,42429.000000
31617.000000,9651.000000,31314.000000,42617.000000
31796.000000,9751.000000,31516.000000,42837.000000
32003.000000,9862.000000,31745.000000,43082.000000
32218.000000,9982.000000,31994.000000,43345.000000
32434.000000,10106.000000,32254.000000,43618.000000
32665.000000,10233.000000,32520.000000,43899.000000
32906.000000,10361.000000,32791.000000,44185.000000
33134.000000,10484.000000,33060.000000,44464.000000
33346.000000,10597.000000,33320.000000,44731.000000
33556.000000,10703.000000,33568.000000,44986.000000
33758.000000,10801.000000,33806.000000,45230.000000
33935.000000,10889.000000,34030.000000,45463.000000
34095.000000,10968.000000,34235.000000,45682.000000
34253.000000,11042.000000,34419.000000,45890.000000
34399.000000,11110.000000,34583.000000,46074.000000
34515.000000,11169.000000,34724.000000,46225.000000
34610.000000,11218.000000,34841.000000,46348.000000
34698.000000,11261.000000,34938.000000,46451.000000
34768.000000,11297.000000,35015.000000,46532.000000
34804.000000,11319.000000,35070.000000,46591.000000
34820.000000,11332.000000,35100.000000,46627.000000
34833.000000,11337.000000,35110.000000,46648.000000
34834.000000,11336.000000,35107.000000,46656.000000
34815.000000,11327.000000,35094.000000,46657.000000
34791.000000,11311.000000,35070.000000,46653.000000
34774.000000,11294.000000,35039.000000,46643.000000
34752.000000,11278.000000,35004.000000,46622.000000
34714.000000,11260.000000,34966.000000,46585.000000
34677.000000,11241.000000,34926.000000,46538.000000
34647.000000,11222.000000,34886.000000,46490.000000
34609.000000,11202.000000,34848.000000,46452.000000
34558.000000,11176.000000,34808.000000,46422.000000
34510.000000,11146.000000,34762.000000,46395.000000
34473.000000,11118.000000,34712.000000,46360.000000
34433.000000,11091.000000,34661.000000,46310.000000
34384.000000,11065.000000,34605.000000,46244.000000
34345.000000,11041.000000,34545.000000,46174.000000
34318.000000,11021.000000,34488.000000,46107.000000
34284.000000,11001.000000,34431.000000,46040.000000
34234.000000,10978.000000,34370.000000,45971.000000
34186.000000,10955.000000,34305.000000,45903.000000
34147.000000,10933.000000,34245.000000,45845.000000
34103.000000,10909.000000,34191.000000,45790.000000
34053.000000,10885.000000,34140.000000,45729.000000
34014.000000,10863.000000,34092.000000,45673.000000
33989.000000,10848.000000,34051.000000,45631.000000
33964.000000,10839.000000,34022.000000,45608.000000
33941.000000,10832.000000,34004.000000,45599.000000
33941.000000,10829.000000,33997.000000,45598.000000
33959.000000,10832.000000,34004.000000,45602.000000
33974.000000,10839.000000,34019.000000,45609.000000
33983.000000,10847.000000,34040.000000,45612.000000
34001.000000,10854.000000,34065.000000,45616.000000
34025.000000,10863.000000,34094.000000,45628.000000
34038.000000,10873.000000,34121.000000,45645.000000
34050.000000,10882.000000,34141.000000,45670.000000
34074.000000,10895.000000,34159.000000,45708.000000
34104.000000,10909.000000,34178.000000,45752.000000
34123.000000,10921.000000,34195.000000,45790.000000
34140.000000,10931.000000,34209.000000,45820.000000
34172.000000,10943.000000,34224.000000,45844.000000
34205.000000,10958.000000,34241.000000,45862.000000
34222.000000,10968.000000,34257.000000,45869.000000
34235.000000,10972.000000,34270.000000,45874.000000
34259.000000,10976.000000,34281.000000,45886.000000
34277.000000,10980.000000,34290.000000,45902.000000
34271.000000,10975.000000,34292.000000,45911.000000
34255.000000,10966.000000,34283.000000,45918.000000
34248.000000,10957.000000,34268.000000,45927.000000
34239.000000,10948.000000,34251.000000,45931.000000
34216.000000,10937.000000,34233.000000,45918.000000
34194.000000,10925.000000,34207.000000,45887.000000
34177.000000,10915.000000,34175.000000,45845.000000
34151.000000,10902.000000,34139.000000,45797.000000
34109.000000,10886.000000,34100.000000,45742.000000
34070.000000,10864.000000,34052.000000,45683.000000
34036.000000,10838.000000,33999.000000,45628.000000
33994.000000,10811.000000,33944.000000,45576.000000
33943.000000,10783.000000,33883.000000,45522.000000
33900.000000,10756.000000,33818.000000,45463.000000
33867.000000,10734.000000,33753.000000,45400.000000
33829.000000,10714.000000,33692.000000,45335.000000
33781.000000,10694.000000,33632.000000,45261.000000
33736.000000,10674.000000,33573.000000,45187.000000
33696.000000,10656.000000,33519.000000,45124.000000
33644.000000,10636.000000,33469.000000,45066.000000
33579.000000,10614.000000,33419.000000,45007.000000
33520.000000,10592.000000,33366.000000,44951.000000
33471.000000,10569.000000,33309.000000,44902.000000
33417.000000,10542.000000,33246.000000,44853.000000
33362.000000,10511.000000,33182.000000,44800.000000
33319.000000,10483.000000,33120.000000,44753.000000
33284.000000,10458.000000,33064.000000,44711.000000
33240.000000,10432.000000,33012.000000,44660.000000
33191.000000,10406.000000,32960.000000,44602.000000
33156.000000,10387.000000,32912.000000,44546.000000
33128.000000,10373.000000,32870.000000,44494.000000
33092.000000,10358.000000,32831.000000,44444.000000
33055.000000,10341.000000,32793.000000,44404.000000
33030.000000,10323.000000,32754.000000,44380.000000
33011.000000,10306.000000,32716.000000,44363.000000
32983.000000,10290.000000,32677.000000,44345.000000
32956.000000,10275.000000,32638.000000,44326.000000
32942.000000,10261.000000,32604.000000,44304.000000
32931.000000,10250.000000,32578.000000,44277.000000
32909.000000,10239.000000,32557.000000,44244.000000
32885.000000,10226.000000,32535.000000,44210.000000
32869.000000,10213.000000,32511.000000,44172.000000
32846.000000,10198.000000,32487.000000,44132.000000
32806.000000,10179.000000,32457.000000,44094.000000
32767.000000,10160.000000,32419.000000,44059.000000
32744.000000,10145.000000,32381.000000,44035.000000
32724.000000,10134.000000,32346.000000,44020.000000
32693.000000,10124.000000,32313.000000,44000.000000
32666.000000,10114.000000,32282.000000,43970.000000
32651.000000,10106.000000,32259.000000,43933.000000
32631.000000,10100.000000,32243.000000,43893.000000
32599.000000,10092.000000,32226.000000,43852.000000
32570.000000,10081.000000,32204.000000,43811.000000
32549.000000,10067.000000,32177.000000,43775.000000
32523.000000,10054.000000,32152.000000,43746.000000
32491.000000,10041.000000,32125.000000,43719.000000
32471.000000,10030.000000,32093.000000,43702.000000
32463.000000,10022.000000,32061.000000,43691.000000
32447.000000,10015.000000,32033.000000,43675.000000
32423.000000,10007.000000,32005.000000,43642.000000
32409.000000,9999.000000,31979.000000,43592.000000
32399.000000,9990.000000,31952.000000,43535.000000
32374.000000,9977.000000,31920.000000,43471.000000
32334.000000,9957.000000,31880.000000,43407.000000
32302.000000,9933.000000,31835.000000,43356.000000
32279.000000,9910.000000,31793.000000,43321.000000
32248.000000,9892.000000,31755.000000,43299.000000
32215.000000,9880.000000,31723.000000,43279.000000
32199.000000,9873.000000,31704.000000,43256.000000
32200.000000,9876.000000,31703.000000,43237.000000
32206.000000,9887.000000,31721.000000,43233.000000
32225.000000,9907.000000,31758.000000,43253.000000
32278.000000,9939.000000,31820.000000,43308.000000
32364.000000,9982.000000,31912.000000,43401.000000
32474.000000,10038.000000,32038.000000,43533.000000
32616.000000,10107.000000,32198.000000,43703.000000
32800.000000,10195.000000,32391.000000,43907.000000
33006.000000,10299.000000,32612.000000,44139.000000
33215.000000,10414.000000,32855.000000,44390.000000
33431.000000,10533.000000,33114.000000,44655.000000
33662.000000,10657.000000,33382.000000,44927.000000
33895.000000,10780.000000,33658.000000,45202.000000
34115.000000,10900.000000,33932.000000,45474.000000
34330.000000,11015.000000,34197.000000,45743.000000
34547.000000,11129.000000,34450.000000,46019.000000
34752.000000,11238.000000,34694.000000,46293.000000
34936.000000,11340.000000,34926.000000,46554.000000
35110.000000,11434.000000,35142.000000,46796.000000
35281.000000,11520.000000,35342.000000,47012.000000
35431.000000,11595.000000,35522.000000,47197.000000
35551.000000,11657.000000,35677.000000,47352.000000
35655.000000,11707.000000,35806.000000,47489.000000
35750.000000,11747.000000,35912.000000,47612.000000
35823.000000,11778.000000,35998.000000,47716.000000
35871.000000,11800.000000,36060.000000,47798.000000
35909.000000,11817.000000,36099.000000,47860.000000
35945.000000,11831.000000,36125.000000,47901.000000
35962.000000,11840.000000,36142.000000,47919.000000
35959.000000,11843.000000,36146.000000,47914.000000
35955.000000,11841.000000,36140.000000,47893.000000
35949.000000,11835.000000,36126.000000,47865.000000
35924.000000,11822.000000,36103.000000,47834.000000
35882.000000,11801.000000,36070.000000,47801.000000
35842.000000,11776.000000,36026.000000,47767.000000
35807.000000,11750.000000,35982.000000,47736.000000
35766.000000,11725.000000,35940.000000,47707.000000
35721.000000,11700.000000,35898.000000,47672.000000
35691.000000,11676.000000,35859.000000,47633.000000
35672.000000,11658.000000,35825.000000,47591.000000
35641.000000,11643.000000,35792.000000,47545.000000
35602.000000,11628.000000,35752.000000,47496.000000
35573.000000,11613.000000,35706.000000,47446.000000
35547.000000,11596.000000,35657.000000,47396.000000
35507.000000,11576.000000,35604.000000,47347.000000
35463.000000,11553.000000,35545.000000,47306.000000
35428.000000,11532.000000,35488.000000,47274.000000
35397.000000,11513.000000,35436.000000,47245.000000
35354.000000,11493.000000,35384.000000,47206.000000
35313.000000,11472.000000,35332.000000,47162.000000
35292.000000,11455.000000,35284.000000,47120.000000
35275.000000,11440.000000,35244.000000,47074.000000
35247.000000,11423.000000,35212.000000,47020.000000
35219.000000,11407.000000,35186.000000,46969.000000
35206.000000,11398.000000,35167.000000,46936.000000
35195.000000,11395.000000,35154.000000,46920.000000
35178.000000,11393.000000,35145.000000,46914.000000
35167.000000,11390.000000,35141.000000,46916.000000
35173.000000,11389.000000,35147.000000,46932.000000
35185.000000,11392.000000,35163.000000,46957.000000
35192.000000,11396.000000,35183.000000,46983.000000
35207.000000,11400.000000,35205.000000,47007.000000
35235.000000,11409.000000,35230.000000,47034.000000
35263.000000,11422.000000,35259.000000,47059.000000
35284.000000,11438.000000,35289.000000,47076.000000
35310.000000,11453.000000,35317.000000,47084.000000
35343.000000,11466.000000,35343.000000,47101.000000
35371.000000,11475.000000,35367.000000,47123.000000
35391.000000,11482.000000,35387.000000,47142.000000
35416.000000,11488.000000,35401.000000,47162.000000
35447.000000,11495.000000,35415.000000,47181.000000
35463.000000,11501.000000,35423.000000,47194.000000
35459.000000,11500.000000,35421.000000,47191.000000
35452.000000,11496.000000,35412.000000,47175.000000
35441.000000,11491.000000,35396.000000,47157.000000
35411.000000,11480.000000,35373.000000,47132.000000
35366.000000,11460.000000,35339.000000,47104.000000
35324.000000,11437.000000,35299.000000,47081.000000
35290.000000,11415.000000,35259.000000,47055.000000
35248.000000,11392.000000,35220.000000,47013.000000
35201.000000,11369.000000,35177.000000,46956.000000
35162.000000,11348.000000,35134.000000,46894.000000
35127.000000,11327.000000,35089.000000,46837.000000
35078.000000,11307.000000,35040.000000,46776.000000
35023.000000,11284.000000,34985.000000,46711.000000
34978.000000,11258.000000,34926.000000,46650.000000
34941.000000,11232.000000,34868.000000,46594.000000
34897.000000,11206.000000,34813.000000,46544.000000
34852.000000,11179.000000,34756.000000,46499.000000
34819.000000,11152.000000,34693.000000,46456.000000
34790.000000,11128.000000,34631.000000,46412.000000
34750.000000,11106.000000,34567.000000,46362.000000
34704.000000,11082.000000,34501.000000,46303.000000
34662.000000,11058.000000,34437.000000,46238.000000
34614.000000,11034.000000,34378.000000,46168.000000
34552.000000,11008.000000,34319.000000,46102.000000
34488.000000,10981.000000,34256.000000,46049.000000
34437.000000,10955.000000,34194.000000,46007.000000
34391.000000,10932.000000,34136.000000,45958.000000
34338.000000,10910.000000,34079.000000,45895.000000
34290.000000,10887.000000,34020.000000,45836.000000
34254.000000,10865.000000,33964.000000,45786.000000
34216.000000,10841.000000,33908.000000,45739.000000
34164.000000,10812.000000,33851.000000,45690.000000
34115.000000,10784.000000,33797.000000,45648.000000
34080.000000,10763.000000,33750.000000,45619.000000
34046.000000,10748.000000,33709.000000,45591.000000
34007.000000,10734.000000,33674.000000,45555.000000
33977.000000,10721.000000,33643.000000,45515.000000
33956.000000,10708.000000,33616.000000,45473.000000
33927.000000,10693.000000,33591.000000,45429.000000
33887.000000,10671.000000,33558.000000,45379.000000
33850.000000,10646.000000,33519.000000,45326.000000
33820.000000,10624.000000,33483.000000,45285.000000
33783.000000,10604.000000,33453.000000,45256.000000
33746.000000,10587.000000,33420.000000,45224.000000
33725.000000,10575.000000,33384.000000,45187.000000
33713.000000,10565.000000,33349.000000,45152.000000
33690.000000,10555.000000,33318.000000,45112.000000
33657.000000,10543.000000,33286.000000,45064.000000
33634.000000,10532.000000,33253.000000,45015.000000
33617.000000,10521.000000,33223.000000,44967.000000
33588.000000,10506.000000,33193.000000,44917.000000
33547.000000,10487.000000,33156.000000,44864.000000
33512.000000,10469.000000,33116.000000,44814.000000
33483.000000,10453.000000,33075.000000,44774.000000
33451.000000,10439.000000,33037.000000,44748.000000
33422.000000,10425.000000,33002.000000,44732.000000
33406.000000,10412.000000,32972.000000,44718.000000
33392.000000,10399.000000,32946.000000,44697.000000
33367.000000,10385.000000,32920.000000,44676.000000
33338.000000,10372.000000,32893.000000,44660.000000
33318.000000,10361.000000,32868.000000,44642.000000
33298.000000,10350.000000,32844.000000,44611.000000
33264.000000,10338.000000,32817.000000,44571.000000
33225.000000,10324.000000,32784.000000,44527.000000
33189.000000,10311.000000,32745.000000,44480.000000
33146.000000,10293.000000,32701.000000,44426.000000
33086.000000,10269.000000,32650.000000,44368.000000
33025.000000,10241.000000,32591.000000,44314.000000
32974.000000,10214.000000,32532.000000,44268.000000
32926.000000,10187.000000,32476.000000,44223.000000
32874.000000,10161.000000,32422.000000,44173.000000
32831.000000,10138.000000,32371.000000,44120.000000
32805.000000,10119.000000,32327.000000,44067.000000
32781.000000,10104.000000,32293.000000,44019.000000
32760.000000,10095.000000,32271.000000,43981.000000
32757.000000,10098.000000,32272.000000,43965.000000
32784.000000,10115.000000,32304.000000,43980.000000
32833.000000,10147.000000,32372.000000,44028.000000
32906.000000,10191.000000,32470.000000,44114.000000
33019.000000,10249.000000,32598.000000,44245.000000
33176.000000,10325.000000,32761.000000,44419.000000
33355.000000,10413.000000,32960.000000,44630.000000
33546.000000,10516.000000,33188.000000,44870.000000
33765.000000,10634.000000,33442.000000,45136.000000
34007.000000,10766.000000,33715.000000,45419.000000
34250.000000,10902.000000,33998.000000,45702.000000
34489.000000,11036.000000,34284.000000,45980.000000
34732.000000,11167.000000,34572.000000,46256.000000
34972.000000,11294.000000,34858.000000,46533.000000
35191.000000,11414.000000,35138.000000,46805.000000
35390.000000,11524.000000,35402.000000,47069.000000
35580.000000,11625.000000,35643.000000,47327.000000
35759.000000,11717.000000,35862.000000,47566.000000
35910.000000,11795.000000,36058.000000,47779.000000
36036.000000,11862.000000,36231.000000,47965.000000
36150.000000,11923.000000,36378.000000,48126.000000
36251.000000,11975.000000,36503.000000,48258.000000
36326.000000,12016.000000,36606.000000,48354.000000
36382.000000,12047.000000,36685.000000,48419.000000
36431.000000,12072.000000,36743.000000,48470.000000
36468.000000,12089.000000,36785.000000,48514.000000
36480.000000,12093.000000,36808.000000,48544.000000
36475.000000,12089.000000,36811.000000,48560.000000
36468.000000,12081.000000,36800.000000,48569.000000
36454.000000,12071.000000,36778.000000,48568.000000
36420.000000,12057.000000,36745.000000,48557.000000
36380.000000,12038.000000,36704.000000,48545.000000
36346.000000,12018.000000,36658.000000,48528.000000
36316.000000,11999.000000,36616.000000,48497.000000
36278.000000,11981.000000,36575.000000,48451.000000
36239.000000,11959.000000,36531.000000,48398.000000
36209.000000,11937.000000,36484.000000,48351.000000
36173.000000,11916.000000,36440.000000,48311.000000
36122.000000,11891.000000,36395.000000,48268.000000
36069.000000,11863.000000,36348.000000,48217.000000
36028.000000,11835.000000,36300.000000,48164.000000
35988.000000,11809.000000,36251.000000,48109.000000
35939.000000,11782.000000,36201.000000,48055.000000
35893.000000,11754.000000,36150.000000,48002.000000
35857.000000,11728.000000,36099.000000,47940.000000
35812.000000,11699.000000,36049.000000,47868.000000
35756.000000,11667.000000,35996.000000,47794.000000
35703.000000,11638.000000,35940.000000,47724.000000
35662.000000,11613.000000,35887.000000,47662.000000
35619.000000,11590.000000,35835.000000,47601.000000
35571.000000,11568.000000,35784.000000,47543.000000
35535.000000,11550.000000,35736.000000,47500.000000
35511.000000,11537.000000,35698.000000,47474.000000
35484.000000,11526.000000,35669.000000,47456.000000
35459.000000,11516.000000,35646.000000,47445.000000
35451.000000,11510.000000,35630.000000,47443.000000
35458.000000,11507.000000,35623.000000,47443.000000
35462.000000,11509.000000,35622.000000,47441.000000
35461.000000,11515.000000,35624.000000,47437.000000
35470.000000,11524.000000,35629.000000,47438.000000
35492.000000,11535.000000,35639.000000,47449.000000
35511.000000,11548.000000,35655.000000,47466.000000
35529.000000,11561.000000,35672.000000,47487.000000
35552.000000,11574.000000,35691.000000,47515.000000
35580.000000,11589.000000,35714.000000,47546.000000
35600.000000,11600.000000,35738.000000,47578.000000
35617.000000,11608.000000,35757.000000,47610.000000
35641.000000,11617.000000,35772.000000,47642.000000
35668.000000,11625.000000,35788.000000,47670.000000
35686.000000,11629.000000,35802.000000,47685.000000
35698.000000,11630.000000,35810.000000,47689.000000
35714.000000,11633.000000,35813.000000,47688.000000
35726.000000,11640.000000,35817.000000,47679.000000
35722.000000,11646.000000,35820.000000,47662.000000
35711.000000,11649.000000,35816.000000,47639.000000
35698.000000,11649.000000,35804.000000,47613.000000
35677.000000,11643.000000,35785.000000,47582.000000
35639.000000,11627.000000,35755.000000,47552.000000
35596.000000,11604.000000,35716.000000,47527.000000
35557.000000,11577.000000,35670.000000,47502.000000
35514.000000,11550.000000,35622.000000,47469.000000
35463.000000,11522.000000,35572.000000,47427.000000
35416.000000,11497.000000,35517.000000,47385.000000
35379.000000,11475.000000,35459.000000,47336.000000
35337.000000,11452.000000,35398.000000,47270.000000
35282.000000,11424.000000,35335.000000,47189.000000
35228.000000,11395.000000,35271.000000,47108.000000
35179.000000,11364.000000,35204.000000,47031.000000
35124.000000,11333.000000,35137.000000,46949.000000
35061.000000,11302.000000,35068.000000,46860.000000
35005.000000,11272.000000,34998.000000,46772.000000
34958.000000,11244.000000,34930.000000,46691.000000
34902.000000,11216.000000,34862.000000,46621.000000
34840.000000,11186.000000,34793.000000,46559.000000
34788.000000,11158.000000,34727.000000,46512.000000
34745.000000,11135.000000,34667.000000,46477.000000
34698.000000,11115.000000,34612.000000,46433.000000
34647.000000,11096.000000,34561.000000,46373.000000
34609.000000,11081.000000,34514.000000,46307.000000
34578.000000,11070.000000,34470.000000,46248.000000
34538.000000,11057.000000,34427.000000,46193.000000
34491.000000,11037.000000,34381.000000,46143.000000
34453.000000,11013.000000,34333.000000,46109.000000
34419.000000,10988.000000,34287.000000,46087.000000
34372.000000,10960.000000,34238.000000,46060.000000
34323.000000,10930.000000,34187.000000,46024.000000
34287.000000,10907.000000,34139.000000,45989.000000
34255.000000,10890.000000,34098.000000,45950.000000
34215.000000,10876.000000,34063.000000,45896.000000
34174.000000,10862.000000,34027.000000,45835.000000
34146.000000,10849.000000,33992.000000,45775.000000
34123.000000,10840.000000,33960.000000,45716.000000
34093.000000,10830.000000,33927.000000,45660.000000
34063.000000,10818.000000,33888.000000,45619.000000
34045.000000,10805.000000,33848.000000,45593.000000
34027.000000,10790.000000,33812.000000,45569.000000
34002.000000,10773.000000,33777.000000,45541.000000
33981.000000,10756.000000,33743.000000,45512.000000
33972.000000,10744.000000,33713.000000,45479.000000
33962.000000,10734.000000,33690.000000,45440.000000
33941.000000,10722.000000,33666.000000,45399.000000
33916.000000,10708.000000,33639.000000,45364.000000
33893.000000,10694.000000,33609.000000,45341.000000
33864.000000,10678.000000,33578.000000,45321.000000
33827.000000,10660.000000,33544.000000,45297.000000
33796.000000,10643.000000,33511.000000,45276.000000
33777.000000,10630.000000,33481.000000,45263.000000
33752.000000,10619.000000,33451.000000,45249.000000
33717.000000,10611.000000,33421.000000,45225.000000
33685.000000,10604.000000,33393.000000,45196.000000
33660.000000,10598.000000,33366.000000,45162.000000
33628.000000,10588.000000,33339.000000,45115.000000
33585.000000,10572.000000,33308.000000,45058.000000
33550.000000,10554.000000,33272.000000,44998.000000
33522.000000,10535.000000,33235.000000,44943.000000
33482.000000,10513.000000,33195.000000,44886.000000
33432.000000,10488.000000,33146.000000,44823.000000
33389.000000,10462.000000,33091.000000,44767.000000
33353.000000,10437.000000,33036.000000,44722.000000
33315.000000,10414.000000,32987.000000,44686.000000
33277.000000,10394.000000,32943.000000,44653.000000
33256.000000,10381.000000,32908.000000,44628.000000
33253.000000,10379.000000,32893.000000,44621.000000
33260.000000,10389.000000,32901.000000,44637.000000
33288.000000,10410.000000,32933.000000,44677.000000
33350.000000,10442.000000,32996.000000,44743.000000
33439.000000,10489.000000,33097.000000,44835.000000
33546.000000,10548.000000,33228.000000,44952.000000
33677.000000,10619.000000,33385.000000,45093.000000
33838.000000,10705.000000,33570.000000,45265.000000
34021.000000,10804.000000,33782.000000,45470.000000
34211.000000,10912.000000,34016.000000,45702.000000
34415.000000,11025.000000,34265.000000,45954.000000
34637.000000,11145.000000,34524.000000,46218.000000
34862.000000,11268.000000,34792.000000,46486.000000
35080.000000,11388.000000,35064.000000,46752.000000
35294.000000,11503.000000,35330.000000,47010.000000
35505.000000,11613.000000,35584.000000,47256.000000
35697.000000,11719.000000,35825.000000,47490.000000
35864.000000,11815.000000,36046.000000,47710.000000
36015.000000,11904.000000,36242.000000,47916.000000
36157.000000,11986.000000,36413.000000,48107.000000
36280.000000,12057.000000,36563.000000,48272.000000
36378.000000,12113.000000,36694.000000,48408.000000
36465.000000,12153.000000,36803.000000,48520.000000
36545.000000,12184.000000,36898.000000,48611.000000
36606.000000,12209.000000,36977.000000,48685.000000
36642.000000,12225.000000,37033.000000,48736.000000
36664.000000,12233.000000,37067.000000,48766.000000
36676.000000,12232.000000,37081.000000,48785.000000
36668.000000,12223.000000,37078.000000,48793.000000
36638.000000,12205.000000,37058.000000,48793.000000
36605.000000,12182.000000,37025.000000,48791.000000
36578.000000,12160.000000,36989.000000,48787.000000
36545.000000,12139.000000,36948.000000,48774.000000
36501.000000,12119.000000,36902.000000,48747.000000
36462.000000,12100.000000,36854.000000,48712.000000
36428.000000,12084.000000,36809.000000,48662.000000
36384.000000,12069.000000,36765.000000,48595.000000
36331.000000,12051.000000,36717.000000,48520.000000
36281.000000,12032.000000,36666.000000,48447.000000
36238.000000,12014.000000,36616.000000,48380.000000
36188.000000,11994.000000,36566.000000,48321.000000
36138.000000,11972.000000,36514.000000,48273.000000
36101.000000,11950.000000,36463.000000,48236.000000
36070.000000,11929.000000,36413.000000,48199.000000
36033.000000,11910.000000,36364.000000,48152.000000
35993.000000,11892.000000,36316.000000,48096.000000
35964.000000,11878.000000,36271.000000,48034.000000
35937.000000,11865.000000,36230.000000,47973.000000
35902.000000,11848.000000,36190.000000,47915.000000
35867.000000,11827.000000,36151.000000,47865.000000
35844.000000,11809.000000,36115.000000,47827.000000
35826.000000,11795.000000,36084.000000,47799.000000
35806.000000,11783.000000,36054.000000,47776.000000
35793.000000,11773.000000,36028.000000,47761.000000
35800.000000,11770.000000,36016.000000,47763.000000
35816.000000,11775.000000,36017.000000,47775.000000
35828.000000,11783.000000,36026.000000,47788.000000
35842.000000,11795.000000,36041.000000,47807.000000
35866.000000,11813.000000,36061.000000,47832.000000
35890.000000,11831.000000,36085.000000,47856.000000
35905.000000,11846.000000,36108.000000,47883.000000
35925.000000,11859.000000,36133.000000,47922.000000
35958.000000,11873.000000,36160.000000,47967.000000
35994.000000,11890.000000,36191.000000,48003.000000
