660nm,730nm,850nm,940nm
9511.000000,57608.000000,26567.000000,4435.000000
9478.000000,57568.000000,26515.000000,4407.000000
9449.000000,57532.000000,26471.000000,4383.000000
9426.000000,57503.000000,26428.000000,4365.000000
9401.000000,57479.000000,26380.000000,4348.000000
9373.000000,57459.000000,26332.000000,4325.000000
9350.000000,57444.000000,26288.000000,4291.000000
9331.000000,57429.000000,26247.000000,4242.000000
9309.000000,57415.000000,26204.000000,4179.000000
9287.000000,57399.000000,26169.000000,4112.000000
9264.000000,57385.000000,26146.000000,4046.000000
9237.000000,57369.000000,26123.000000,3991.000000
9206.000000,57346.000000,26090.000000,3946.000000
9171.000000,57315.000000,26051.000000,3905.000000
9138.000000,57284.000000,26009.000000,3875.000000
9107.000000,57253.000000,25961.000000,3855.000000
9078.000000,57221.000000,25905.000000,3834.000000
9048.000000,57191.000000,25848.000000,3802.000000
9021.000000,57164.000000,25796.000000,3760.000000
8993.000000,57142.000000,25748.000000,3723.000000
8963.000000,57125.000000,25709.000000,3690.000000
8938.000000,57111.000000,25681.000000,3657.000000
8917.000000,57097.000000,25655.000000,3624.000000
8897.000000,57083.000000,25626.000000,3581.000000
8874.000000,57062.000000,25589.000000,3530.000000
8847.000000,57034.000000,25552.000000,3478.000000
8817.000000,57004.000000,25510.000000,3435.000000
8785.000000,56975.000000,25462.000000,3399.000000
8755.000000,56948.000000,25414.000000,3368.000000
8727.000000,56923.000000,25372.000000,3346.000000
8706.000000,56905.000000,25340.000000,3333.000000
8696.000000,56899.000000,25323.000000,3336.000000
8708.000000,56909.000000,25337.000000,3374.000000
8759.000000,56949.000000,25399.000000,3447.000000
8856.000000,57029.000000,25513.000000,3554.000000
9003.000000,57155.000000,25687.000000,3700.000000
9200.000000,57328.000000,25932.000000,3896.000000
9446.000000,57549.000000,26253.000000,4154.000000
9735.000000,57807.000000,26632.000000,4467.000000
10052.000000,58084.000000,27045.000000,4812.000000
10388.000000,58371.000000,27483.000000,5181.000000
10731.000000,58657.000000,27929.000000,5567.000000
11069.000000,58936.000000,28362.000000,5956.000000
11397.000000,59204.000000,28776.000000,6339.000000
11713.000000,59459.000000,29175.000000,6715.000000
12019.000000,59702.000000,29559.000000,7082.000000
12306.000000,59933.000000,29915.000000,7429.000000
12568.000000,60146.000000,30244.000000,7749.000000
12804.000000,60340.000000,30552.000000,8043.000000
13019.000000,60515.000000,30834.000000,8304.000000
13205.000000,60668.000000,31080.000000,8514.000000
13360.000000,60793.000000,31289.000000,8668.000000
13490.000000,60890.000000,31468.000000,8783.000000
13598.000000,60964.000000,31615.000000,8889.000000
13681.000000,61017.000000,31728.000000,8990.000000
13734.000000,61048.000000,31805.000000,9074.000000
13760.000000,61061.000000,31857.000000,9136.000000
13768.000000,61059.000000,31885.000000,9187.000000
13756.000000,61041.000000,31884.000000,9227.000000
13726.000000,61006.000000,31854.000000,9245.000000
13690.000000,60961.000000,31805.000000,9243.000000
13655.000000,60916.000000,31747.000000,9211.000000
13613.000000,60869.000000,31678.000000,9147.000000
13556.000000,60814.000000,31594.000000,9056.000000
13489.000000,60753.000000,31500.000000,8946.000000
13415.000000,60689.000000,31405.000000,8838.000000
13333.000000,60623.000000,31308.000000,8737.000000
13244.000000,60556.000000,31206.000000,8638.000000
13157.000000,60488.000000,31108.000000,8538.000000
13075.000000,60421.000000,31016.000000,8442.000000
12993.000000,60355.000000,30921.000000,8354.000000
12909.000000,60285.000000,30816.000000,8266.000000
12826.000000,60213.000000,30710.000000,8185.000000
12748.000000,60146.000000,30611.000000,8123.000000
12676.000000,60087.000000,30517.000000,8080.000000
12609.000000,60034.000000,30429.000000,8046.000000
12551.000000,59985.000000,30355.000000,8012.000000
12502.000000,59943.000000,30291.000000,7974.000000
12459.000000,59905.000000,30227.000000,7928.000000
12420.000000,59868.000000,30165.000000,7871.000000
12386.000000,59836.000000,30109.000000,7812.000000
12355.000000,59806.000000,30055.000000,7755.000000
12322.000000,59772.000000,29995.000000,7683.000000
12281.000000,59732.000000,29929.000000,7596.000000
12237.000000,59694.000000,29862.000000,7506.000000
12189.000000,59657.000000,29797.000000,7416.000000
12132.000000,59616.000000,29725.000000,7324.000000
12069.000000,59569.000000,29647.000000,7224.000000
12012.000000,59522.000000,29570.000000,7124.000000
11964.000000,59480.000000,29498.000000,7032.000000
11918.000000,59440.000000,29430.000000,6946.000000
11872.000000,59398.000000,29370.000000,6871.000000
11835.000000,59364.000000,29325.000000,6818.000000
11808.000000,59345.000000,29290.000000,6787.000000
11788.000000,59332.000000,29264.000000,6770.000000
11775.000000,59324.000000,29249.000000,6767.000000
11771.000000,59322.000000,29244.000000,6787.000000
11773.000000,59321.000000,29241.000000,6829.000000
11778.000000,59322.000000,29242.000000,6881.000000
11791.000000,59328.000000,29249.000000,6939.000000
11817.000000,59343.000000,29270.000000,7010.000000
11856.000000,59369.000000,29303.000000,7090.000000
11902.000000,59403.000000,29342.000000,7162.000000
11953.000000,59438.000000,29387.000000,7219.000000
12005.000000,59473.000000,29440.000000,7274.000000
12055.000000,59512.000000,29497.000000,7336.000000
12106.000000,59550.000000,29551.000000,7386.000000
12161.000000,59586.000000,29603.000000,7419.000000
12221.000000,59623.000000,29658.000000,7452.000000
12282.000000,59660.000000,29711.000000,7487.000000
12336.000000,59698.000000,29760.000000,7521.000000
12384.000000,59738.000000,29810.000000,7547.000000
12423.000000,59778.000000,29857.000000,7562.000000
12452.000000,59813.000000,29897.000000,7578.000000
12470.000000,59839.000000,29930.000000,7592.000000
12479.000000,59854.000000,29956.000000,7592.000000
12479.000000,59859.000000,29971.000000,7581.000000
12465.000000,59856.000000,29972.000000,7562.000000
12441.000000,59843.000000,29962.000000,7539.000000
12416.000000,59824.000000,29947.000000,7520.000000
12390.000000,59801.000000,29921.000000,7504.000000
12358.000000,59772.000000,29881.000000,7481.000000
12322.000000,59735.000000,29834.000000,7454.000000
12287.000000,59697.000000,29785.000000,7429.000000
12251.000000,59658.000000,29732.000000,7401.000000
12214.000000,59619.000000,29676.000000,7368.000000
12177.000000,59579.000000,29622.000000,7333.000000
12143.000000,59542.000000,29570.000000,7306.000000
12111.000000,59512.000000,29518.000000,7281.000000
12077.000000,59488.000000,29463.000000,7243.000000
12042.000000,59466.000000,29407.000000,7189.000000
12010.000000,59447.000000,29351.000000,7127.000000
11980.000000,59426.000000,29295.000000,7057.000000
11943.000000,59397.000000,29236.000000,6978.000000
11893.000000,59356.000000,29175.000000,6893.000000
11835.000000,59307.000000,29108.000000,6804.000000
11773.000000,59252.000000,29030.000000,6718.000000
11708.000000,59193.000000,28944.000000,6640.000000
11648.000000,59134.000000,28858.000000,6575.000000
11594.000000,59075.000000,28773.000000,6518.000000
11536.000000,59013.000000,28681.000000,6459.000000
11471.000000,58953.000000,28586.000000,6392.000000
11405.000000,58897.000000,28501.000000,6331.000000
11347.000000,58854.000000,28431.000000,6287.000000
11294.000000,58818.000000,28364.000000,6255.000000
11243.000000,58780.000000,28296.000000,6215.000000
11195.000000,58740.000000,28230.000000,6152.000000
11153.000000,58704.000000,28165.000000,6073.000000
11114.000000,58674.000000,28100.000000,5990.000000
11074.000000,58644.000000,28035.000000,5910.000000
11030.000000,58613.000000,27974.000000,5829.000000
10986.000000,58580.000000,27917.000000,5755.000000
10938.000000,58542.000000,27859.000000,5689.000000
10885.000000,58499.000000,27803.000000,5619.000000
10835.000000,58458.000000,27748.000000,5553.000000
10787.000000,58419.000000,27690.000000,5487.000000
10735.000000,58373.000000,27624.000000,5420.000000
10678.000000,58320.000000,27555.000000,5359.000000
10622.000000,58267.000000,27484.000000,5305.000000
10573.000000,58221.000000,27413.000000,5264.000000
10529.000000,58180.000000,27343.000000,5225.000000
10488.000000,58139.000000,27273.000000,5180.000000
10452.000000,58102.000000,27205.000000,5139.000000
10421.000000,58072.000000,27139.000000,5102.000000
10388.000000,58046.000000,27075.000000,5063.000000
10357.000000,58024.000000,27023.000000,5031.000000
10334.000000,58007.000000,26987.000000,5015.000000
10314.000000,57996.000000,26959.000000,4999.000000
10292.000000,57984.000000,26928.000000,4963.000000
10271.000000,57969.000000,26903.000000,4913.000000
10253.000000,57954.000000,26888.000000,4866.000000
10234.000000,57939.000000,26875.000000,4831.000000
10214.000000,57925.000000,26857.000000,4803.000000
10189.000000,57906.000000,26831.000000,4775.000000
10159.000000,57877.000000,26796.000000,4735.000000
10126.000000,57843.000000,26748.000000,4689.000000
10091.000000,57809.000000,26696.000000,4650.000000
10058.000000,57777.000000,26648.000000,4620.000000
10029.000000,57748.000000,26605.000000,4594.000000
10003.000000,57723.000000,26562.000000,4576.000000
9979.000000,57701.000000,26518.000000,4562.000000
9962.000000,57683.000000,26479.000000,4552.000000
9953.000000,57673.000000,26450.000000,4551.000000
9944.000000,57668.000000,26422.000000,4549.000000
9934.000000,57660.000000,26389.000000,4532.000000
9926.000000,57650.000000,26362.000000,4501.000000
9918.000000,57641.000000,26343.000000,4471.000000
9901.000000,57632.000000,26324.000000,4440.000000
9877.000000,57615.000000,26304.000000,4401.000000
9852.000000,57595.000000,26288.000000,4351.000000
9825.000000,57574.000000,26269.000000,4291.000000
9794.000000,57550.000000,26238.000000,4232.000000
9759.000000,57524.000000,26200.000000,4184.000000
9724.000000,57492.000000,26159.000000,4152.000000
9690.000000,57461.000000,26113.000000,4125.000000
9655.000000,57430.000000,26057.000000,4091.000000
9618.000000,57394.000000,25997.000000,4046.000000
9580.000000,57359.000000,25937.000000,3999.000000
9540.000000,57330.000000,25876.000000,3959.000000
9494.000000,57301.000000,25813.000000,3921.000000
9449.000000,57265.000000,25747.000000,3871.000000
9412.000000,57227.000000,25685.000000,3816.000000
9380.000000,57191.000000,25630.000000,3772.000000
9345.000000,57155.000000,25577.000000,3733.000000
9307.000000,57119.000000,25532.000000,3695.000000
9265.000000,57083.000000,25495.000000,3663.000000
9219.000000,57048.000000,25458.000000,3622.000000
9169.000000,57015.000000,25409.000000,3554.000000
9116.000000,56978.000000,25350.000000,3466.000000
9065.000000,56936.000000,25290.000000,3369.000000
9010.000000,56891.000000,25223.000000,3276.000000
8951.000000,56844.000000,25150.000000,3197.000000
8898.000000,56797.000000,25083.000000,3142.000000
8859.000000,56754.000000,25027.000000,3111.000000
8835.000000,56724.000000,24988.000000,3100.000000
8840.000000,56722.000000,24986.000000,3112.000000
8895.000000,56772.000000,25044.000000,3166.000000
9019.000000,56883.000000,25182.000000,3286.000000
9211.000000,57054.000000,25403.000000,3482.000000
9468.000000,57279.000000,25707.000000,3751.000000
9789.000000,57554.000000,26099.000000,4095.000000
10165.000000,57870.000000,26567.000000,4498.000000
10572.000000,58212.000000,27082.000000,4930.000000
10992.000000,58566.000000,27623.000000,5384.000000
11412.000000,58921.000000,28172.000000,5854.000000
11820.000000,59268.000000,28709.000000,6328.000000
12207.000000,59595.000000,29219.000000,6795.000000
12566.000000,59896.000000,29692.000000,7242.000000
12896.000000,60169.000000,30130.000000,7666.000000
13197.000000,60417.000000,30535.000000,8065.000000
13467.000000,60641.000000,30901.000000,8433.000000
13712.000000,60842.000000,31231.000000,8763.000000
13934.000000,61019.000000,31530.000000,9048.000000
14128.000000,61169.000000,31791.000000,9279.000000
14293.000000,61297.000000,32014.000000,9462.000000
14431.000000,61401.000000,32204.000000,9614.000000
14543.000000,61480.000000,32357.000000,9739.000000
14624.000000,61538.000000,32472.000000,9836.000000
14676.000000,61577.000000,32557.000000,9905.000000
14707.000000,61599.000000,32622.000000,9952.000000
14724.000000,61607.000000,32668.000000,9988.000000
14730.000000,61606.000000,32691.000000,10016.000000
14724.000000,61594.000000,32684.000000,10027.000000
14701.000000,61566.000000,32645.000000,10027.000000
14666.000000,61527.000000,32583.000000,10024.000000
14624.000000,61482.000000,32509.000000,10004.000000
14571.000000,61427.000000,32421.000000,9951.000000
14509.000000,61361.000000,32330.000000,9861.000000
14440.000000,61294.000000,32241.000000,9751.000000
14363.000000,61226.000000,32147.000000,9642.000000
14276.000000,61151.000000,32045.000000,9539.000000
14183.000000,61073.000000,31944.000000,9443.000000
14092.000000,60991.000000,31848.000000,9363.000000
14007.000000,60907.000000,31754.000000,9291.000000
13924.000000,60824.000000,31657.000000,9223.000000
13845.000000,60748.000000,31560.000000,9165.000000
13778.000000,60684.000000,31470.000000,9115.000000
13722.000000,60637.000000,31389.000000,9063.000000
13673.000000,60602.000000,31320.000000,9010.000000
13632.000000,60576.000000,31268.000000,8960.000000
13598.000000,60555.000000,31226.000000,8909.000000
13568.000000,60536.000000,31184.000000,8859.000000
13535.000000,60515.000000,31146.000000,8807.000000
13502.000000,60494.000000,31119.000000,8753.000000
13472.000000,60468.000000,31088.000000,8698.000000
13437.000000,60433.000000,31040.000000,8644.000000
13393.000000,60393.000000,30979.000000,8594.000000
13343.000000,60354.000000,30915.000000,8544.000000
13295.000000,60319.000000,30848.000000,8496.000000
13244.000000,60283.000000,30773.000000,8445.000000
13190.000000,60241.000000,30694.000000,8383.000000
13143.000000,60200.000000,30621.000000,8323.000000
13104.000000,60165.000000,30560.000000,8272.000000
13065.000000,60133.000000,30504.000000,8216.000000
13019.000000,60100.000000,30450.000000,8157.000000
12973.000000,60071.000000,30400.000000,8112.000000
12931.000000,60044.000000,30358.000000,8078.000000
12894.000000,60017.000000,30320.000000,8048.000000
12862.000000,59994.000000,30289.000000,8024.000000
12843.000000,59979.000000,30268.000000,8018.000000
12839.000000,59973.000000,30259.000000,8033.000000
12845.000000,59974.000000,30261.000000,8058.000000
12860.000000,59981.000000,30274.000000,8083.000000
12886.000000,59996.000000,30298.000000,8109.000000
12923.000000,60020.000000,30330.000000,8140.000000
12964.000000,60049.000000,30370.000000,8170.000000
13007.000000,60082.000000,30420.000000,8189.000000
13053.000000,60121.000000,30478.000000,8203.000000
13099.000000,60163.000000,30534.000000,8213.000000
13138.000000,60199.000000,30584.000000,8214.000000
13166.000000,60228.000000,30627.000000,8214.000000
13188.000000,60249.000000,30656.000000,8227.000000
13209.000000,60267.000000,30674.000000,8257.000000
13230.000000,60285.000000,30690.000000,8296.000000
13250.000000,60301.000000,30709.000000,8341.000000
13276.000000,60318.000000,30735.000000,8390.000000
13304.000000,60341.000000,30761.000000,8431.000000
13326.000000,60362.000000,30782.000000,8448.000000
13341.000000,60379.000000,30799.000000,8453.000000
13350.000000,60390.000000,30812.000000,8456.000000
13351.000000,60398.000000,30822.000000,8458.000000
13340.000000,60397.000000,30827.000000,8462.000000
13325.000000,60387.000000,30827.000000,8465.000000
13310.000000,60370.000000,30819.000000,8464.000000
13290.000000,60346.000000,30794.000000,8457.000000
13266.000000,60318.000000,30755.000000,8443.000000
13245.000000,60288.000000,30715.000000,8417.000000
13217.000000,60258.000000,30670.000000,8367.000000
13178.000000,60229.000000,30611.000000,8299.000000
13136.000000,60203.000000,30546.000000,8226.000000
13097.000000,60183.000000,30495.000000,8158.000000
13057.000000,60163.000000,30447.000000,8098.000000
13011.000000,60135.000000,30396.000000,8042.000000
12958.000000,60099.000000,30339.000000,7990.000000
12902.000000,60058.000000,30275.000000,7946.000000
12848.000000,60013.000000,30206.000000,7910.000000
12789.000000,59962.000000,30133.000000,7872.000000
12727.000000,59902.000000,30052.000000,7820.000000
12666.000000,59841.000000,29966.000000,7757.000000
12606.000000,59785.000000,29879.000000,7687.000000
12544.000000,59727.000000,29791.000000,7615.000000
12481.000000,59669.000000,29705.000000,7541.000000
12424.000000,59617.000000,29626.000000,7466.000000
12372.000000,59573.000000,29555.000000,7389.000000
12319.000000,59533.000000,29489.000000,7309.000000
12268.000000,59493.000000,29426.000000,7222.000000
12221.000000,59456.000000,29369.000000,7132.000000
12171.000000,59417.000000,29311.000000,7047.000000
12113.000000,59368.000000,29247.000000,6973.000000
12050.000000,59312.000000,29180.000000,6921.000000
11987.000000,59256.000000,29111.000000,6895.000000
11920.000000,59201.000000,29038.000000,6884.000000
11852.000000,59144.000000,28958.000000,6871.000000
11790.000000,59086.000000,28874.000000,6849.000000
11743.000000,59034.000000,28790.000000,6813.000000
11704.000000,58987.000000,28709.000000,6765.000000
11665.000000,58944.000000,28630.000000,6701.000000
11628.000000,58906.000000,28558.000000,6625.000000
11597.000000,58878.000000,28498.000000,6545.000000
11567.000000,58856.000000,28443.000000,6466.000000
11536.000000,58836.000000,28389.000000,6382.000000
11502.000000,58815.000000,28338.000000,6294.000000
11464.000000,58791.000000,28284.000000,6214.000000
11423.000000,58762.000000,28226.000000,6139.000000
11379.000000,58731.000000,28164.000000,6065.000000
11334.000000,58697.000000,28104.000000,5996.000000
11290.000000,58663.000000,28050.000000,5944.000000
11252.000000,58630.000000,27997.000000,5915.000000
11221.000000,58598.000000,27944.000000,5892.000000
11193.000000,58566.000000,27892.000000,5863.000000
11166.000000,58535.000000,27842.000000,5824.000000
11142.000000,58509.000000,27795.000000,5780.000000
11121.000000,58484.000000,27753.000000,5733.000000
11105.000000,58461.000000,27721.000000,5684.000000
11088.000000,58440.000000,27696.000000,5637.000000
11065.000000,58418.000000,27668.000000,5594.000000
11034.000000,58390.000000,27632.000000,5551.000000
10997.000000,58357.000000,27593.000000,5512.000000
10956.000000,58326.000000,27550.000000,5481.000000
10914.000000,58293.000000,27504.000000,5453.000000
10875.000000,58261.000000,27460.000000,5433.000000
10841.000000,58229.000000,27419.000000,5424.000000
10811.000000,58198.000000,27377.000000,5423.000000
10784.000000,58165.000000,27331.000000,5423.000000
10760.000000,58134.000000,27287.000000,5416.000000
10742.000000,58109.000000,27247.000000,5402.000000
10725.000000,58094.000000,27207.000000,5382.000000
10705.000000,58082.000000,27168.000000,5346.000000
10684.000000,58072.000000,27134.000000,5291.000000
10664.000000,58063.000000,27107.000000,5226.000000
10641.000000,58055.000000,27079.000000,5153.000000
10611.000000,58043.000000,27048.000000,5066.000000
10571.000000,58023.000000,27013.000000,4966.000000
10524.000000,57995.000000,26974.000000,4875.000000
10472.000000,57965.000000,26926.000000,4816.000000
10420.000000,57930.000000,26867.000000,4786.000000
10371.000000,57887.000000,26800.000000,4756.000000
10323.000000,57837.000000,26728.000000,4715.000000
10271.000000,57783.000000,26650.000000,4666.000000
10220.000000,57732.000000,26574.000000,4622.000000
10176.000000,57689.000000,26508.000000,4587.000000
10144.000000,57653.000000,26453.000000,4546.000000
10116.000000,57620.000000,26404.000000,4499.000000
10086.000000,57590.000000,26356.000000,4450.000000
10058.000000,57566.000000,26316.000000,4402.000000
10033.000000,57544.000000,26285.000000,4363.000000
10002.000000,57521.000000,26251.000000,4321.000000
9961.000000,57489.000000,26204.000000,4265.000000
9918.000000,57456.000000,26150.000000,4203.000000
9878.000000,57424.000000,26096.000000,4147.000000
9832.000000,57388.000000,26033.000000,4097.000000
9774.000000,57343.000000,25965.000000,4052.000000
9714.000000,57292.000000,25901.000000,4016.000000
9660.000000,57245.000000,25839.000000,3987.000000
9608.000000,57202.000000,25773.000000,3962.000000
9560.000000,57163.000000,25712.000000,3941.000000
9520.000000,57130.000000,25662.000000,3919.000000
9479.000000,57101.000000,25611.000000,3880.000000
9431.000000,57069.000000,25551.000000,3819.000000
9383.000000,57037.000000,25490.000000,3753.000000
9337.000000,57007.000000,25437.000000,3695.000000
9289.000000,56974.000000,25382.000000,3627.000000
9233.000000,56935.000000,25315.000000,3535.000000
9170.000000,56889.000000,25243.000000,3432.000000
9105.000000,56840.000000,25168.000000,3346.000000
9038.000000,56787.000000,25085.000000,3278.000000
8972.000000,56729.000000,24993.000000,3213.000000
8911.000000,56667.000000,24903.000000,3150.000000
8858.000000,56611.000000,24820.000000,3096.000000
8809.000000,56563.000000,24741.000000,3042.000000
8757.000000,56518.000000,24657.000000,2976.000000
8706.000000,56476.000000,24574.000000,2891.000000
8662.000000,56440.000000,24501.000000,2792.000000
8622.000000,56410.000000,24436.000000,2700.000000
8586.000000,56389.000000,24385.000000,2625.000000
8570.000000,56389.000000,24370.000000,2584.000000
8594.000000,56422.000000,24411.000000,2603.000000
8676.000000,56501.000000,24522.000000,2697.000000
8831.000000,56637.000000,24723.000000,2877.000000
9074.000000,56841.000000,25034.000000,3159.000000
9410.000000,57122.000000,25459.000000,3552.000000
9825.000000,57468.000000,25978.000000,4044.000000
10294.000000,57860.000000,26562.000000,4594.000000
10790.000000,58273.000000,27183.000000,5162.000000
11290.000000,58692.000000,27817.000000,5726.000000
11773.000000,59100.000000,28437.000000,6268.000000
12226.000000,59483.000000,29029.000000,6781.000000
12648.000000,59832.000000,29590.000000,7261.000000
13029.000000,60146.000000,30109.000000,7700.000000
13364.000000,60422.000000,30569.000000,8095.000000
13651.000000,60661.000000,30967.000000,8450.000000
13897.000000,60868.000000,31311.000000,8768.000000
14116.000000,61049.000000,31611.000000,9049.000000
14306.000000,61198.000000,31871.000000,9288.000000
14466.000000,61316.000000,32100.000000,9497.000000
14605.000000,61415.000000,32301.000000,9685.000000
14722.000000,61498.000000,32472.000000,9843.000000
14815.000000,61565.000000,32609.000000,9965.000000
14883.000000,61616.000000,32715.000000,10060.000000
14930.000000,61650.000000,32791.000000,10134.000000
14958.000000,61668.000000,32834.000000,10189.000000
14963.000000,61670.000000,32845.000000,10223.000000
14942.000000,61652.000000,32824.000000,10227.000000
14900.000000,61616.000000,32776.000000,10207.000000
14840.000000,61569.000000,32709.000000,10179.000000
14763.000000,61510.000000,32624.000000,10150.000000
14676.000000,61441.000000,32522.000000,10113.000000
14586.000000,61371.000000,32407.000000,10064.000000
14496.000000,61304.000000,32288.000000,10002.000000
14403.000000,61237.000000,32169.000000,9927.000000
14311.000000,61166.000000,32054.000000,9845.000000
14220.000000,61094.000000,31953.000000,9752.000000
14128.000000,61020.000000,31859.000000,9641.000000
14038.000000,60946.000000,31769.000000,9512.000000
13950.000000,60871.000000,31681.000000,9375.000000
13862.000000,60795.000000,31592.000000,9241.000000
13772.000000,60725.000000,31501.000000,9116.000000
13681.000000,60658.000000,31408.000000,9019.000000
13598.000000,60593.000000,31317.000000,8944.000000
13529.000000,60533.000000,31235.000000,8877.000000
13471.000000,60482.000000,31157.000000,8816.000000
13420.000000,60435.000000,31082.000000,8762.000000
13371.000000,60391.000000,31019.000000,8716.000000
13322.000000,60348.000000,30960.000000,8666.000000
13271.000000,60301.000000,30901.000000,8597.000000
13219.000000,60250.000000,30843.000000,8512.000000
13164.000000,60201.000000,30783.000000,8416.000000
13102.000000,60150.000000,30712.000000,8319.000000
13031.000000,60091.000000,30625.000000,8226.000000
12953.000000,60026.000000,30524.000000,8130.000000
12870.000000,59962.000000,30413.000000,8029.000000
12789.000000,59901.000000,30303.000000,7937.000000
12713.000000,59843.000000,30202.000000,7865.000000
12646.000000,59793.000000,30109.000000,7804.000000
12592.000000,59759.000000,30029.000000,7751.000000
12553.000000,59736.000000,29969.000000,7710.000000
12529.000000,59718.000000,29929.000000,7678.000000
12513.000000,59706.000000,29903.000000,7646.000000
12502.000000,59698.000000,29891.000000,7619.000000
12500.000000,59696.000000,29894.000000,7611.000000
12506.000000,59699.000000,29907.000000,7620.000000
12517.000000,59704.000000,29928.000000,7640.000000
12537.000000,59716.000000,29954.000000,7675.000000
12566.000000,59737.000000,29986.000000,7728.000000
12599.000000,59763.000000,30018.000000,7785.000000
12636.000000,59792.000000,30051.000000,7838.000000
12684.000000,59829.000000,30093.000000,7894.000000
12742.000000,59872.000000,30148.000000,7953.000000
12801.000000,59918.000000,30209.000000,8010.000000
12858.000000,59965.000000,30278.000000,8065.000000
12913.000000,60012.000000,30353.000000,8108.000000
12964.000000,60057.000000,30422.000000,8128.000000
13005.000000,60096.000000,30481.000000,8141.000000
13036.000000,60128.000000,30533.000000,8160.000000
13062.000000,60154.000000,30574.000000,8190.000000
13086.000000,60173.000000,30603.000000,8227.000000
13104.000000,60188.000000,30623.000000,8267.000000
13114.000000,60196.000000,30638.000000,8309.000000
13122.000000,60202.000000,30651.000000,8347.000000
13127.000000,60206.000000,30656.000000,8376.000000
13125.000000,60207.000000,30656.000000,8399.000000
13117.000000,60209.000000,30656.000000,8425.000000
13104.000000,60208.000000,30656.000000,8451.000000
13082.000000,60200.000000,30644.000000,8464.000000
13051.000000,60184.000000,30619.000000,8455.000000
13022.000000,60166.000000,30591.000000,8426.000000
12993.000000,60144.000000,30558.000000,8379.000000
12955.000000,60108.000000,30513.000000,8306.000000
12908.000000,60059.000000,30459.000000,8219.000000
12856.000000,60005.000000,30408.000000,8142.000000
12804.000000,59955.000000,30355.000000,8076.000000
12749.000000,59905.000000,30294.000000,8013.000000
12690.000000,59851.000000,30222.000000,7949.000000
12634.000000,59797.000000,30145.000000,7885.000000
12579.000000,59747.000000,30063.000000,7817.000000
12522.000000,59699.000000,29975.000000,7747.000000
12464.000000,59653.000000,29887.000000,7676.000000
12409.000000,59612.000000,29803.000000,7601.000000
12354.000000,59574.000000,29721.000000,7523.000000
12293.000000,59533.000000,29635.000000,7427.000000
12224.000000,59478.000000,29543.000000,7307.000000
12149.000000,59413.000000,29451.000000,7176.000000
12068.000000,59342.000000,29363.000000,7048.000000
11984.000000,59268.000000,29275.000000,6924.000000
11896.000000,59190.000000,29178.000000,6808.000000
11810.000000,59111.000000,29074.000000,6714.000000
11724.000000,59040.000000,28970.000000,6651.000000
11639.000000,58974.000000,28866.000000,6602.000000
11555.000000,58911.000000,28763.000000,6551.000000
11478.000000,58850.000000,28662.000000,6501.000000
11403.000000,58789.000000,28563.000000,6453.000000
11326.000000,58727.000000,28464.000000,6405.000000
11250.000000,58666.000000,28365.000000,6352.000000
11180.000000,58610.000000,28273.000000,6290.000000
11115.000000,58562.000000,28185.000000,6206.000000
11050.000000,58513.000000,28098.000000,6101.000000
10985.000000,58461.000000,28014.000000,5996.000000
10923.000000,58409.000000,27936.000000,5905.000000
10861.000000,58360.000000,27859.000000,5820.000000
10797.000000,58307.000000,27782.000000,5737.000000
10735.000000,58253.000000,27709.000000,5657.000000
10672.000000,58201.000000,27639.000000,5586.000000
10609.000000,58149.000000,27563.000000,5530.000000
10553.000000,58099.000000,27483.000000,5475.000000
10507.000000,58051.000000,27409.000000,5424.000000
10468.000000,58006.000000,27342.000000,5378.000000
10428.000000,57961.000000,27273.000000,5324.000000
10383.000000,57916.000000,27204.000000,5258.000000
10343.000000,57878.000000,27143.000000,5192.000000
10309.000000,57851.000000,27089.000000,5130.000000
10276.000000,57829.000000,27039.000000,5058.000000
10237.000000,57802.000000,26990.000000,4980.000000
10194.000000,57774.000000,26945.000000,4915.000000
10150.000000,57751.000000,26902.000000,4871.000000
10103.000000,57728.000000,26855.000000,4832.000000
10051.000000,57696.000000,26803.000000,4787.000000
9998.000000,57658.000000,26751.000000,4740.000000
9948.000000,57620.000000,26699.000000,4703.000000
9898.000000,57581.000000,26640.000000,4673.000000
9851.000000,57538.000000,26581.000000,4646.000000
9811.000000,57496.000000,26531.000000,4618.000000
9775.000000,57460.000000,26480.000000,4586.000000
9739.000000,57426.000000,26423.000000,4544.000000
9710.000000,57395.000000,26372.000000,4488.000000
9687.000000,57369.000000,26329.000000,4419.000000
9663.000000,57348.000000,26287.000000,4351.000000
9630.000000,57327.000000,26244.000000,4293.000000
9591.000000,57300.000000,26204.000000,4244.000000
9550.000000,57270.000000,26164.000000,4204.000000
9511.000000,57241.000000,26113.000000,4172.000000
9470.000000,57213.000000,26053.000000,4142.000000
9430.000000,57182.000000,25998.000000,4107.000000
9396.000000,57154.000000,25951.000000,4070.000000
9367.000000,57126.000000,25898.000000,4035.000000
9334.000000,57096.000000,25839.000000,3998.000000
9298.000000,57067.000000,25784.000000,3957.000000
9263.000000,57042.000000,25736.000000,3910.000000
9223.000000,57018.000000,25686.000000,3863.000000
9179.000000,56991.000000,25636.000000,3812.000000
9136.000000,56959.000000,25588.000000,3744.000000
9093.000000,56922.000000,25537.000000,3666.000000
9040.000000,56880.000000,25476.000000,3588.000000
8978.000000,56834.000000,25407.000000,3514.000000
8917.000000,56788.000000,25339.000000,3451.000000
8860.000000,56744.000000,25275.000000,3403.000000
8805.000000,56703.000000,25208.000000,3366.000000
8746.000000,56662.000000,25137.000000,3330.000000
8690.000000,56621.000000,25069.000000,3286.000000
8642.000000,56580.000000,25006.000000,3235.000000
8598.000000,56543.000000,24945.000000,3175.000000
8553.000000,56505.000000,24886.000000,3101.000000
8508.000000,56465.000000,24825.000000,3007.000000
8459.000000,56424.000000,24755.000000,2908.000000
8401.000000,56379.000000,24674.000000,2821.000000
8336.000000,56328.000000,24589.000000,2742.000000
8267.000000,56272.000000,24507.000000,2672.000000
8197.000000,56215.000000,24424.000000,2611.000000
8122.000000,56153.000000,24333.000000,2556.000000
8045.000000,56088.000000,24244.000000,2503.000000
7975.000000,56026.000000,24160.000000,2447.000000
7917.000000,55969.000000,24075.000000,2383.000000
7860.000000,55913.000000,23986.000000,2313.000000
7804.000000,55858.000000,23903.000000,2244.000000
7753.000000,55808.000000,23833.000000,2175.000000
7709.000000,55768.000000,23769.000000,2110.000000
7668.000000,55736.000000,23713.000000,2058.000000
7641.000000,55715.000000,23690.000000,2034.000000
7649.000000,55724.000000,23720.000000,2060.000000
7714.000000,55781.000000,23812.000000,2147.000000
7848.000000,55898.000000,23980.000000,2298.000000
8063.000000,56086.000000,24252.000000,2520.000000
8375.000000,56356.000000,24644.000000,2841.000000
8778.000000,56704.000000,25143.000000,3259.000000
9248.000000,57111.000000,25731.000000,3753.000000
9763.000000,57556.000000,26390.000000,4306.000000
10297.000000,58015.000000,27085.000000,4885.000000
10820.000000,58465.000000,27772.000000,5458.000000
11312.000000,58889.000000,28424.000000,6012.000000
11766.000000,59277.000000,29029.000000,6535.000000
12172.000000,59625.000000,29577.000000,7023.000000
12523.000000,59928.000000,30061.000000,7464.000000
12824.000000,60183.000000,30481.000000,7855.000000
13089.000000,60395.000000,30844.000000,8206.000000
13324.000000,60576.000000,31160.000000,8520.000000
13526.000000,60730.000000,31429.000000,8794.000000
13692.000000,60855.000000,31651.000000,9021.000000
13830.000000,60959.000000,31835.000000,9207.000000
13940.000000,61043.000000,31989.000000,9358.000000
14020.000000,61107.000000,32113.000000,9475.000000
14072.000000,61150.000000,32208.000000,9556.000000
14101.000000,61175.000000,32276.000000,9601.000000
14108.000000,61181.000000,32316.000000,9621.000000
14091.000000,61166.000000,32323.000000,9626.000000
14054.000000,61135.000000,32299.000000,9620.000000
14007.000000,61091.000000,32251.000000,9602.000000
13953.000000,61036.000000,32180.000000,9569.000000
13884.000000,60971.000000,32090.000000,9517.000000
13804.000000,60898.000000,31993.000000,9457.000000
13720.000000,60822.000000,31894.000000,9395.000000
13629.000000,60744.000000,31786.000000,9323.000000
13528.000000,60659.000000,31663.000000,9227.000000
13419.000000,60566.000000,31528.000000,9103.000000
13307.000000,60471.000000,31385.000000,8955.000000
13193.000000,60377.000000,31238.000000,8794.000000
13075.000000,60280.000000,31089.000000,8632.000000
12953.000000,60178.000000,30943.000000,8479.000000
12832.000000,60077.000000,30801.000000,8348.000000
12717.000000,59983.000000,30662.000000,8239.000000
12608.000000,59891.000000,30527.000000,8142.000000
12507.000000,59803.000000,30404.000000,8046.000000
12417.000000,59724.000000,30292.000000,7952.000000
12332.000000,59655.000000,30181.000000,7856.000000
12249.000000,59589.000000,30076.000000,7753.000000
12171.000000,59530.000000,29989.000000,7658.000000
12099.000000,59474.000000,29908.000000,7564.000000
12025.000000,59413.000000,29818.000000,7456.000000
11945.000000,59343.000000,29718.000000,7339.000000
11860.000000,59267.000000,29615.000000,7222.000000
11771.000000,59186.000000,29504.000000,7115.000000
11675.000000,59099.000000,29379.000000,7022.000000
11576.000000,59011.000000,29246.000000,6938.000000
11481.000000,58926.000000,29114.000000,6857.000000
11395.000000,58852.000000,28993.000000,6782.000000
11319.000000,58790.000000,28886.000000,6714.000000
11254.000000,58738.000000,28792.000000,6645.000000
11203.000000,58697.000000,28717.000000,6574.000000
11170.000000,58674.000000,28662.000000,6526.000000
11156.000000,58669.000000,28626.000000,6505.000000
11155.000000,58674.000000,28609.000000,6491.000000
11161.000000,58687.000000,28608.000000,6480.000000
11176.000000,58706.000000,28620.000000,6481.000000
11198.000000,58730.000000,28640.000000,6498.000000
11232.000000,58761.000000,28675.000000,6535.000000
11283.000000,58801.000000,28733.000000,6597.000000
11348.000000,58851.000000,28804.000000,6672.000000
11423.000000,58908.000000,28882.000000,6754.000000
11503.000000,58971.000000,28973.000000,6839.000000
11591.000000,59042.000000,29078.000000,6918.000000
11677.000000,59115.000000,29187.000000,6985.000000
11753.000000,59181.000000,29288.000000,7037.000000
11821.000000,59238.000000,29384.000000,7082.000000
11885.000000,59290.000000,29477.000000,7139.000000
11945.000000,59340.000000,29562.000000,7210.000000
11998.000000,59385.000000,29636.000000,7288.000000
12042.000000,59424.000000,29702.000000,7366.000000
12088.000000,59466.000000,29766.000000,7442.000000
12134.000000,59512.000000,29823.000000,7511.000000
12175.000000,59551.000000,29870.000000,7560.000000
12208.000000,59579.000000,29912.000000,7581.000000
12234.000000,59598.000000,29948.000000,7583.000000
12251.000000,59610.000000,29966.000000,7581.000000
12253.000000,59607.000000,29965.000000,7569.000000
12242.000000,59593.000000,29952.000000,7548.000000
12221.000000,59572.000000,29928.000000,7532.000000
12198.000000,59548.000000,29892.000000,7519.000000
12170.000000,59521.000000,29847.000000,7503.000000
12138.000000,59492.000000,29798.000000,7475.000000
12110.000000,59466.000000,29753.000000,7439.000000
12083.000000,59443.000000,29703.000000,7401.000000
12048.000000,59417.000000,29645.000000,7341.000000
12007.000000,59390.000000,29589.000000,7257.000000
11961.000000,59357.000000,29532.000000,7178.000000
11908.000000,59315.000000,29464.000000,7109.000000
11845.000000,59262.000000,29386.000000,7036.000000
11776.000000,59208.000000,29304.000000,6962.000000
11706.000000,59157.000000,29222.000000,6897.000000
11636.000000,59102.000000,29132.000000,6837.000000
11563.000000,59039.000000,29032.000000,6772.000000
11493.000000,58974.000000,28929.000000,6705.000000
11427.000000,58911.000000,28828.000000,6642.000000
11360.000000,58849.000000,28725.000000,6579.000000
11285.000000,58782.000000,28624.000000,6500.000000
11206.000000,58711.000000,28525.000000,6401.000000
11125.000000,58639.000000,28425.000000,6293.000000
11041.000000,58567.000000,28321.000000,6181.000000
10952.000000,58494.000000,28218.000000,6066.000000
10861.000000,58422.000000,28124.000000,5960.000000
10775.000000,58360.000000,28039.000000,5873.000000
10693.000000,58302.000000,27952.000000,5799.000000
10615.000000,58244.000000,27858.000000,5728.000000
10548.000000,58188.000000,27765.000000,5667.000000
10489.000000,58134.000000,27672.000000,5611.000000
10431.000000,58077.000000,27575.000000,5550.000000
10373.000000,58018.000000,27481.000000,5482.000000
10320.000000,57961.000000,27397.000000,5416.000000
10274.000000,57913.000000,27321.000000,5354.000000
10236.000000,57872.000000,27248.000000,5286.000000
10201.000000,57837.000000,27184.000000,5205.000000
10167.000000,57804.000000,27129.000000,5119.000000
10129.000000,57774.000000,27070.000000,5034.000000
10083.000000,57741.000000,27010.000000,4957.000000
10035.000000,57705.000000,26956.000000,4892.000000
9994.000000,57670.000000,26901.000000,4838.000000
9960.000000,57636.000000,26841.000000,4790.000000
9928.000000,57601.000000,26779.000000,4752.000000
9896.000000,57565.000000,26721.000000,4716.000000
9870.000000,57537.000000,26671.000000,4688.000000
9847.000000,57519.000000,26627.000000,4673.000000
9828.000000,57503.000000,26589.000000,4655.000000
9816.000000,57490.000000,26560.000000,4627.000000
9806.000000,57478.000000,26533.000000,4594.000000
9794.000000,57466.000000,26504.000000,4554.000000
9777.000000,57448.000000,26471.000000,4506.000000
9754.000000,57430.000000,26439.000000,4459.000000
9730.000000,57413.000000,26408.000000,4422.000000
9702.000000,57389.000000,26364.000000,4384.000000
9667.000000,57357.000000,26308.000000,4340.000000
9628.000000,57323.000000,26260.000000,4302.000000
9591.000000,57293.000000,26222.000000,4270.000000
9556.000000,57268.000000,26186.000000,4239.000000
9520.000000,57244.000000,26146.000000,4205.000000
9485.000000,57219.000000,26105.000000,4165.000000
9452.000000,57197.000000,26061.000000,4116.000000
9417.000000,57173.000000,26010.000000,4059.000000
9377.000000,57141.000000,25952.000000,3992.000000
9333.000000,57099.000000,25893.000000,3923.000000
9288.000000,57055.000000,25830.000000,3862.000000
9241.000000,57014.000000,25766.000000,3811.000000
9195.000000,56976.000000,25709.000000,3773.000000
9155.000000,56944.000000,25656.000000,3752.000000
9124.000000,56918.000000,25606.000000,3737.000000
9103.000000,56898.000000,25560.000000,3722.000000
9093.000000,56887.000000,25529.000000,3705.000000
9110.000000,56896.000000,25529.000000,3699.000000
9158.000000,56932.000000,25572.000000,3716.000000
9243.000000,57002.000000,25668.000000,3775.000000
9375.000000,57115.000000,25837.000000,3900.000000
9570.000000,57281.000000,26091.000000,4109.000000
9831.000000,57504.000000,26427.000000,4407.000000
10148.000000,57778.000000,26838.000000,4779.000000
10513.000000,58094.000000,27318.000000,5202.000000
10919.000000,58444.000000,27845.000000,5665.000000
11347.000000,58807.000000,28389.000000,6154.000000
11775.000000,59168.000000,28932.000000,6648.000000
12191.000000,59515.000000,29466.000000,7134.000000
12591.000000,59849.000000,29981.000000,7598.000000
12966.000000,60164.000000,30466.000000,8029.000000
13305.000000,60454.000000,30911.000000,8421.000000
13607.000000,60713.000000,31318.000000,8773.000000
13876.000000,60940.000000,31691.000000,9093.000000
14110.000000,61137.000000,32024.000000,9384.000000
14312.000000,61303.000000,32316.000000,9652.000000
14488.000000,61441.000000,32573.000000,9905.000000
14645.000000,61559.000000,32792.000000,10140.000000
14780.000000,61654.000000,32971.000000,10345.000000
14889.000000,61727.000000,33115.000000,10521.000000
14974.000000,61783.000000,33230.000000,10675.000000
15038.000000,61827.000000,33314.000000,10798.000000
15078.000000,61857.000000,33368.000000,10878.000000
15097.000000,61873.000000,33394.000000,10925.000000
15102.000000,61882.000000,33402.000000,10959.000000
15096.000000,61882.000000,33395.000000,10981.000000
15073.000000,61867.000000,33369.000000,10977.000000
15031.000000,61832.000000,33322.000000,10949.000000
14973.000000,61777.000000,33257.000000,10902.000000
14901.000000,61708.000000,33174.000000,10836.000000
14816.000000,61629.000000,33076.000000,10753.000000
14726.000000,61544.000000,32968.000000,10667.000000
14639.000000,61463.000000,32857.000000,10589.000000
14559.000000,61389.000000,32750.000000,10509.000000
14484.000000,61321.000000,32643.000000,10422.000000
14413.000000,61257.000000,32537.000000,10333.000000
14348.000000,61197.000000,32436.000000,10238.000000
14282.000000,61138.000000,32341.000000,10127.000000
14212.000000,61077.000000,32250.000000,10001.000000
14142.000000,61013.000000,32162.000000,9882.000000
14075.000000,60952.000000,32077.000000,9779.000000
14006.000000,60894.000000,31992.000000,9690.000000
13933.000000,60837.000000,31906.000000,9615.000000
13861.000000,60779.000000,31822.000000,9554.000000
13797.000000,60723.000000,31744.000000,9511.000000
13737.000000,60672.000000,31667.000000,9469.000000
13677.000000,60624.000000,31590.000000,9405.000000
13615.000000,60575.000000,31515.000000,9327.000000
13553.000000,60525.000000,31438.000000,9242.000000
13488.000000,60472.000000,31355.000000,9153.000000
13416.000000,60414.000000,31266.000000,9054.000000
13336.000000,60350.000000,31173.000000,8940.000000
13257.000000,60283.000000,31075.000000,8819.000000
13179.000000,60211.000000,30971.000000,8693.000000
13101.000000,60137.000000,30865.000000,8575.000000
13030.000000,60070.000000,30771.000000,8480.000000
12973.000000,60017.000000,30689.000000,8406.000000
12930.000000,59977.000000,30615.000000,8356.000000
12900.000000,59949.000000,30553.000000,8330.000000
12887.000000,59934.000000,30512.000000,8318.000000
12888.000000,59929.000000,30495.000000,8321.000000
12899.000000,59938.000000,30497.000000,8331.000000
12916.000000,59958.000000,30517.000000,8338.000000
12944.000000,59987.000000,30555.000000,8348.000000
12982.000000,60023.000000,30600.000000,8370.000000
13020.000000,60053.000000,30644.000000,8392.000000
13057.000000,60075.000000,30687.000000,8421.000000
13096.000000,60100.000000,30732.000000,8473.000000
13142.000000,60133.000000,30779.000000,8541.000000
13193.000000,60173.000000,30830.000000,8609.000000
13247.000000,60218.000000,30889.000000,8680.000000
13307.000000,60272.000000,30960.000000,8759.000000
13370.000000,60334.000000,31037.000000,8838.000000
13431.000000,60398.000000,31115.000000,8902.000000
13488.000000,60456.000000,31193.000000,8951.000000
13541.000000,60507.000000,31266.000000,8989.000000
13587.000000,60551.000000,31327.000000,9024.000000
13624.000000,60585.000000,31375.000000,9061.000000
13653.000000,60610.000000,31416.000000,9097.000000
13682.000000,60628.000000,31452.000000,9134.000000
13708.000000,60638.000000,31474.000000,9174.000000
13725.000000,60643.000000,31480.000000,9213.000000
13736.000000,60643.000000,31480.000000,9242.000000
13743.000000,60640.000000,31476.000000,9258.000000
13741.000000,60634.000000,31466.000000,9262.000000
13731.000000,60626.000000,31452.000000,9244.000000
13722.000000,60617.000000,31444.000000,9215.000000
13711.000000,60605.000000,31433.000000,9181.000000
13691.000000,60586.000000,31409.000000,9129.000000
13656.000000,60553.000000,31370.000000,9059.000000
13612.000000,60510.000000,31319.000000,8981.000000
13561.000000,60462.000000,31260.000000,8912.000000
13504.000000,60410.000000,31186.000000,8853.000000
13443.000000,60354.000000,31098.000000,8796.000000
13382.000000,60295.000000,31007.000000,8743.000000
13325.000000,60241.000000,30922.000000,8688.000000
13270.000000,60193.000000,30840.000000,8621.000000
13216.000000,60148.000000,30760.000000,8548.000000
13165.000000,60110.000000,30688.000000,8478.000000
13115.000000,60074.000000,30618.000000,8410.000000
13058.000000,60029.000000,30538.000000,8336.000000
12992.000000,59972.000000,30446.000000,8257.000000
12919.000000,59907.000000,30349.000000,8187.000000
12846.000000,59841.000000,30254.000000,8118.000000
12768.000000,59772.000000,30158.000000,8043.000000
12686.000000,59700.000000,30061.000000,7970.000000
12606.000000,59630.000000,29966.000000,7901.000000
12534.000000,59566.000000,29872.000000,7832.000000
12469.000000,59506.000000,29776.000000,7760.000000
12405.000000,59449.000000,29681.000000,7679.000000
12341.000000,59399.000000,29589.000000,7592.000000
12281.000000,59356.000000,29503.000000,7503.000000
12223.000000,59319.000000,29423.000000,7408.000000
12167.000000,59279.000000,29351.000000,7308.000000
12114.000000,59240.000000,29287.000000,7214.000000
12064.000000,59200.000000,29222.000000,7129.000000
12009.000000,59154.000000,29153.000000,7060.000000
11952.000000,59100.000000,29082.000000,7014.000000
11903.000000,59047.000000,29010.000000,6985.000000
11857.000000,58996.000000,28933.000000,6959.000000
11811.000000,58947.000000,28854.000000,6919.000000
11769.000000,58904.000000,28783.000000,6863.000000
11735.000000,58869.000000,28725.000000,6800.000000
11706.000000,58843.000000,28675.000000,6739.000000
11678.000000,58818.000000,28627.000000,6671.000000
11650.000000,58791.000000,28582.000000,6603.000000
11620.000000,58766.000000,28540.000000,6542.000000
11589.000000,58744.000000,28500.000000,6484.000000
11556.000000,58721.000000,28458.000000,6424.000000
11525.000000,58696.000000,28416.000000,6362.000000
11493.000000,58669.000000,28373.000000,6308.000000
11461.000000,58640.000000,28325.000000,6276.000000
11437.000000,58616.000000,28275.000000,6261.000000
11426.000000,58599.000000,28226.000000,6260.000000
11422.000000,58588.000000,28181.000000,6265.000000
11414.000000,58573.000000,28137.000000,6261.000000
11400.000000,58549.000000,28093.000000,6238.000000
11382.000000,58520.000000,28058.000000,6199.000000
11357.000000,58492.000000,28022.000000,6148.000000
11321.000000,58462.000000,27977.000000,6085.000000
11272.000000,58424.000000,27924.000000,6022.000000
11220.000000,58385.000000,27869.000000,5974.000000
11172.000000,58353.000000,27819.000000,5933.000000
11126.000000,58328.000000,27772.000000,5897.000000
11082.000000,58310.000000,27727.000000,5862.000000
11048.000000,58299.000000,27683.000000,5822.000000
11021.000000,58291.000000,27638.000000,5782.000000
10995.000000,58278.000000,27590.000000,5738.000000
10964.000000,58256.000000,27543.000000,5684.000000
10930.000000,58226.000000,27498.000000,5617.000000
10895.000000,58195.000000,27454.000000,5549.000000
10860.000000,58164.000000,27414.000000,5493.000000
10827.000000,58132.000000,27377.000000,5453.000000
10802.000000,58102.000000,27341.000000,5429.000000
10787.000000,58081.000000,27307.000000,5425.000000
10781.000000,58067.000000,27282.000000,5432.000000
10794.000000,58069.000000,27288.000000,5443.000000
10846.000000,58105.000000,27344.000000,5480.000000
10952.000000,58188.000000,27456.000000,5564.000000
11116.000000,58322.000000,27638.000000,5702.000000
11340.000000,58511.000000,27905.000000,5911.000000
11621.000000,58756.000000,28258.000000,6196.000000
11951.000000,59050.000000,28684.000000,6553.000000
12315.000000,59376.000000,29164.000000,6974.000000
12706.000000,59724.000000,29680.000000,7447.000000
13115.000000,60079.000000,30213.000000,7950.000000
13523.000000,60428.000000,30738.000000,8453.000000
13917.000000,60761.000000,31250.000000,8941.000000
14293.000000,61076.000000,31746.000000,9407.000000
14644.000000,61372.000000,32219.000000,9837.000000
14968.000000,61646.000000,32662.000000,10225.000000
15259.000000,61892.000000,33064.000000,10572.000000
15517.000000,62110.000000,33424.000000,10891.000000
15741.000000,62301.000000,33744.000000,11187.000000
15936.000000,62466.000000,34026.000000,11452.000000
16105.000000,62607.000000,34269.000000,11696.000000
16250.000000,62725.000000,34477.000000,11931.000000
16368.000000,62821.000000,34651.000000,12142.000000
16456.000000,62887.000000,34784.000000,12316.000000
16517.000000,62924.000000,34879.000000,12449.000000
16566.000000,62941.000000,34948.000000,12549.000000
16609.000000,62951.000000,34999.000000,12616.000000
16641.000000,62957.000000,35035.000000,12653.000000
16656.000000,62957.000000,35052.000000,12664.000000
16657.000000,62950.000000,35050.000000,12660.000000
16646.000000,62935.000000,35033.000000,12640.000000
16620.000000,62908.000000,35002.000000,12594.000000
16574.000000,62865.000000,34953.000000,12521.000000
16511.000000,62810.000000,34889.000000,12431.000000
16440.000000,62750.000000,34817.000000,12334.000000
16361.000000,62684.000000,34732.000000,12234.000000
16276.000000,62610.000000,34635.000000,12132.000000
16193.000000,62536.000000,34531.000000,12032.000000
16115.000000,62469.000000,34427.000000,11943.000000
16040.000000,62408.000000,34325.000000,11867.000000
15972.000000,62352.000000,34229.000000,11799.000000
15913.000000,62303.000000,34142.000000,11739.000000
15862.000000,62261.000000,34064.000000,11682.000000
15816.000000,62222.000000,33996.000000,11631.000000
15775.000000,62185.000000,33938.000000,11592.000000
15735.000000,62146.000000,33883.000000,11557.000000
15691.000000,62101.000000,33823.000000,11512.000000
15642.000000,62052.000000,33755.000000,11462.000000
15593.000000,62001.000000,33683.000000,11427.000000
15545.000000,61951.000000,33616.000000,11404.000000
15495.000000,61900.000000,33554.000000,11365.000000
15443.000000,61850.000000,33491.000000,11301.000000
15394.000000,61803.000000,33424.000000,11224.000000
15348.000000,61758.000000,33358.000000,11138.000000
15297.000000,61713.000000,33290.000000,11049.000000
15238.000000,61665.000000,33215.000000,10961.000000
15174.000000,61615.000000,33134.000000,10877.000000
15109.000000,61565.000000,33050.000000,10794.000000
15042.000000,61511.000000,32966.000000,10710.000000
14976.000000,61459.000000,32884.000000,10645.000000
14917.000000,61411.000000,32807.000000,10610.000000
14868.000000,61374.000000,32737.000000,10591.000000
14830.000000,61348.000000,32678.000000,10587.000000
14802.000000,61331.000000,32632.000000,10587.000000
14786.000000,61328.000000,32602.000000,10584.000000
14783.000000,61337.000000,32588.000000,10582.000000
14786.000000,61349.000000,32586.000000,10578.000000
14791.000000,61360.000000,32591.000000,10572.000000
14802.000000,61374.000000,32604.000000,10572.000000
14818.000000,61390.000000,32623.000000,10567.000000
14834.000000,61404.000000,32647.000000,10555.000000
14854.000000,61418.000000,32675.000000,10554.000000
14884.000000,61435.000000,32708.000000,10577.000000
14921.000000,61454.000000,32743.000000,10599.000000
14963.000000,61476.000000,32780.000000,10618.000000
15012.000000,61503.000000,32821.000000,10656.000000
15067.000000,61537.000000,32869.000000,10713.000000
15122.000000,61579.000000,32928.000000,10765.000000
15168.000000,61620.000000,32988.000000,10798.000000
15204.000000,61656.000000,33041.000000,10824.000000
15236.000000,61689.000000,33086.000000,10851.000000
15265.000000,61720.000000,33124.000000,10881.000000
15285.000000,61738.000000,33151.000000,10916.000000
15298.000000,61744.000000,33162.000000,10962.000000
15308.000000,61745.000000,33163.000000,11011.000000
15313.000000,61744.000000,33158.000000,11042.000000
15311.000000,61740.000000,33146.000000,11056.000000
15303.000000,61733.000000,33128.000000,11060.000000
15292.000000,61725.000000,33114.000000,11060.000000
15276.000000,61721.000000,33107.000000,11050.000000
15259.000000,61714.000000,33100.000000,11015.000000
15243.000000,61702.000000,33089.000000,10962.000000
15225.000000,61685.000000,33072.000000,10904.000000
15196.000000,61663.000000,33048.000000,10846.000000
15157.000000,61635.000000,33016.000000,10796.000000
15112.000000,61603.000000,32973.000000,10750.000000
15067.000000,61566.000000,32919.000000,10708.000000
15018.000000,61520.000000,32856.000000,10665.000000
14965.000000,61470.000000,32783.000000,10615.000000
14914.000000,61423.000000,32707.000000,10567.000000
14866.000000,61379.000000,32628.000000,10522.000000
14815.000000,61330.000000,32544.000000,10464.000000
14763.000000,61282.000000,32460.000000,10397.000000
14715.000000,61242.000000,32388.000000,10332.000000
14670.000000,61204.000000,32324.000000,10270.000000
14620.000000,61164.000000,32261.000000,10208.000000
14562.000000,61118.000000,32191.000000,10137.000000
14496.000000,61068.000000,32117.000000,10048.000000
14425.000000,61010.000000,32042.000000,9943.000000
14346.000000,60940.000000,31962.000000,9831.000000
14260.000000,60867.000000,31878.000000,9721.000000
14178.000000,60798.000000,31794.000000,9620.000000
14102.000000,60735.000000,31708.000000,9535.000000
14028.000000,60673.000000,31619.000000,9450.000000
13952.000000,60608.000000,31527.000000,9360.000000
13885.000000,60547.000000,31436.000000,9279.000000
13824.000000,60489.000000,31342.000000,9200.000000
13762.000000,60432.000000,31246.000000,9118.000000
13701.000000,60377.000000,31158.000000,9041.000000
13641.000000,60329.000000,31080.000000,8965.000000
13584.000000,60288.000000,31006.000000,8882.000000
13530.000000,60252.000000,30934.000000,8800.000000
13481.000000,60214.000000,30866.000000,8722.000000
13436.000000,60175.000000,30801.000000,8633.000000
13391.000000,60136.000000,30731.000000,8540.000000
13345.000000,60095.000000,30658.000000,8460.000000
13299.000000,60050.000000,30589.000000,8394.000000
13248.000000,59998.000000,30519.000000,8337.000000
13193.000000,59940.000000,30446.000000,8285.000000
13140.000000,59886.000000,30369.000000,8237.000000
13094.000000,59841.000000,30296.000000,8195.000000
13061.000000,59810.000000,30234.000000,8155.000000
13035.000000,59785.000000,30178.000000,8114.000000
13008.000000,59763.000000,30123.000000,8070.000000
12980.000000,59745.000000,30077.000000,8028.000000
12953.000000,59731.000000,30037.000000,7987.000000
12929.000000,59719.000000,29997.000000,7940.000000
12905.000000,59706.000000,29959.000000,7890.000000
12882.000000,59694.000000,29927.000000,7842.000000
12857.000000,59679.000000,29897.000000,7799.000000
12825.000000,59656.000000,29861.000000,7766.000000
12790.000000,59625.000000,29818.000000,7742.000000
12757.000000,59592.000000,29775.000000,7728.000000
12726.000000,59560.000000,29732.000000,7718.000000
12695.000000,59525.000000,29686.000000,7702.000000
12665.000000,59490.000000,29637.000000,7672.000000
12642.000000,59462.000000,29592.000000,7637.000000
12622.000000,59440.000000,29552.000000,7605.000000
12601.000000,59421.000000,29511.000000,7574.000000
12578.000000,59404.000000,29472.000000,7540.000000
12555.000000,59392.000000,29438.000000,7504.000000
12530.000000,59382.000000,29404.000000,7464.000000
12499.000000,59368.000000,29367.000000,7417.000000
12469.000000,59352.000000,29335.000000,7365.000000
12446.000000,59336.000000,29313.000000,7317.000000
12425.000000,59318.000000,29291.000000,7279.000000
12397.000000,59295.000000,29260.000000,7247.000000
12368.000000,59271.000000,29226.000000,7221.000000
12343.000000,59250.000000,29194.000000,7198.000000
12317.000000,59226.000000,29154.000000,7173.000000
12285.000000,59199.000000,29106.000000,7150.000000
12250.000000,59168.000000,29055.000000,7129.000000
12223.000000,59140.000000,29006.000000,7112.000000
12203.000000,59119.000000,28960.000000,7094.000000
12180.000000,59102.000000,28914.000000,7063.000000
12155.000000,59082.000000,28871.000000,7013.000000
12127.000000,59062.000000,28833.000000,6946.000000
12094.000000,59041.000000,28794.000000,6873.000000
12057.000000,59015.000000,28750.000000,6793.000000
12017.000000,58983.000000,28703.000000,6710.000000
11977.000000,58946.000000,28650.000000,6645.000000
11935.000000,58909.000000,28587.000000,6603.000000
11887.000000,58872.000000,28513.000000,6574.000000
11840.000000,58842.000000,28438.000000,6561.000000
11795.000000,58816.000000,28369.000000,6555.000000
11747.000000,58785.000000,28298.000000,6543.000000
11700.000000,58749.000000,28228.000000,6515.000000
11660.000000,58711.000000,28169.000000,6473.000000
11619.000000,58669.000000,28115.000000,6417.000000
11573.000000,58622.000000,28057.000000,6339.000000
11525.000000,58572.000000,27993.000000,6238.000000
11482.000000,58524.000000,27929.000000,6131.000000
11445.000000,58484.000000,27868.000000,6033.000000
11408.000000,58450.000000,27813.000000,5951.000000
11373.000000,58421.000000,27767.000000,5885.000000
11350.000000,58401.000000,27739.000000,5841.000000
11355.000000,58408.000000,27745.000000,5839.000000
11398.000000,58451.000000,27802.000000,5893.000000
11497.000000,58541.000000,27931.000000,6017.000000
11668.000000,58688.000000,28143.000000,6224.000000
11916.000000,58896.000000,28445.000000,6518.000000
12233.000000,59163.000000,28832.000000,6887.000000
12607.000000,59479.000000,29295.000000,7314.000000
13026.000000,59836.000000,29818.000000,7779.000000
13469.000000,60217.000000,30375.000000,8262.000000
13913.000000,60598.000000,30938.000000,8741.000000
14343.000000,60962.000000,31492.000000,9204.000000
14756.000000,61307.000000,32028.000000,9648.000000
15144.000000,61629.000000,32533.000000,10073.000000
15495.000000,61922.000000,32994.000000,10477.000000
15805.000000,62184.000000,33406.000000,10867.000000
16080.000000,62413.000000,33771.000000,11243.000000
16322.000000,62611.000000,34092.000000,11589.000000
16531.000000,62778.000000,34369.000000,11898.000000
16715.000000,62917.000000,34609.000000,12173.000000
16878.000000,63035.000000,34820.000000,12416.000000
17014.000000,63132.000000,35003.000000,12620.000000
17122.000000,63209.000000,35155.000000,12786.000000
17205.000000,63268.000000,35281.000000,12915.000000
17264.000000,63312.000000,35383.000000,13010.000000
17300.000000,63342.000000,35453.000000,13065.000000
17311.000000,63354.000000,35492.000000,13088.000000
17300.000000,63348.000000,35502.000000,13095.000000
17271.000000,63325.000000,35488.000000,13090.000000
17226.000000,63286.000000,35453.000000,13059.000000
17168.000000,63236.000000,35400.000000,13000.000000
17106.000000,63180.000000,35336.000000,12934.000000
17044.000000,63126.000000,35264.000000,12873.000000
16976.000000,63067.000000,35179.000000,12810.000000
16904.000000,63000.000000,35078.000000,12742.000000
16838.000000,62932.000000,34971.000000,12678.000000
16776.000000,62866.000000,34871.000000,12612.000000
16713.000000,62803.000000,34778.000000,12534.000000
16646.000000,62741.000000,34689.000000,12456.000000
16577.000000,62685.000000,34606.000000,12388.000000
16511.000000,62636.000000,34527.000000,12321.000000
16445.000000,62589.000000,34450.000000,12231.000000
16376.000000,62538.000000,34369.000000,12124.000000
16308.000000,62484.000000,34291.000000,12021.000000
16239.000000,62430.000000,34215.000000,11932.000000
16166.000000,62373.000000,34138.000000,11853.000000
16094.000000,62315.000000,34061.000000,11787.000000
16035.000000,62263.000000,33990.000000,11734.000000
15988.000000,62220.000000,33925.000000,11685.000000
15942.000000,62181.000000,33861.000000,11646.000000
15899.000000,62141.000000,33791.000000,11621.000000
15860.000000,62098.000000,33719.000000,11594.000000
15825.000000,62057.000000,33652.000000,11546.000000
15788.000000,62016.000000,33589.000000,11477.000000
15744.000000,61975.000000,33525.000000,11402.000000
15696.000000,61936.000000,33460.000000,11324.000000
15645.000000,61900.000000,33398.000000,11239.000000
15592.000000,61864.000000,33339.000000,11149.000000
15539.000000,61826.000000,33282.000000,11065.000000
15491.000000,61791.000000,33229.000000,10989.000000
15448.000000,61760.000000,33180.000000,10922.000000
15405.000000,61733.000000,33134.000000,10874.000000
15367.000000,61711.000000,33098.000000,10850.000000
15340.000000,61694.000000,33070.000000,10853.000000
15324.000000,61681.000000,33045.000000,10875.000000
15313.000000,61672.000000,33027.000000,10909.000000
15311.000000,61667.000000,33015.000000,10964.000000
15325.000000,61674.000000,33017.000000,11024.000000
15349.000000,61692.000000,33032.000000,11065.000000
15378.000000,61717.000000,33056.000000,11091.000000
15414.000000,61749.000000,33088.000000,11110.000000
15455.000000,61788.000000,33129.000000,11119.000000
15495.000000,61828.000000,33172.000000,11115.000000
15529.000000,61863.000000,33217.000000,11115.000000
15556.000000,61897.000000,33264.000000,11128.000000
15584.000000,61928.000000,33311.000000,11142.000000
15610.000000,61954.000000,33350.000000,11153.000000
15634.000000,61976.000000,33380.000000,11175.000000
15660.000000,61998.000000,33408.000000,11214.000000
15683.000000,62022.000000,33434.000000,11255.000000
15704.000000,62044.000000,33455.000000,11285.000000
15727.000000,62065.000000,33468.000000,11294.000000
15752.000000,62084.000000,33481.000000,11283.000000
15775.000000,62100.000000,33495.000000,11261.000000
15787.000000,62106.000000,33502.000000,11240.000000
15785.000000,62101.000000,33496.000000,11237.000000
15771.000000,62087.000000,33484.000000,11254.000000
15750.000000,62067.000000,33471.000000,11268.000000
15723.000000,62043.000000,33452.000000,11259.000000
15692.000000,62016.000000,33419.000000,11241.000000
15659.000000,61984.000000,33375.000000,11222.000000
15622.000000,61947.000000,33329.000000,11200.000000
15584.000000,61911.000000,33283.000000,11179.000000
15551.000000,61882.000000,33236.000000,11160.000000
15522.000000,61860.000000,33196.000000,11138.000000
15492.000000,61837.000000,33161.000000,11105.000000
15454.000000,61811.000000,33126.000000,11066.000000
15407.000000,61783.000000,33085.000000,11022.000000
15353.000000,61751.000000,33032.000000,10958.000000
15292.000000,61707.000000,32967.000000,10874.000000
15227.000000,61655.000000,32894.000000,10788.000000
15162.000000,61601.000000,32821.000000,10714.000000
15099.000000,61550.000000,32748.000000,10655.000000
15038.000000,61499.000000,32673.000000,10597.000000
14980.000000,61446.000000,32591.000000,10526.000000
14922.000000,61389.000000,32501.000000,10455.000000
14867.000000,61337.000000,32413.000000,10376.000000
14815.000000,61290.000000,32332.000000,10283.000000
14756.000000,61243.000000,32253.000000,10175.000000
14690.000000,61191.000000,32175.000000,10066.000000
14621.000000,61139.000000,32097.000000,9972.000000
14551.000000,61088.000000,32018.000000,9882.000000
14479.000000,61034.000000,31937.000000,9783.000000
14407.000000,60977.000000,31856.000000,9689.000000
14336.000000,60916.000000,31770.000000,9608.000000
14260.000000,60847.000000,31675.000000,9529.000000
14183.000000,60777.000000,31577.000000,9448.000000
14110.000000,60711.000000,31485.000000,9373.000000
14043.000000,60651.000000,31395.000000,9302.000000
13978.000000,60594.000000,31302.000000,9223.000000
13914.000000,60540.000000,31210.000000,9135.000000
13848.000000,60488.000000,31127.000000,9042.000000
13780.000000,60436.000000,31049.000000,8948.000000
13712.000000,60386.000000,30969.000000,8853.000000
13650.000000,60340.000000,30893.000000,8756.000000
13597.000000,60300.000000,30827.000000,8667.000000
13549.000000,60264.000000,30766.000000,8589.000000
13501.000000,60226.000000,30706.000000,8519.000000
13456.000000,60191.000000,30651.000000,8456.000000
13417.000000,60162.000000,30605.000000,8410.000000
13375.000000,60131.000000,30556.000000,8382.000000
13326.000000,60093.000000,30498.000000,8356.000000
13274.000000,60050.000000,30436.000000,8329.000000
13229.000000,60009.000000,30377.000000,8300.000000
13191.000000,59975.000000,30322.000000,8273.000000
13157.000000,59945.000000,30267.000000,8248.000000
13127.000000,59918.000000,30216.000000,8219.000000
13104.000000,59898.000000,30176.000000,8192.000000
13081.000000,59882.000000,30141.000000,8162.000000
13055.000000,59861.000000,30105.000000,8113.000000
13027.000000,59838.000000,30076.000000,8049.000000
13001.000000,59819.000000,30053.000000,7986.000000
12973.000000,59803.000000,30026.000000,7931.000000
12941.000000,59782.000000,29990.000000,7882.000000
12912.000000,59757.000000,29954.000000,7843.000000
12887.000000,59729.000000,29915.000000,7816.000000
12862.000000,59700.000000,29869.000000,7809.000000
12838.000000,59671.000000,29821.000000,7818.000000
12819.000000,59641.000000,29779.000000,7827.000000
12807.000000,59616.000000,29741.000000,7816.000000
12795.000000,59597.000000,29706.000000,7783.000000
12780.000000,59583.000000,29673.000000,7735.000000
12764.000000,59574.000000,29644.000000,7690.000000
12744.000000,59565.000000,29617.000000,7653.000000
12721.000000,59550.000000,29586.000000,7614.000000
12693.000000,59528.000000,29553.000000,7563.000000
12659.000000,59503.000000,29519.000000,7506.000000
12618.000000,59474.000000,29482.000000,7451.000000
12564.000000,59443.000000,29436.000000,7393.000000
12503.000000,59409.000000,29384.000000,7333.000000
12441.000000,59372.000000,29331.000000,7285.000000
12385.000000,59333.000000,29276.000000,7250.000000
12332.000000,59292.000000,29214.000000,7230.000000
12279.000000,59246.000000,29144.000000,7212.000000
12229.000000,59195.000000,29068.000000,7180.000000
12182.000000,59146.000000,28990.000000,7130.000000
12136.000000,59104.000000,28913.000000,7069.000000
12092.000000,59067.000000,28844.000000,7006.000000
12055.000000,59039.000000,28782.000000,6944.000000
12021.000000,59016.000000,28720.000000,6881.000000
11982.000000,58990.000000,28657.000000,6813.000000
11943.000000,58959.000000,28607.000000,6745.000000
11911.000000,58933.000000,28574.000000,6682.000000
11890.000000,58918.000000,28552.000000,6629.000000
11881.000000,58915.000000,28548.000000,6593.000000
11896.000000,58934.000000,28578.000000,6586.000000
11949.000000,58985.000000,28657.000000,6636.000000
12049.000000,59077.000000,28793.000000,6761.000000
12207.000000,59218.000000,29000.000000,6959.000000
12430.000000,59411.000000,29292.000000,7227.000000
12720.000000,59656.000000,29660.000000,7570.000000
13062.000000,59945.000000,30081.000000,7967.000000
13434.000000,60256.000000,30536.000000,8396.000000
13820.000000,60579.000000,31012.000000,8845.000000
14213.000000,60908.000000,31500.000000,9298.000000
14592.000000,61225.000000,31977.000000,9745.000000
14946.000000,61519.000000,32434.000000,10173.000000
15278.000000,61789.000000,32871.000000,10582.000000
15586.000000,62032.000000,33269.000000,10959.000000
15862.000000,62247.000000,33619.000000,11275.000000
16094.000000,62439.000000,33928.000000,11542.000000
16287.000000,62614.000000,34198.000000,11785.000000
16452.000000,62769.000000,34431.000000,12006.000000
16587.000000,62894.000000,34625.000000,12198.000000
16695.000000,62988.000000,34775.000000,12358.000000
16782.000000,63053.000000,34888.000000,12482.000000
16848.000000,63093.000000,34969.000000,12572.000000
16893.000000,63110.000000,35023.000000,12625.000000
16920.000000,63111.000000,35052.000000,12650.000000
16931.000000,63103.000000,35061.000000,12664.000000
16922.000000,63087.000000,35051.000000,12664.000000
16894.000000,63059.000000,35023.000000,12637.000000
16851.000000,63020.000000,34976.000000,12587.000000
16797.000000,62971.000000,34921.000000,12521.000000
16737.000000,62919.000000,34861.000000,12443.000000
16663.000000,62859.000000,34790.000000,12353.000000
16574.000000,62790.000000,34701.000000,12259.000000
16476.000000,62716.000000,34599.000000,12170.000000
16376.000000,62641.000000,34488.000000,12088.000000
16273.000000,62562.000000,34374.000000,12009.000000
16171.000000,62479.000000,34257.000000,11937.000000
16073.000000,62400.000000,34137.000000,11871.000000
15983.000000,62331.000000,34018.000000,11802.000000
15896.000000,62269.000000,33899.000000,11721.000000
15815.000000,62211.000000,33787.000000,11629.000000
15745.000000,62158.000000,33691.000000,11534.000000
15682.000000,62109.000000,33607.000000,11431.000000
15622.000000,62061.000000,33525.000000,11319.000000
15558.000000,62007.000000,33445.000000,11218.000000
15495.000000,61952.000000,33369.000000,11135.000000
15433.000000,61898.000000,33299.000000,11053.000000
15371.000000,61839.000000,33227.000000,10967.000000
15306.000000,61770.000000,33148.000000,10883.000000
15236.000000,61694.000000,33063.000000,10807.000000
15157.000000,61614.000000,32972.000000,10729.000000
15071.000000,61532.000000,32872.000000,10651.000000
14983.000000,61456.000000,32768.000000,10583.000000
14900.000000,61391.000000,32666.000000,10520.000000
14818.000000,61333.000000,32564.000000,10453.000000
14738.000000,61280.000000,32459.000000,10384.000000
14668.000000,61232.000000,32357.000000,10317.000000
14613.000000,61192.000000,32271.000000,10242.000000
14574.000000,61161.000000,32206.000000,10159.000000
14544.000000,61139.000000,32157.000000,10078.000000
14522.000000,61128.000000,32126.000000,10007.000000
14509.000000,61130.000000,32110.000000,9951.000000
14505.000000,61138.000000,32105.000000,9900.000000
14506.000000,61147.000000,32107.000000,9856.000000
14512.000000,61157.000000,32122.000000,9838.000000
14525.000000,61169.000000,32144.000000,9845.000000
14541.000000,61180.000000,32165.000000,9863.000000
14561.000000,61193.000000,32189.000000,9893.000000
14587.000000,61210.000000,32224.000000,9941.000000
14620.000000,61232.000000,32268.000000,9993.000000
14654.000000,61251.000000,32317.000000,10044.000000
14688.000000,61267.000000,32365.000000,10107.000000
14727.000000,61286.000000,32409.000000,10181.000000
14768.000000,61313.000000,32452.000000,10253.000000
14807.000000,61343.000000,32492.000000,10315.000000
14843.000000,61377.000000,32531.000000,10368.000000
14878.000000,61417.000000,32573.000000,10411.000000
14913.000000,61460.000000,32616.000000,10440.000000
14936.000000,61492.000000,32651.000000,10452.000000
14948.000000,61512.000000,32674.000000,10457.000000
14957.000000,61528.000000,32693.000000,10456.000000
14961.000000,61540.000000,32707.000000,10446.000000
14955.000000,61539.000000,32709.000000,10438.000000
14941.000000,61525.000000,32699.000000,10452.000000
14920.000000,61505.000000,32681.000000,10481.000000
14892.000000,61484.000000,32659.000000,10497.000000
14859.000000,61463.000000,32626.000000,10497.000000
14828.000000,61444.000000,32582.000000,10492.000000
14804.000000,61428.000000,32537.000000,10481.000000
14781.000000,61411.000000,32493.000000,10452.000000
14753.000000,61388.000000,32446.000000,10403.000000
14722.000000,61359.000000,32397.000000,10342.000000
14686.000000,61324.000000,32346.000000,10266.000000
14644.000000,61285.000000,32294.000000,10174.000000
14592.000000,61242.000000,32239.000000,10076.000000
14536.000000,61197.000000,32180.000000,9981.000000
14479.000000,61148.000000,32115.000000,9892.000000
14412.000000,61092.000000,32039.000000,9802.000000
14334.000000,61027.000000,31951.000000,9714.000000
14250.000000,60960.000000,31860.000000,9638.000000
14169.000000,60895.000000,31773.000000,9568.000000
14092.000000,60833.000000,31689.000000,9490.000000
14020.000000,60773.000000,31611.000000,9409.000000
13954.000000,60720.000000,31541.000000,9344.000000
13893.000000,60678.000000,31475.000000,9293.000000
13833.000000,60638.000000,31405.000000,9239.000000
13772.000000,60594.000000,31335.000000,9175.000000
13712.000000,60549.000000,31267.000000,9100.000000
13651.000000,60503.000000,31195.000000,9014.000000
13585.000000,60454.000000,31115.000000,8915.000000
13517.000000,60402.000000,31034.000000,8809.000000
13449.000000,60345.000000,30951.000000,8703.000000
13378.000000,60284.000000,30863.000000,8607.000000
13303.000000,60220.000000,30767.000000,8521.000000
13229.000000,60155.000000,30671.000000,8449.000000
13161.000000,60096.000000,30583.000000,8396.000000
13100.000000,60045.000000,30502.000000,8360.000000
13042.000000,59997.000000,30424.000000,8325.000000
12992.000000,59951.000000,30353.000000,8284.000000
12957.000000,59913.000000,30295.000000,8246.000000
12935.000000,59887.000000,30244.000000,8212.000000
12917.000000,59873.000000,30201.000000,8171.000000
12905.000000,59872.000000,30171.000000,8124.000000
12898.000000,59877.000000,30154.000000,8083.000000
12889.000000,59880.000000,30138.000000,8043.000000
12872.000000,59871.000000,30118.000000,7997.000000
12848.000000,59850.000000,30096.000000,7954.000000
12821.000000,59822.000000,30068.000000,7921.000000
12791.000000,59794.000000,30032.000000,7893.000000
12758.000000,59767.000000,29993.000000,7864.000000
12724.000000,59740.000000,29957.000000,7835.000000
12690.000000,59715.000000,29919.000000,7812.000000
12657.000000,59688.000000,29873.000000,7791.000000
12626.000000,59658.000000,29823.000000,7770.000000
12601.000000,59627.000000,29775.000000,7751.000000
12585.000000,59603.000000,29733.000000,7736.000000
12573.000000,59584.000000,29692.000000,7719.000000
12558.000000,59568.000000,29651.000000,7685.000000
12548.000000,59561.000000,29619.000000,7639.000000
12543.000000,59559.000000,29599.000000,7586.000000
12534.000000,59556.000000,29582.000000,7520.000000
12513.000000,59544.000000,29559.000000,7458.000000
12488.000000,59527.000000,29529.000000,7411.000000
12465.000000,59507.000000,29492.000000,7376.000000
12437.000000,59486.000000,29448.000000,7341.000000
12408.000000,59463.000000,29402.000000,7303.000000
12378.000000,59438.000000,29357.000000,7269.000000
12347.000000,59413.000000,29312.000000,7244.000000
12314.000000,59386.000000,29265.000000,7223.000000
12281.000000,59357.000000,29218.000000,7199.000000
12254.000000,59332.000000,29178.000000,7174.000000
12234.000000,59315.000000,29143.000000,7151.000000
12215.000000,59302.000000,29116.000000,7126.000000
12205.000000,59299.000000,29102.000000,7101.000000
12214.000000,59313.000000,29114.000000,7093.000000
12250.000000,59349.000000,29156.000000,7111.000000
12315.000000,59409.000000,29238.000000,7164.000000
12419.000000,59499.000000,29371.000000,7257.000000
12573.000000,59629.000000,29564.000000,7395.000000
12774.000000,59804.000000,29817.000000,7596.000000
13018.000000,60016.000000,30125.000000,7862.000000
13299.000000,60255.000000,30480.000000,8179.000000
13605.000000,60509.000000,30868.000000,8538.000000
13924.000000,60773.000000,31273.000000,8928.000000
14247.000000,61041.000000,31680.000000,9330.000000
14567.000000,61306.000000,32085.000000,9727.000000
14880.000000,61560.000000,32478.000000,10110.000000
15178.000000,61800.000000,32847.000000,10470.000000
15457.000000,62023.000000,33187.000000,10804.000000
15713.000000,62227.000000,33501.000000,11115.000000
15945.000000,62409.000000,33787.000000,11399.000000
16146.000000,62564.000000,34041.000000,11646.000000
16316.000000,62694.000000,34258.000000,11858.000000
16461.000000,62805.000000,34440.000000,12045.000000
16586.000000,62901.000000,34593.000000,12206.000000
16685.000000,62979.000000,34722.000000,12327.000000
16753.000000,63033.000000,34822.000000,12401.000000
16797.000000,63065.000000,34894.000000,12439.000000
16820.000000,63079.000000,34939.000000,12453.000000
16818.000000,63076.000000,34956.000000,12442.000000
16791.000000,63053.000000,34945.000000,12417.000000
16746.000000,63012.000000,34910.000000,12389.000000
16688.000000,62961.000000,34859.000000,12355.000000
16618.000000,62900.000000,34794.000000,12312.000000
16539.000000,62831.000000,34714.000000,12277.000000
16454.000000,62762.000000,34622.000000,12261.000000
16368.000000,62694.000000,34524.000000,12236.000000
16283.000000,62624.000000,34418.000000,12183.000000
16206.000000,62554.000000,34308.000000,12113.000000
16136.000000,62488.000000,34202.000000,12035.000000
16067.000000,62427.000000,34103.000000,11947.000000
15995.000000,62368.000000,34007.000000,11847.000000
15920.000000,62308.000000,33909.000000,11750.000000
15845.000000,62249.000000,33811.000000,11657.000000
15775.000000,62194.000000,33719.000000,11559.000000
15708.000000,62143.000000,33632.000000,11462.000000
15645.000000,62092.000000,33551.000000,11381.000000
15585.000000,62041.000000,33476.000000,11320.000000
15527.000000,61990.000000,33402.000000,11267.000000
15465.000000,61938.000000,33323.000000,11212.000000
15398.000000,61885.000000,33243.000000,11161.000000
15331.000000,61834.000000,33163.000000,11114.000000
15266.000000,61786.000000,33083.000000,11055.000000
15201.000000,61737.000000,33001.000000,10981.000000
15135.000000,61687.000000,32914.000000,10901.000000
15073.000000,61637.000000,32824.000000,10818.000000
15016.000000,61590.000000,32733.000000,10723.000000
14961.000000,61545.000000,32646.000000,10620.000000
14909.000000,61500.000000,32559.000000,10517.000000
14857.000000,61452.000000,32472.000000,10411.000000
14802.000000,61402.000000,32389.000000,10303.000000
14746.000000,61351.000000,32314.000000,10200.000000
14700.000000,61304.000000,32249.000000,10110.000000
14659.000000,61265.000000,32200.000000,10041.000000
14617.000000,61234.000000,32167.000000,9996.000000
14580.000000,61210.000000,32145.000000,9971.000000
14557.000000,61193.000000,32137.000000,9963.000000
14553.000000,61190.000000,32145.000000,9975.000000
14562.000000,61197.000000,32160.000000,10005.000000
14577.000000,61205.000000,32175.000000,10047.000000
14600.000000,61217.000000,32191.000000,10096.000000
14632.000000,61239.000000,32211.000000,10148.000000
14670.000000,61271.000000,32237.000000,10198.000000
14710.000000,61311.000000,32268.000000,10248.000000
14758.000000,61359.000000,32308.000000,10302.000000
14809.000000,61410.000000,32356.000000,10357.000000
14856.000000,61459.000000,32404.000000,10398.000000
14901.000000,61505.000000,32453.000000,10439.000000
14949.000000,61550.000000,32503.000000,10486.000000
14995.000000,61592.000000,32556.000000,10524.000000
15035.000000,61626.000000,32607.000000,10553.000000
15063.000000,61648.000000,32645.000000,10575.000000
15082.000000,61659.000000,32670.000000,10590.000000
15097.000000,61666.000000,32688.000000,10599.000000
15111.000000,61668.000000,32696.000000,10610.000000
15122.000000,61662.000000,32691.000000,10629.000000
15126.000000,61653.000000,32679.000000,10642.000000
15125.000000,61647.000000,32667.000000,10640.000000
15121.000000,61640.000000,32656.000000,10626.000000
15115.000000,61629.000000,32642.000000,10604.000000
15107.000000,61617.000000,32627.000000,10572.000000
15097.000000,61604.000000,32613.000000,10533.000000
15076.000000,61584.000000,32592.000000,10482.000000
15045.000000,61557.000000,32563.000000,10436.000000
15004.000000,61527.000000,32528.000000,10404.000000
14957.000000,61498.000000,32486.000000,10372.000000
14903.000000,61464.000000,32432.000000,10333.000000
14848.000000,61427.000000,32368.000000,10290.000000
14797.000000,61393.000000,32303.000000,10254.000000
14748.000000,61361.000000,32234.000000,10220.000000
14698.000000,61323.000000,32160.000000,10179.000000
14643.000000,61276.000000,32080.000000,10136.000000
14591.000000,61228.000000,32003.000000,10090.000000
14546.000000,61181.000000,31933.000000,10030.000000
14501.000000,61133.000000,31866.000000,9951.000000
14456.000000,61086.000000,31804.000000,9852.000000
14404.000000,61041.000000,31746.000000,9747.000000
14342.000000,60991.000000,31685.000000,9638.000000
14273.000000,60934.000000,31619.000000,9525.000000
14204.000000,60875.000000,31553.000000,9419.000000
14139.000000,60823.000000,31489.000000,9325.000000
14069.000000,60769.000000,31418.000000,9239.000000
13990.000000,60709.000000,31331.000000,9154.000000
13910.000000,60648.000000,31236.000000,9075.000000
13837.000000,60591.000000,31141.000000,9008.000000
13772.000000,60538.000000,31046.000000,8949.000000
13714.000000,60489.000000,30958.000000,8894.000000
13666.000000,60448.000000,30882.000000,8843.000000
13622.000000,60413.000000,30808.000000,8794.000000
13576.000000,60377.000000,30729.000000,8736.000000
13527.000000,60338.000000,30651.000000,8671.000000
13480.000000,60299.000000,30579.000000,8599.000000
13433.000000,60263.000000,30511.000000,8528.000000
13384.000000,60226.000000,30449.000000,8460.000000
13337.000000,60190.000000,30395.000000,8392.000000
13295.000000,60155.000000,30344.000000,8326.000000
13250.000000,60120.000000,30289.000000,8260.000000
13202.000000,60082.000000,30230.000000,8197.000000
13157.000000,60041.000000,30173.000000,8147.000000
13119.000000,59999.000000,30117.000000,8104.000000
13089.000000,59961.000000,30059.000000,8058.000000
13063.000000,59930.000000,30005.000000,8019.000000
13040.000000,59903.000000,29957.000000,7986.000000
13022.000000,59881.000000,29919.000000,7947.000000
13012.000000,59866.000000,29888.000000,7916.000000
13005.000000,59856.000000,29862.000000,7894.000000
12998.000000,59846.000000,29838.000000,7868.000000
12984.000000,59830.000000,29812.000000,7832.000000
12958.000000,59809.000000,29779.000000,7785.000000
12924.000000,59784.000000,29741.000000,7733.000000
12890.000000,59759.000000,29703.000000,7688.000000
12860.000000,59738.000000,29665.000000,7655.000000
12834.000000,59716.000000,29626.000000,7631.000000
12808.000000,59693.000000,29588.000000,7607.000000
12786.000000,59670.000000,29555.000000,7585.000000
12768.000000,59650.000000,29529.000000,7567.000000
12749.000000,59633.000000,29503.000000,7543.000000
12728.000000,59616.000000,29478.000000,7513.000000
12711.000000,59600.000000,29458.000000,7482.000000
12693.000000,59587.000000,29435.000000,7450.000000
12666.000000,59569.000000,29395.000000,7411.000000
12630.000000,59544.000000,29346.000000,7371.000000
12588.000000,59517.000000,29295.000000,7332.000000
12550.000000,59489.000000,29243.000000,7293.000000
12513.000000,59459.000000,29183.000000,7254.000000
12475.000000,59427.000000,29124.000000,7215.000000
12439.000000,59397.000000,29076.000000,7178.000000
12406.000000,59371.000000,29033.000000,7138.000000
12371.000000,59344.000000,28986.000000,7091.000000
12337.000000,59315.000000,28940.000000,7045.000000
12309.000000,59287.000000,28902.000000,7000.000000
12286.000000,59262.000000,28866.000000,6955.000000
12263.000000,59239.000000,28834.000000,6910.000000
12242.000000,59223.000000,28811.000000,6876.000000
12232.000000,59220.000000,28801.000000,6865.000000
12243.000000,59236.000000,28806.000000,6882.000000
12280.000000,59273.000000,28840.000000,6923.000000
12349.000000,59336.000000,28919.000000,6994.000000
12466.000000,59438.000000,29061.000000,7115.000000
12641.000000,59590.000000,29270.000000,7293.000000
12869.000000,59788.000000,29543.000000,7519.000000
13144.000000,60024.000000,29877.000000,7785.000000
13453.000000,60288.000000,30264.000000,8097.000000
13777.000000,60562.000000,30677.000000,8448.000000
14101.000000,60830.000000,31094.000000,8818.000000
14423.000000,61094.000000,31509.000000,9198.000000
14741.000000,61354.000000,31920.000000,9586.000000
15045.000000,61603.000000,32314.000000,9966.000000
15333.000000,61838.000000,32686.000000,10323.000000
15601.000000,62059.000000,33032.000000,10661.000000
15846.000000,62261.000000,33346.000000,10977.000000
16065.000000,62441.000000,33623.000000,11256.000000
16255.000000,62598.000000,33864.000000,11497.000000
16425.000000,62734.000000,34076.000000,11714.000000
16574.000000,62849.000000,34263.000000,11910.000000
16697.000000,62938.000000,34421.000000,12066.000000
16793.000000,63002.000000,34548.000000,12186.000000
16864.000000,63047.000000,34647.000000,12296.000000
16913.000000,63079.000000,34723.000000,12388.000000
16940.000000,63098.000000,34777.000000,12450.000000
16946.000000,63101.000000,34803.000000,12492.000000
16940.000000,63095.000000,34805.000000,12522.000000
16926.000000,63082.000000,34790.000000,12526.000000
16897.000000,63055.000000,34759.000000,12496.000000
16850.000000,63012.000000,34711.000000,12441.000000
16793.000000,62962.000000,34652.000000,12374.000000
16730.000000,62911.000000,34583.000000,12296.000000
16660.000000,62851.000000,34499.000000,12202.000000
16580.000000,62780.000000,34401.000000,12098.000000
16495.000000,62705.000000,34300.000000,12001.000000
16407.000000,62628.000000,34196.000000,11908.000000
16318.000000,62548.000000,34088.000000,11816.000000
16231.000000,62469.000000,33977.000000,11741.000000
16150.000000,62399.000000,33868.000000,11691.000000
16078.000000,62343.000000,33768.000000,11654.000000
16012.000000,62297.000000,33681.000000,11615.000000
15952.000000,62260.000000,33607.000000,11575.000000
15902.000000,62233.000000,33548.000000,11540.000000
15860.000000,62211.000000,33499.000000,11498.000000
15818.000000,62187.000000,33453.000000,11441.000000
15772.000000,62154.000000,33402.000000,11379.000000
15725.000000,62115.000000,33343.000000,11324.000000
15683.000000,62075.000000,33281.000000,11270.000000
15639.000000,62033.000000,33218.000000,11216.000000
15592.000000,61988.000000,33152.000000,11165.000000
15551.000000,61944.000000,33088.000000,11110.000000
15513.000000,61904.000000,33029.000000,11047.000000
15468.000000,61862.000000,32971.000000,10970.000000
15418.000000,61815.000000,32909.000000,10881.000000
15363.000000,61766.000000,32847.000000,10788.000000
15303.000000,61713.000000,32783.000000,10682.000000
15236.000000,61655.000000,32713.000000,10570.000000
15171.000000,61599.000000,32643.000000,10470.000000
15117.000000,61553.000000,32578.000000,10396.000000
15070.000000,61513.000000,32517.000000,10343.000000
15027.000000,61479.000000,32460.000000,10314.000000
14997.000000,61461.000000,32411.000000,10315.000000
14982.000000,61461.000000,32380.000000,10335.000000
14976.000000,61472.000000,32363.000000,10353.000000
14974.000000,61483.000000,32347.000000,10363.000000
14979.000000,61495.000000,32335.000000,10374.000000
14995.000000,61516.000000,32335.000000,10386.000000
15018.000000,61540.000000,32344.000000,10390.000000
15041.000000,61559.000000,32357.000000,10395.000000
15056.000000,61567.000000,32370.000000,10409.000000
15069.000000,61572.000000,32385.000000,10429.000000
15084.000000,61579.000000,32405.000000,10455.000000
15104.000000,61586.000000,32426.000000,10491.000000
15128.000000,61597.000000,32450.000000,10533.000000
15155.000000,61616.000000,32484.000000,10570.000000
15177.000000,61636.000000,32517.000000,10589.000000
15197.000000,61655.000000,32544.000000,10587.000000
15220.000000,61678.000000,32570.000000,10570.000000
15242.000000,61702.000000,32596.000000,10550.000000
15257.000000,61716.000000,32615.000000,10540.000000
15264.000000,61719.000000,32624.000000,10554.000000
15267.000000,61718.000000,32621.000000,10587.000000
15265.000000,61715.000000,32610.000000,10612.000000
15257.000000,61706.000000,32592.000000,10621.000000
15247.000000,61698.000000,32574.000000,10628.000000
15240.000000,61696.000000,32562.000000,10624.000000
15228.000000,61695.000000,32549.000000,10591.000000
15208.000000,61684.000000,32529.000000,10532.000000
15184.000000,61664.000000,32505.000000,10470.000000
15153.000000,61636.000000,32478.000000,10422.000000
15112.000000,61602.000000,32446.000000,10381.000000
15063.000000,61567.000000,32402.000000,10344.000000
15015.000000,61535.000000,32346.000000,10321.000000
14974.000000,61507.000000,32282.000000,10300.000000
14938.000000,61480.000000,32216.000000,10273.000000
14900.000000,61447.000000,32149.000000,10231.000000
14861.000000,61406.000000,32082.000000,10173.000000
14819.000000,61362.000000,32016.000000,10104.000000
14772.000000,61313.000000,31951.000000,10017.000000
14714.000000,61257.000000,31881.000000,9920.000000
14646.000000,61192.000000,31808.000000,9829.000000
14577.000000,61126.000000,31737.000000,9748.000000
14512.000000,61063.000000,31665.000000,9672.000000
14446.000000,61005.000000,31592.000000,9594.000000
14385.000000,60956.000000,31525.000000,9514.000000
14331.000000,60915.000000,31463.000000,9430.000000
14276.000000,60876.000000,31398.000000,9333.000000
14214.000000,60832.000000,31325.000000,9225.000000
14148.000000,60787.000000,31249.000000,9120.000000
14081.000000,60740.000000,31173.000000,9028.000000
14011.000000,60688.000000,31093.000000,8949.000000
13944.000000,60634.000000,31013.000000,8886.000000
13885.000000,60584.000000,30938.000000,8839.000000
13834.000000,60540.000000,30863.000000,8800.000000
13783.000000,60497.000000,30787.000000,8757.000000
13732.000000,60457.000000,30717.000000,8701.000000
13691.000000,60423.000000,30658.000000,8635.000000
13655.000000,60394.000000,30601.000000,8573.000000
13615.000000,60361.000000,30539.000000,8515.000000
13563.000000,60317.000000,30471.000000,8463.000000
13509.000000,60268.000000,30402.000000,8426.000000
13459.000000,60221.000000,30330.000000,8391.000000
13411.000000,60171.000000,30255.000000,8334.000000
13362.000000,60121.000000,30184.000000,8255.000000
13317.000000,60080.000000,30122.000000,8172.000000
13274.000000,60043.000000,30067.000000,8097.000000
13231.000000,60008.000000,30011.000000,8030.000000
13187.000000,59972.000000,29958.000000,7974.000000
13144.000000,59936.000000,29909.000000,7935.000000
13102.000000,59900.000000,29857.000000,7910.000000
13069.000000,59872.000000,29807.000000,7886.000000
13046.000000,59852.000000,29767.000000,7868.000000
13027.000000,59840.000000,29735.000000,7849.000000
13003.000000,59828.000000,29701.000000,7816.000000
12968.000000,59808.000000,29661.000000,7769.000000
12934.000000,59787.000000,29626.000000,7713.000000
12903.000000,59769.000000,29595.000000,7655.000000
12869.000000,59746.000000,29554.000000,7597.000000
12835.000000,59715.000000,29500.000000,7542.000000
12809.000000,59683.000000,29445.000000,7504.000000
12792.000000,59658.000000,29397.000000,7486.000000
12779.000000,59642.000000,29352.000000,7475.000000
12763.000000,59625.000000,29309.000000,7459.000000
12744.000000,59605.000000,29273.000000,7433.000000
12722.000000,59585.000000,29238.000000,7399.000000
12693.000000,59565.000000,29202.000000,7358.000000
12660.000000,59541.000000,29163.000000,7312.000000
12627.000000,59516.000000,29123.000000,7270.000000
12598.000000,59493.000000,29083.000000,7241.000000
12575.000000,59469.000000,29042.000000,7216.000000
12554.000000,59443.000000,29004.000000,7184.000000
12531.000000,59416.000000,28968.000000,7152.000000
12503.000000,59393.000000,28933.000000,7122.000000
12467.000000,59367.000000,28896.000000,7087.000000
12422.000000,59336.000000,28859.000000,7044.000000
12373.000000,59301.000000,28822.000000,6995.000000
12325.000000,59265.000000,28778.000000,6942.000000
12277.000000,59226.000000,28725.000000,6896.000000
12228.000000,59180.000000,28667.000000,6852.000000
12182.000000,59135.000000,28609.000000,6806.000000
12141.000000,59096.000000,28547.000000,6760.000000
12101.000000,59059.000000,28484.000000,6714.000000
12065.000000,59025.000000,28430.000000,6669.000000
12038.000000,58999.000000,28384.000000,6619.000000
12011.000000,58979.000000,28337.000000,6557.000000
11979.000000,58958.000000,28285.000000,6491.000000
11944.000000,58932.000000,28232.000000,6432.000000
11904.000000,58901.000000,28179.000000,6380.000000
11861.000000,58868.000000,28122.000000,6328.000000
11820.000000,58838.000000,28064.000000,6284.000000
11786.000000,58814.000000,28012.000000,6268.000000
11760.000000,58798.000000,27969.000000,6266.000000
11735.000000,58782.000000,27923.000000,6250.000000
11707.000000,58762.000000,27872.000000,6198.000000
11679.000000,58740.000000,27823.000000,6119.000000
11649.000000,58717.000000,27775.000000,6043.000000
11615.000000,58691.000000,27724.000000,5966.000000
11578.000000,58658.000000,27666.000000,5881.000000
11539.000000,58615.000000,27604.000000,5799.000000
11500.000000,58572.000000,27540.000000,5727.000000
11456.000000,58530.000000,27471.000000,5671.000000
11410.000000,58487.000000,27405.000000,5628.000000
11370.000000,58449.000000,27348.000000,5583.000000
11337.000000,58421.000000,27296.000000,5532.000000
11304.000000,58401.000000,27250.000000,5479.000000
11266.000000,58383.000000,27209.000000,5432.000000
11223.000000,58360.000000,27171.000000,5394.000000
11177.000000,58330.000000,27131.000000,5357.000000
11129.000000,58292.000000,27084.000000,5320.000000
11082.000000,58249.000000,27033.000000,5289.000000
11041.000000,58208.000000,26977.000000,5266.000000
11001.000000,58168.000000,26915.000000,5245.000000
10957.000000,58126.000000,26848.000000,5216.000000
10916.000000,58084.000000,26784.000000,5179.000000
10879.000000,58047.000000,26726.000000,5139.000000
10845.000000,58018.000000,26671.000000,5091.000000
10808.000000,57992.000000,26619.000000,5024.000000
10762.000000,57959.000000,26567.000000,4942.000000
10710.000000,57922.000000,26513.000000,4862.000000
10661.000000,57889.000000,26459.000000,4796.000000
10611.000000,57853.000000,26397.000000,4737.000000
10561.000000,57809.000000,26330.000000,4686.000000
10518.000000,57768.000000,26270.000000,4643.000000
10487.000000,57737.000000,26219.000000,4611.000000
10469.000000,57716.000000,26183.000000,4591.000000
10473.000000,57714.000000,26174.000000,4585.000000
10512.000000,57747.000000,26210.000000,4598.000000
10595.000000,57823.000000,26300.000000,4652.000000
10733.000000,57948.000000,26464.000000,4776.000000
10941.000000,58132.000000,26722.000000,4987.000000
11223.000000,58376.000000,27072.000000,5289.000000
11568.000000,58672.000000,27498.000000,5670.000000
11959.000000,59005.000000,27983.000000,6118.000000
12383.000000,59363.000000,28510.000000,6617.000000
12824.000000,59733.000000,29059.000000,7137.000000
13261.000000,60096.000000,29602.000000,7651.000000
13678.000000,60441.000000,30127.000000,8131.000000
14071.000000,60762.000000,30633.000000,8563.000000
14433.000000,61060.000000,31109.000000,8953.000000
14756.000000,61330.000000,31544.000000,9309.000000
15038.000000,61564.000000,31927.000000,9639.000000
15284.000000,61764.000000,32264.000000,9951.000000
15502.000000,61935.000000,32562.000000,10247.000000
15685.000000,62077.000000,32818.000000,10518.000000
15839.000000,62188.000000,33026.000000,10757.000000
15973.000000,62277.000000,33192.000000,10961.000000
16085.000000,62348.000000,33329.000000,11122.000000
16170.000000,62404.000000,33440.000000,11240.000000
16228.000000,62445.000000,33522.000000,11327.000000
16266.000000,62472.000000,33579.000000,11384.000000
16283.000000,62485.000000,33613.000000,11405.000000
16274.000000,62479.000000,33622.000000,11394.000000
16244.000000,62456.000000,33606.000000,11373.000000
16197.000000,62416.000000,33564.000000,11354.000000
16138.000000,62363.000000,33500.000000,11324.000000
16072.000000,62300.000000,33420.000000,11281.000000
16007.000000,62238.000000,33330.000000,11235.000000
15948.000000,62179.000000,33240.000000,11184.000000
15884.000000,62116.000000,33150.000000,11116.000000
15811.000000,62051.000000,33059.000000,11025.000000
15733.000000,61988.000000,32967.000000,10923.000000
15652.000000,61929.000000,32873.000000,10820.000000
15567.000000,61871.000000,32779.000000,10715.000000
15473.000000,61809.000000,32682.000000,10612.000000
15378.000000,61743.000000,32584.000000,10523.000000
15292.000000,61679.000000,32489.000000,10459.000000
15213.000000,61621.000000,32400.000000,10408.000000
15143.000000,61567.000000,32319.000000,10364.000000
15090.000000,61520.000000,32248.000000,10340.000000
15054.000000,61485.000000,32194.000000,10325.000000
15023.000000,61457.000000,32151.000000,10298.000000
14994.000000,61436.000000,32117.000000,10262.000000
14972.000000,61422.000000,32092.000000,10226.000000
14953.000000,61411.000000,32073.000000,10194.000000
14926.000000,61398.000000,32050.000000,10152.000000
14892.000000,61378.000000,32018.000000,10111.000000
14854.000000,61352.000000,31974.000000,10086.000000
14816.000000,61323.000000,31921.000000,10066.000000
14771.000000,61286.000000,31855.000000,10021.000000
14718.000000,61239.000000,31779.000000,9954.000000
14666.000000,61192.000000,31705.000000,9888.000000
14622.000000,61150.000000,31642.000000,9817.000000
14580.000000,61113.000000,31589.000000,9733.000000
14541.000000,61080.000000,31541.000000,9639.000000
14508.000000,61056.000000,31502.000000,9544.000000
14485.000000,61041.000000,31473.000000,9465.000000
14465.000000,61029.000000,31452.000000,9407.000000
14446.000000,61017.000000,31438.000000,9373.000000
14429.000000,61003.000000,31432.000000,9365.000000
14417.000000,60994.000000,31429.000000,9377.000000
14412.000000,60987.000000,31428.000000,9396.000000
14416.000000,60981.000000,31428.000000,9414.000000
14428.000000,60980.000000,31429.000000,9435.000000
14447.000000,60987.000000,31430.000000,9461.000000
14466.000000,60995.000000,31432.000000,9482.000000
14487.000000,61006.000000,31444.000000,9493.000000
14511.000000,61026.000000,31471.000000,9496.000000
14538.000000,61056.000000,31509.000000,9495.000000
14565.000000,61091.000000,31548.000000,9494.000000
14594.000000,61122.000000,31585.000000,9499.000000
14623.000000,61151.000000,31622.000000,9518.000000
14646.000000,61177.000000,31655.000000,9552.000000
14663.000000,61195.000000,31677.000000,9594.000000
14680.000000,61208.000000,31694.000000,9641.000000
14709.000000,61222.000000,31716.000000,9694.000000
14744.000000,61235.000000,31743.000000,9748.000000
14769.000000,61248.000000,31766.000000,9785.000000
14780.000000,61261.000000,31792.000000,9811.000000
14782.000000,61270.000000,31816.000000,9828.000000
14775.000000,61270.000000,31822.000000,9822.000000
14760.000000,61258.000000,31810.000000,9801.000000
14746.000000,61242.000000,31796.000000,9785.000000
14735.000000,61233.000000,31782.000000,9766.000000
14727.000000,61228.000000,31762.000000,9740.000000
14719.000000,61223.000000,31736.000000,9712.000000
14707.000000,61217.000000,31708.000000,9680.000000
14691.000000,61210.000000,31677.000000,9641.000000
14665.000000,61196.000000,31636.000000,9592.000000
14627.000000,61171.000000,31581.000000,9536.000000
14584.000000,61135.000000,31521.000000,9484.000000
14543.000000,61096.000000,31459.000000,9441.000000
14501.000000,61054.000000,31393.000000,9397.000000
14454.000000,61007.000000,31332.000000,9359.000000
14408.000000,60959.000000,31278.000000,9321.000000
14366.000000,60911.000000,31224.000000,9270.000000
14322.000000,60864.000000,31164.000000,9210.000000
14274.000000,60819.000000,31101.000000,9150.000000
14223.000000,60776.000000,31039.000000,9091.000000
14169.000000,60734.000000,30973.000000,9028.000000
14105.000000,60687.000000,30898.000000,8947.000000
14035.000000,60632.000000,30820.000000,8854.000000
13967.000000,60574.000000,30741.000000,8762.000000
13899.000000,60515.000000,30658.000000,8676.000000
13830.000000,60455.000000,30568.000000,8600.000000
13764.000000,60397.000000,30477.000000,8540.000000
13705.000000,60343.000000,30390.000000,8492.000000
13653.000000,60295.000000,30305.000000,8443.000000
13603.000000,60250.000000,30225.000000,8381.000000
13555.000000,60206.000000,30155.000000,8314.000000
13514.000000,60167.000000,30096.000000,8244.000000
13471.000000,60130.000000,30038.000000,8167.000000
13416.000000,60088.000000,29975.000000,8087.000000
13353.000000,60039.000000,29913.000000,8015.000000
13292.000000,59990.000000,29851.000000,7968.000000
13234.000000,59945.000000,29784.000000,7937.000000
13181.000000,59904.000000,29711.000000,7902.000000
13133.000000,59868.000000,29642.000000,7855.000000
13092.000000,59840.000000,29583.000000,7798.000000
13052.000000,59816.000000,29525.000000,7727.000000
13007.000000,59788.000000,29464.000000,7642.000000
12963.000000,59759.000000,29407.000000,7557.000000
12922.000000,59730.000000,29354.000000,7483.000000
12881.000000,59697.000000,29299.000000,7414.000000
12838.000000,59660.000000,29241.000000,7355.000000
12797.000000,59623.000000,29185.000000,7318.000000
12763.000000,59591.000000,29133.000000,7295.000000
12733.000000,59561.000000,29078.000000,7273.000000
12707.000000,59530.000000,29023.000000,7238.000000
12692.000000,59505.000000,28980.000000,7191.000000
12681.000000,59486.000000,28944.000000,7145.000000
12661.000000,59463.000000,28904.000000,7094.000000
12629.000000,59434.000000,28859.000000,7042.000000
12595.000000,59405.000000,28818.000000,7004.000000
12563.000000,59378.000000,28778.000000,6981.000000
12528.000000,59349.000000,28735.000000,6969.000000
12496.000000,59321.000000,28693.000000,6962.000000
12475.000000,59299.000000,28659.000000,6952.000000
12459.000000,59283.000000,28627.000000,6935.000000
12443.000000,59271.000000,28596.000000,6906.000000
12425.000000,59259.000000,28568.000000,6870.000000
12405.000000,59246.000000,28543.000000,6828.000000
12383.000000,59231.000000,28515.000000,6783.000000
12355.000000,59210.000000,28475.000000,6736.000000
12320.000000,59182.000000,28426.000000,6685.000000
12281.000000,59150.000000,28378.000000,6645.000000
12242.000000,59119.000000,28329.000000,6617.000000
12202.000000,59089.000000,28277.000000,6586.000000
12163.000000,59058.000000,28228.000000,6547.000000
12125.000000,59028.000000,28187.000000,6508.000000
12089.000000,59002.000000,28148.000000,6471.000000
12053.000000,58976.000000,28111.000000,6431.000000
12018.000000,58949.000000,28075.000000,6387.000000
11983.000000,58918.000000,28039.000000,6336.000000
11946.000000,58885.000000,27998.000000,6283.000000
11910.000000,58850.000000,27952.000000,6230.000000
11873.000000,58812.000000,27906.000000,6176.000000
11834.000000,58773.000000,27858.000000,6131.000000
11791.000000,58734.000000,27801.000000,6093.000000
11750.000000,58698.000000,27740.000000,6054.000000
11714.000000,58667.000000,27681.000000,6018.000000
11684.000000,58643.000000,27628.000000,5979.000000
11653.000000,58621.000000,27575.000000,5931.000000
11615.000000,58598.000000,27521.000000,5874.000000
11579.000000,58576.000000,27473.000000,5809.000000
11545.000000,58551.000000,27427.000000,5747.000000
11504.000000,58520.000000,27377.000000,5687.000000
11458.000000,58484.000000,27323.000000,5635.000000
11413.000000,58444.000000,27269.000000,5597.000000
11369.000000,58405.000000,27219.000000,5569.000000
11327.000000,58370.000000,27173.000000,5556.000000
11287.000000,58338.000000,27129.000000,5549.000000
11252.000000,58308.000000,27089.000000,5531.000000
11219.000000,58282.000000,27049.000000,5506.000000
11188.000000,58262.000000,27008.000000,5474.000000
11153.000000,58241.000000,26965.000000,5428.000000
11113.000000,58215.000000,26920.000000,5363.000000
11067.000000,58180.000000,26865.000000,5293.000000
11016.000000,58138.000000,26803.000000,5226.000000
10967.000000,58095.000000,26742.000000,5158.000000
10926.000000,58053.000000,26682.000000,5093.000000
10889.000000,58010.000000,26621.000000,5043.000000
10852.000000,57967.000000,26562.000000,5007.000000
10817.000000,57927.000000,26507.000000,4976.000000
10783.000000,57890.000000,26458.000000,4942.000000
10740.000000,57854.000000,26405.000000,4900.000000
10687.000000,57814.000000,26348.000000,4842.000000
10627.000000,57772.000000,26293.000000,4768.000000
10566.000000,57733.000000,26239.000000,4685.000000
10502.000000,57697.000000,26179.000000,4602.000000
10432.000000,57657.000000,26107.000000,4529.000000
10360.000000,57610.000000,26025.000000,4465.000000
10290.000000,57560.000000,25941.000000,4412.000000
10224.000000,57514.000000,25858.000000,4369.000000
10165.000000,57470.000000,25778.000000,4322.000000
10114.000000,57432.000000,25710.000000,4265.000000
10077.000000,57404.000000,25664.000000,4203.000000
10049.000000,57387.000000,25636.000000,4155.000000
10035.000000,57384.000000,25628.000000,4124.000000
10051.000000,57405.000000,25661.000000,4125.000000
10118.000000,57465.000000,25756.000000,4182.000000
10245.000000,57577.000000,25926.000000,4304.000000
10443.000000,57751.000000,26184.000000,4505.000000
10722.000000,57991.000000,26540.000000,4793.000000
11070.000000,58288.000000,26986.000000,5171.000000
11464.000000,58622.000000,27499.000000,5630.000000
11886.000000,58983.000000,28056.000000,6137.000000
12327.000000,59362.000000,28641.000000,6671.000000
12773.000000,59745.000000,29234.000000,7213.000000
13209.000000,60113.000000,29809.000000,7741.000000
13620.000000,60458.000000,30352.000000,8236.000000
14005.000000,60779.000000,30862.000000,8694.000000
14361.000000,61073.000000,31334.000000,9117.000000
14679.000000,61333.000000,31764.000000,9505.000000
14958.000000,61564.000000,32159.000000,9860.000000
15204.000000,61769.000000,32521.000000,10178.000000
15414.000000,61946.000000,32834.000000,10462.000000
15583.000000,62087.000000,33088.000000,10719.000000
15717.000000,62192.000000,33287.000000,10955.000000
15824.000000,62272.000000,33444.000000,11165.000000
15908.000000,62337.000000,33566.000000,11337.000000
15970.000000,62384.000000,33657.000000,11474.000000
16012.000000,62416.000000,33721.000000,11584.000000
16039.000000,62440.000000,33767.000000,11661.000000
16055.000000,62454.000000,33797.000000,11689.000000
16056.000000,62452.000000,33805.000000,11670.000000
16041.000000,62431.000000,33786.000000,11620.000000
16015.000000,62399.000000,33747.000000,11551.000000
15976.000000,62358.000000,33694.000000,11469.000000
15923.000000,62304.000000,33626.000000,11384.000000
15858.000000,62240.000000,33543.000000,11316.000000
15779.000000,62170.000000,33445.000000,11264.000000
15689.000000,62098.000000,33333.000000,11211.000000
15591.000000,62019.000000,33212.000000,11152.000000
15493.000000,61936.000000,33086.000000,11089.000000
15404.000000,61859.000000,32968.000000,11020.000000
15323.000000,61792.000000,32863.000000,10938.000000
15248.000000,61730.000000,32767.000000,10838.000000
15182.000000,61669.000000,32677.000000,10736.000000
15122.000000,61605.000000,32590.000000,10642.000000
15065.000000,61544.000000,32510.000000,10546.000000
15011.000000,61487.000000,32438.000000,10454.000000
14963.000000,61437.000000,32373.000000,10386.000000
14923.000000,61395.000000,32311.000000,10343.000000
14883.000000,61358.000000,32247.000000,10311.000000
14844.000000,61323.000000,32180.000000,10282.000000
14805.000000,61283.000000,32111.000000,10257.000000
14768.000000,61247.000000,32052.000000,10228.000000
14730.000000,61219.000000,32002.000000,10178.000000
14687.000000,61192.000000,31952.000000,10100.000000
14639.000000,61165.000000,31901.000000,10005.000000
14587.000000,61136.000000,31844.000000,9911.000000
14524.000000,61100.000000,31775.000000,9816.000000
14448.000000,61052.000000,31696.000000,9723.000000
14367.000000,60995.000000,31614.000000,9642.000000
14292.000000,60940.000000,31534.000000,9573.000000
14227.000000,60885.000000,31458.000000,9511.000000
14172.000000,60834.000000,31391.000000,9456.000000
14130.000000,60789.000000,31339.000000,9410.000000
14102.000000,60757.000000,31298.000000,9375.000000
14084.000000,60737.000000,31268.000000,9351.000000
14076.000000,60726.000000,31256.000000,9335.000000
14077.000000,60725.000000,31260.000000,9321.000000
14083.000000,60733.000000,31271.000000,9300.000000
14090.000000,60743.000000,31280.000000,9281.000000
14099.000000,60750.000000,31292.000000,9277.000000
14112.000000,60758.000000,31311.000000,9285.000000
14126.000000,60767.000000,31328.000000,9302.000000
14145.000000,60776.000000,31344.000000,9327.000000
14170.000000,60792.000000,31371.000000,9365.000000
14206.000000,60822.000000,31414.000000,9413.000000
14253.000000,60863.000000,31464.000000,9461.000000
14304.000000,60907.000000,31512.000000,9497.000000
14357.000000,60952.000000,31562.000000,9525.000000
14413.000000,60997.000000,31614.000000,9545.000000
14464.000000,61038.000000,31662.000000,9558.000000
14499.000000,61074.000000,31704.000000,9578.000000
14520.000000,61108.000000,31743.000000,9613.000000
14530.000000,61136.000000,31774.000000,9658.000000
14533.000000,61156.000000,31793.000000,9701.000000
14533.000000,61164.000000,31804.000000,9736.000000
14534.000000,61160.000000,31809.000000,9771.000000
14538.000000,61152.000000,31811.000000,9807.000000
14543.000000,61143.000000,31805.000000,9833.000000
14547.000000,61133.000000,31794.000000,9838.000000
14551.000000,61121.000000,31783.000000,9826.000000
14551.000000,61110.000000,31775.000000,9807.000000
14547.000000,61097.000000,31764.000000,9778.000000
14533.000000,61081.000000,31743.000000,9729.000000
14510.000000,61061.000000,31715.000000,9667.000000
14480.000000,61041.000000,31682.000000,9612.000000
14445.000000,61019.000000,31639.000000,9566.000000
14406.000000,60993.000000,31589.000000,9525.000000
14370.000000,60966.000000,31538.000000,9490.000000
14338.000000,60939.000000,31482.000000,9457.000000
14306.000000,60908.000000,31420.000000,9422.000000
14269.000000,60873.000000,31354.000000,9385.000000
14227.000000,60836.000000,31289.000000,9340.000000
14182.000000,60796.000000,31222.000000,9282.000000
14132.000000,60746.000000,31147.000000,9212.000000
14078.000000,60691.000000,31069.000000,9138.000000
14023.000000,60634.000000,30988.000000,9073.000000
13971.000000,60577.000000,30901.000000,9015.000000
13917.000000,60517.000000,30805.000000,8947.000000
13862.000000,60460.000000,30714.000000,8869.000000
13812.000000,60413.000000,30637.000000,8798.000000
13761.000000,60373.000000,30563.000000,8728.000000
13703.000000,60331.000000,30485.000000,8640.000000
13638.000000,60285.000000,30406.000000,8541.000000
13567.000000,60234.000000,30328.000000,8456.000000
13495.000000,60180.000000,30247.000000,8391.000000
13420.000000,60123.000000,30162.000000,8336.000000
13344.000000,60062.000000,30076.000000,8279.000000
13270.000000,60001.000000,29992.000000,8219.000000
13200.000000,59944.000000,29904.000000,8155.000000
13135.000000,59891.000000,29819.000000,8084.000000
13079.000000,59843.000000,29745.000000,8017.000000
13029.000000,59803.000000,29677.000000,7953.000000
12979.000000,59765.000000,29607.000000,7880.000000
12920.000000,59720.000000,29530.000000,7793.000000
12857.000000,59668.000000,29452.000000,7697.000000
12791.000000,59613.000000,29375.000000,7604.000000
12724.000000,59556.000000,29293.000000,7522.000000
12658.000000,59500.000000,29209.000000,7454.000000
12600.000000,59446.000000,29132.000000,7399.000000
12550.000000,59397.000000,29060.000000,7349.000000
12504.000000,59354.000000,28991.000000,7297.000000
12465.000000,59317.000000,28929.000000,7235.000000
12436.000000,59288.000000,28877.000000,7162.000000
12408.000000,59261.000000,28831.000000,7089.000000
12373.000000,59231.000000,28782.000000,7024.000000
12333.000000,59195.000000,28732.000000,6967.000000
12291.000000,59159.000000,28688.000000,6922.000000
12249.000000,59126.000000,28640.000000,6885.000000
12204.000000,59090.000000,28584.000000,6854.000000
12158.000000,59057.000000,28526.000000,6830.000000
12119.000000,59029.000000,28474.000000,6807.000000
12090.000000,59005.000000,28424.000000,6775.000000
12065.000000,58983.000000,28376.000000,6734.000000
12043.000000,58962.000000,28334.000000,6688.000000
12024.000000,58944.000000,28303.000000,6646.000000
12009.000000,58930.000000,28275.000000,6605.000000
11990.000000,58913.000000,28245.000000,6553.000000
11962.000000,58889.000000,28212.000000,6486.000000
11931.000000,58862.000000,28177.000000,6420.000000
11902.000000,58835.000000,28138.000000,6368.000000
11870.000000,58807.000000,28096.000000,6331.000000
11839.000000,58780.000000,28060.000000,6305.000000
11817.000000,58759.000000,28030.000000,6292.000000
11801.000000,58742.000000,27995.000000,6286.000000
11786.000000,58726.000000,27959.000000,6276.000000
11772.000000,58709.000000,27927.000000,6253.000000
11762.000000,58694.000000,27898.000000,6218.000000
11754.000000,58683.000000,27870.000000,6182.000000
11737.000000,58669.000000,27834.000000,6139.000000
11709.000000,58645.000000,27795.000000,6090.000000
11674.000000,58621.000000,27757.000000,6056.000000
11636.000000,58599.000000,27715.000000,6031.000000
11594.000000,58571.000000,27669.000000,6005.000000
11553.000000,58538.000000,27625.000000,5978.000000
11521.000000,58514.000000,27587.000000,5954.000000
11493.000000,58495.000000,27549.000000,5939.000000
11466.000000,58474.000000,27506.000000,5923.000000
11439.000000,58450.000000,27462.000000,5904.000000
11412.000000,58426.000000,27418.000000,5882.000000
11383.000000,58403.000000,27372.000000,5843.000000
11353.000000,58380.000000,27324.000000,5782.000000
11322.000000,58358.000000,27280.000000,5712.000000
11291.000000,58335.000000,27239.000000,5650.000000
11256.000000,58309.000000,27194.000000,5599.000000
11216.000000,58282.000000,27144.000000,5557.000000
11174.000000,58254.000000,27095.000000,5523.000000
11132.000000,58221.000000,27044.000000,5492.000000
11086.000000,58179.000000,26984.000000,5462.000000
11038.000000,58131.000000,26918.000000,5424.000000
10994.000000,58082.000000,26851.000000,5380.000000
10955.000000,58037.000000,26783.000000,5338.000000
10917.000000,57994.000000,26712.000000,5290.000000
10877.000000,57956.000000,26642.000000,5219.000000
10836.000000,57920.000000,26576.000000,5128.000000
10792.000000,57883.000000,26510.000000,5030.000000
10738.000000,57841.000000,26442.000000,4930.000000
10677.000000,57792.000000,26373.000000,4825.000000
10614.000000,57742.000000,26307.000000,4726.000000
10553.000000,57694.000000,26241.000000,4648.000000
10491.000000,57649.000000,26170.000000,4590.000000
10433.000000,57609.000000,26100.000000,4549.000000
10388.000000,57577.000000,26044.000000,4529.000000
10360.000000,57559.000000,26006.000000,4521.000000
10358.000000,57561.000000,25993.000000,4514.000000
10397.000000,57594.000000,26028.000000,4529.000000
10486.000000,57671.000000,26127.000000,4587.000000
10627.000000,57796.000000,26294.000000,4698.000000
10824.000000,57969.000000,26538.000000,4882.000000
11085.000000,58193.000000,26871.000000,5152.000000
11412.000000,58470.000000,27289.000000,5517.000000
11790.000000,58790.000000,27770.000000,5960.000000
12197.000000,59134.000000,28286.000000,6446.000000
12614.000000,59484.000000,28816.000000,6953.000000
13034.000000,59833.000000,29349.000000,7462.000000
13448.000000,60173.000000,29870.000000,7955.000000
13841.000000,60496.000000,30362.000000,8407.000000
14206.000000,60797.000000,30825.000000,8808.000000
14542.000000,61076.000000,31259.000000,9174.000000
14846.000000,61328.000000,31658.000000,9518.000000
15112.000000,61549.000000,32015.000000,9831.000000
15345.000000,61742.000000,32336.000000,10112.000000
15547.000000,61909.000000,32620.000000,10367.000000
15714.000000,62046.000000,32856.000000,10602.000000
15855.000000,62158.000000,33053.000000,10823.000000
15980.000000,62257.000000,33220.000000,11036.000000
16083.000000,62339.000000,33359.000000,11223.000000
16160.000000,62400.000000,33471.000000,11371.000000
16215.000000,62441.000000,33553.000000,11482.000000
16254.000000,62466.000000,33608.000000,11560.000000
16278.000000,62472.000000,33643.000000,11603.000000
16287.000000,62462.000000,33659.000000,11610.000000
16281.000000,62439.000000,33653.000000,11593.000000
16256.000000,62406.000000,33630.000000,11559.000000
16215.000000,62362.000000,33591.000000,11513.000000
16154.000000,62305.000000,33528.000000,11461.000000
16081.000000,62237.000000,33439.000000,11413.000000
16007.000000,62169.000000,33340.000000,11366.000000
15935.000000,62103.000000,33238.000000,11306.000000
15860.000000,62034.000000,33130.000000,11224.000000
15786.000000,61962.000000,33023.000000,11124.000000
15709.000000,61891.000000,32919.000000,11018.000000
15626.000000,61819.000000,32813.000000,10906.000000
15533.000000,61740.000000,32699.000000,10786.000000
15437.000000,61656.000000,32581.000000,10675.000000
15343.000000,61574.000000,32468.000000,10594.000000
15254.000000,61499.000000,32366.000000,10531.000000
15173.000000,61431.000000,32268.000000,10477.000000
15101.000000,61370.000000,32172.000000,10432.000000
15042.000000,61319.000000,32086.000000,10381.000000
14995.000000,61277.000000,32012.000000,10317.000000
14949.000000,61238.000000,31944.000000,10243.000000
14899.000000,61200.000000,31880.000000,10163.000000
14844.000000,61162.000000,31819.000000,10073.000000
14785.000000,61119.000000,31759.000000,9970.000000
14718.000000,61067.000000,31694.000000,9865.000000
14648.000000,61011.000000,31626.000000,9773.000000
14581.000000,60957.000000,31556.000000,9692.000000
14513.000000,60898.000000,31474.000000,9607.000000
14440.000000,60832.000000,31379.000000,9505.000000
14369.000000,60764.000000,31282.000000,9398.000000
14306.000000,60703.000000,31195.000000,9307.000000
14249.000000,60649.000000,31112.000000,9233.000000
14197.000000,60604.000000,31039.000000,9169.000000
14152.000000,60572.000000,30985.000000,9116.000000
14114.000000,60550.000000,30945.000000,9068.000000
14083.000000,60534.000000,30913.000000,9027.000000
14060.000000,60526.000000,30888.000000,8995.000000
14049.000000,60525.000000,30873.000000,8971.000000
14052.000000,60527.000000,30865.000000,8962.000000
14060.000000,60533.000000,30859.000000,8968.000000
14072.000000,60544.000000,30862.000000,8984.000000
14095.000000,60566.000000,30880.000000,9012.000000
14128.000000,60597.000000,30911.000000,9051.000000
14169.000000,60632.000000,30951.000000,9094.000000
14215.000000,60671.000000,31002.000000,9136.000000
14263.000000,60711.000000,31061.000000,9168.000000
14306.000000,60748.000000,31119.000000,9191.000000
14340.000000,60780.000000,31176.000000,9223.000000
14372.000000,60808.000000,31235.000000,9272.000000
14407.000000,60835.000000,31289.000000,9330.000000
14449.000000,60862.000000,31334.000000,9386.000000
14495.000000,60888.000000,31377.000000,9447.000000
14544.000000,60917.000000,31429.000000,9512.000000
14600.000000,60953.000000,31490.000000,9572.000000
14651.000000,60993.000000,31544.000000,9614.000000
14684.000000,61019.000000,31582.000000,9629.000000
14699.000000,61027.000000,31603.000000,9627.000000
14700.000000,61023.000000,31615.000000,9629.000000
14693.000000,61014.000000,31619.000000,9637.000000
14681.000000,61004.000000,31610.000000,9642.000000
14666.000000,60989.000000,31594.000000,9635.000000
14650.000000,60975.000000,31572.000000,9621.000000
14633.000000,60963.000000,31544.000000,9607.000000
14612.000000,60948.000000,31510.000000,9586.000000
14591.000000,60934.000000,31480.000000,9559.000000
14573.000000,60922.000000,31452.000000,9524.000000
14547.000000,60907.000000,31414.000000,9472.000000
14510.000000,60885.000000,31365.000000,9404.000000
14471.000000,60858.000000,31316.000000,9335.000000
14433.000000,60829.000000,31263.000000,9272.000000
14388.000000,60793.000000,31198.000000,9211.000000
14336.000000,60744.000000,31123.000000,9150.000000
14283.000000,60688.000000,31043.000000,9093.000000
14232.000000,60633.000000,30958.000000,9039.000000
14176.000000,60580.000000,30868.000000,8980.000000
14116.000000,60526.000000,30775.000000,8912.000000
14063.000000,60475.000000,30688.000000,8842.000000
14016.000000,60431.000000,30611.000000,8773.000000
13966.000000,60392.000000,30537.000000,8699.000000
13911.000000,60349.000000,30464.000000,8617.000000
13855.000000,60300.000000,30391.000000,8529.000000
13798.000000,60249.000000,30312.000000,8441.000000
13729.000000,60192.000000,30222.000000,8350.000000
13651.000000,60125.000000,30127.000000,8255.000000
13572.000000,60056.000000,30033.000000,8174.000000
13496.000000,59987.000000,29937.000000,8114.000000
13422.000000,59919.000000,29841.000000,8059.000000
13359.000000,59858.000000,29755.000000,8004.000000
13306.000000,59807.000000,29682.000000,7944.000000
13260.000000,59767.000000,29614.000000,7879.000000
13217.000000,59732.000000,29544.000000,7811.000000
13169.000000,59695.000000,29471.000000,7734.000000
13111.000000,59652.000000,29399.000000,7653.000000
13047.000000,59605.000000,29327.000000,7573.000000
12974.000000,59557.000000,29247.000000,7498.000000
12896.000000,59508.000000,29169.000000,7426.000000
12819.000000,59456.000000,29091.000000,7364.000000
12747.000000,59405.000000,29009.000000,7312.000000
12685.000000,59358.000000,28929.000000,7266.000000
12637.000000,59316.000000,28861.000000,7224.000000
12600.000000,59283.000000,28803.000000,7184.000000
12567.000000,59251.000000,28747.000000,7139.000000
12534.000000,59216.000000,28690.000000,7085.000000
12509.000000,59182.000000,28642.000000,7030.000000
12486.000000,59152.000000,28602.000000,6984.000000
12454.000000,59118.000000,28559.000000,6938.000000
12404.000000,59075.000000,28500.000000,6881.000000
12343.000000,59025.000000,28431.000000,6821.000000
12285.000000,58977.000000,28366.000000,6774.000000
12236.000000,58939.000000,28304.000000,6736.000000
12195.000000,58906.000000,28247.000000,6694.000000
12161.000000,58875.000000,28200.000000,6651.000000
12135.000000,58850.000000,28160.000000,6609.000000
12114.000000,58833.000000,28123.000000,6566.000000
12096.000000,58822.000000,28089.000000,6520.000000
12075.000000,58809.000000,28056.000000,6473.000000
12049.000000,58793.000000,28017.000000,6419.000000
12020.000000,58771.000000,27974.000000,6357.000000
11986.000000,58742.000000,27929.000000,6301.000000
11948.000000,58710.000000,27884.000000,6262.000000
11908.000000,58678.000000,27838.000000,6236.000000
11867.000000,58647.000000,27793.000000,6219.000000
11830.000000,58617.000000,27753.000000,6204.000000
11798.000000,58593.000000,27719.000000,6183.000000
11769.000000,58575.000000,27687.000000,6151.000000
