660nm,730nm,850nm,940nm
22726.000000,46864.000000,57748.000000,16822.000000
22529.000000,46693.000000,57515.000000,16577.000000
22380.000000,46579.000000,57343.000000,16426.000000
22322.000000,46559.000000,57262.000000,16391.000000
22203.000000,46474.000000,57106.000000,16257.000000
21991.000000,46299.000000,56863.000000,16009.000000
21846.000000,46187.000000,56701.000000,15860.000000
21790.000000,46152.000000,56620.000000,15806.000000
21660.000000,46038.000000,56445.000000,15637.000000
21444.000000,45846.000000,56182.000000,15372.000000
21303.000000,45735.000000,56005.000000,15223.000000
21235.000000,45696.000000,55896.000000,15154.000000
21076.000000,45564.000000,55680.000000,14949.000000
20839.000000,45360.000000,55393.000000,14660.000000
20690.000000,45250.000000,55215.000000,14505.000000
20607.000000,45202.000000,55099.000000,14417.000000
20429.000000,45059.000000,54877.000000,14191.000000
20200.000000,44867.000000,54613.000000,13920.000000
20086.000000,44787.000000,54482.000000,13815.000000
20042.000000,44766.000000,54416.000000,13773.000000
19908.000000,44650.000000,54247.000000,13593.000000
19744.000000,44505.000000,54061.000000,13395.000000
19708.000000,44486.000000,54017.000000,13375.000000
19733.000000,44519.000000,54025.000000,13405.000000
19664.000000,44456.000000,53935.000000,13300.000000
19585.000000,44383.000000,53848.000000,13200.000000
19642.000000,44436.000000,53909.000000,13275.000000
19741.000000,44517.000000,54004.000000,13374.000000
19740.000000,44495.000000,53994.000000,13337.000000
19736.000000,44476.000000,54000.000000,13325.000000
19854.000000,44580.000000,54144.000000,13483.000000
19987.000000,44694.000000,54300.000000,13637.000000
20011.000000,44700.000000,54347.000000,13657.000000
20040.000000,44717.000000,54415.000000,13713.000000
20181.000000,44845.000000,54601.000000,13910.000000
20313.000000,44960.000000,54759.000000,14062.000000
20334.000000,44966.000000,54798.000000,14072.000000
20372.000000,44996.000000,54865.000000,14131.000000
20508.000000,45128.000000,55029.000000,14312.000000
20605.000000,45217.000000,55132.000000,14410.000000
20587.000000,45193.000000,55114.000000,14361.000000
20597.000000,45203.000000,55137.000000,14378.000000
20693.000000,45297.000000,55243.000000,14507.000000
20723.000000,45320.000000,55259.000000,14530.000000
20640.000000,45235.000000,55156.000000,14422.000000
20599.000000,45201.000000,55114.000000,14394.000000
20639.000000,45249.000000,55153.000000,14458.000000
20604.000000,45221.000000,55099.000000,14402.000000
20469.000000,45101.000000,54944.000000,14230.000000
20393.000000,45048.000000,54861.000000,14158.000000
20388.000000,45064.000000,54850.000000,14171.000000
20297.000000,44990.000000,54738.000000,14051.000000
20124.000000,44838.000000,54543.000000,13838.000000
20031.000000,44769.000000,54439.000000,13749.000000
20008.000000,44764.000000,54394.000000,13739.000000
19893.000000,44666.000000,54238.000000,13597.000000
19708.000000,44504.000000,54019.000000,13388.000000
19614.000000,44438.000000,53909.000000,13317.000000
19579.000000,44427.000000,53853.000000,13298.000000
19445.000000,44317.000000,53685.000000,13124.000000
19254.000000,44159.000000,53470.000000,12897.000000
19164.000000,44101.000000,53367.000000,12818.000000
19118.000000,44079.000000,53298.000000,12782.000000
18965.000000,43946.000000,53105.000000,12596.000000
18770.000000,43778.000000,52878.000000,12375.000000
18683.000000,43719.000000,52770.000000,12299.000000
18628.000000,43683.000000,52681.000000,12236.000000
18458.000000,43534.000000,52468.000000,12017.000000
18261.000000,43368.000000,52243.000000,11786.000000
18177.000000,43317.000000,52144.000000,11709.000000
18114.000000,43282.000000,52056.000000,11635.000000
17944.000000,43141.000000,51855.000000,11417.000000
17772.000000,43002.000000,51667.000000,11223.000000
17725.000000,42981.000000,51607.000000,11187.000000
17688.000000,42961.000000,51543.000000,11134.000000
17541.000000,42835.000000,51368.000000,10942.000000
17407.000000,42725.000000,51225.000000,10798.000000
17392.000000,42732.000000,51205.000000,10800.000000
17367.000000,42722.000000,51155.000000,10749.000000
17238.000000,42611.000000,50995.000000,10563.000000
17138.000000,42536.000000,50883.000000,10451.000000
17143.000000,42562.000000,50884.000000,10480.000000
17110.000000,42541.000000,50829.000000,10430.000000
16975.000000,42420.000000,50667.000000,10253.000000
16889.000000,42351.000000,50574.000000,10166.000000
16906.000000,42376.000000,50587.000000,10203.000000
16865.000000,42341.000000,50527.000000,10146.000000
16726.000000,42213.000000,50370.000000,9976.000000
16655.000000,42157.000000,50294.000000,9909.000000
16681.000000,42194.000000,50317.000000,9953.000000
16641.000000,42165.000000,50265.000000,9893.000000
16518.000000,42059.000000,50133.000000,9742.000000
16478.000000,42035.000000,50094.000000,9715.000000
16524.000000,42088.000000,50135.000000,9780.000000
16486.000000,42055.000000,50080.000000,9719.000000
16370.000000,41947.000000,49951.000000,9574.000000
16340.000000,41926.000000,49920.000000,9552.000000
16379.000000,41969.000000,49951.000000,9597.000000
16322.000000,41917.000000,49872.000000,9501.000000
16196.000000,41806.000000,49731.000000,9338.000000
16164.000000,41792.000000,49691.000000,9317.000000
16185.000000,41827.000000,49697.000000,9348.000000
16100.000000,41757.000000,49586.000000,9233.000000
15963.000000,41641.000000,49429.000000,9077.000000
15935.000000,41631.000000,49391.000000,9071.000000
15953.000000,41664.000000,49394.000000,9100.000000
15864.000000,41593.000000,49284.000000,8981.000000
15747.000000,41500.000000,49160.000000,8850.000000
15758.000000,41531.000000,49175.000000,8886.000000
15822.000000,41599.000000,49234.000000,8952.000000
15802.000000,41575.000000,49206.000000,8890.000000
15801.000000,41565.000000,49217.000000,8871.000000
15963.000000,41705.000000,49409.000000,9062.000000
16191.000000,41893.000000,49670.000000,9309.000000
16363.000000,42013.000000,49887.000000,9472.000000
16590.000000,42179.000000,50193.000000,9726.000000
16987.000000,42501.000000,50693.000000,10197.000000
17434.000000,42856.000000,51242.000000,10704.000000
17817.000000,43140.000000,51734.000000,11134.000000
18249.000000,43474.000000,52301.000000,11666.000000
18818.000000,43939.000000,53018.000000,12375.000000
19377.000000,44386.000000,53712.000000,13039.000000
19830.000000,44727.000000,54297.000000,13568.000000
20306.000000,45099.000000,54923.000000,14158.000000
20863.000000,45557.000000,55630.000000,14858.000000
21345.000000,45940.000000,56236.000000,15441.000000
21685.000000,46192.000000,56691.000000,15854.000000
22036.000000,46469.000000,57161.000000,16312.000000
22445.000000,46811.000000,57672.000000,16837.000000
22749.000000,47050.000000,58047.000000,17199.000000
22912.000000,47161.000000,58273.000000,17388.000000
23098.000000,47310.000000,58525.000000,17632.000000
23330.000000,47511.000000,58808.000000,17931.000000
23448.000000,47598.000000,58948.000000,18065.000000
23443.000000,47573.000000,58956.000000,18051.000000
23476.000000,47602.000000,59012.000000,18112.000000
23552.000000,47677.000000,59100.000000,18215.000000
23516.000000,47642.000000,59051.000000,18156.000000
23383.000000,47521.000000,58904.000000,17994.000000
23321.000000,47478.000000,58836.000000,17945.000000
23313.000000,47487.000000,58805.000000,17945.000000
23196.000000,47387.000000,58647.000000,17794.000000
23005.000000,47222.000000,58423.000000,17572.000000
22901.000000,47151.000000,58304.000000,17482.000000
22848.000000,47126.000000,58227.000000,17435.000000
22693.000000,46996.000000,58037.000000,17245.000000
22492.000000,46826.000000,57813.000000,17021.000000
22396.000000,46766.000000,57710.000000,16943.000000
22338.000000,46742.000000,57638.000000,16889.000000
22172.000000,46607.000000,57451.000000,16689.000000
21976.000000,46445.000000,57245.000000,16475.000000
21892.000000,46392.000000,57156.000000,16406.000000
21833.000000,46358.000000,57079.000000,16335.000000
21666.000000,46215.000000,56883.000000,16115.000000
21487.000000,46065.000000,56682.000000,15902.000000
21421.000000,46026.000000,56594.000000,15838.000000
21366.000000,45988.000000,56496.000000,15762.000000
21199.000000,45842.000000,56279.000000,15554.000000
21030.000000,45698.000000,56077.000000,15378.000000
20970.000000,45660.000000,55992.000000,15338.000000
20907.000000,45614.000000,55890.000000,15257.000000
20748.000000,45476.000000,55693.000000,15050.000000
20622.000000,45376.000000,55551.000000,14908.000000
20615.000000,45387.000000,55531.000000,14911.000000
20595.000000,45370.000000,55479.000000,14863.000000
20487.000000,45263.000000,55340.000000,14706.000000
20425.000000,45210.000000,55273.000000,14641.000000
20467.000000,45260.000000,55321.000000,14710.000000
20465.000000,45263.000000,55314.000000,14700.000000
20376.000000,45181.000000,55224.000000,14586.000000
20355.000000,45173.000000,55220.000000,14582.000000
20440.000000,45267.000000,55323.000000,14699.000000
20474.000000,45300.000000,55357.000000,14727.000000
20433.000000,45255.000000,55317.000000,14673.000000
20475.000000,45294.000000,55376.000000,14751.000000
20607.000000,45418.000000,55525.000000,14932.000000
20666.000000,45463.000000,55591.000000,14990.000000
20652.000000,45437.000000,55589.000000,14964.000000
20725.000000,45498.000000,55684.000000,15075.000000
20871.000000,45620.000000,55841.000000,15258.000000
20923.000000,45644.000000,55890.000000,15289.000000
20896.000000,45599.000000,55864.000000,15239.000000
20945.000000,45643.000000,55926.000000,15323.000000
21038.000000,45731.000000,56024.000000,15458.000000
21016.000000,45709.000000,55997.000000,15428.000000
20929.000000,45629.000000,55913.000000,15325.000000
20934.000000,45643.000000,55934.000000,15354.000000
20973.000000,45687.000000,55979.000000,15411.000000
20897.000000,45613.000000,55892.000000,15304.000000
20774.000000,45498.000000,55761.000000,15156.000000
20757.000000,45491.000000,55739.000000,15148.000000
20771.000000,45509.000000,55729.000000,15154.000000
20668.000000,45412.000000,55590.000000,15005.000000
20531.000000,45293.000000,55430.000000,14837.000000
20501.000000,45282.000000,55386.000000,14811.000000
20484.000000,45279.000000,55343.000000,14781.000000
20351.000000,45161.000000,55178.000000,14601.000000
20204.000000,45036.000000,55010.000000,14434.000000
20161.000000,45018.000000,54953.000000,14410.000000
20110.000000,44989.000000,54877.000000,14353.000000
19937.000000,44843.000000,54676.000000,14143.000000
19759.000000,44705.000000,54487.000000,13961.000000
19686.000000,44671.000000,54404.000000,13909.000000
19594.000000,44611.000000,54284.000000,13795.000000
19396.000000,44442.000000,54049.000000,13541.000000
19226.000000,44302.000000,53857.000000,13352.000000
19162.000000,44261.000000,53771.000000,13299.000000
19067.000000,44179.000000,53633.000000,13173.000000
18873.000000,44003.000000,53395.000000,12918.000000
18725.000000,43883.000000,53222.000000,12749.000000
18675.000000,43860.000000,53150.000000,12709.000000
18570.000000,43780.000000,53008.000000,12582.000000
18369.000000,43611.000000,52772.000000,12346.000000
18231.000000,43509.000000,52615.000000,12210.000000
18186.000000,43496.000000,52548.000000,12183.000000
18076.000000,43414.000000,52401.000000,12049.000000
17882.000000,43253.000000,52175.000000,11814.000000
17765.000000,43168.000000,52041.000000,11687.000000
17733.000000,43161.000000,51984.000000,11652.000000
17630.000000,43079.000000,51838.000000,11504.000000
17461.000000,42935.000000,51635.000000,11281.000000
17381.000000,42882.000000,51539.000000,11188.000000
17374.000000,42893.000000,51513.000000,11173.000000
17284.000000,42816.000000,51393.000000,11038.000000
17137.000000,42686.000000,51227.000000,10855.000000
17087.000000,42654.000000,51176.000000,10819.000000
17096.000000,42674.000000,51177.000000,10840.000000
17010.000000,42597.000000,51071.000000,10725.000000
16879.000000,42482.000000,50930.000000,10576.000000
16854.000000,42474.000000,50912.000000,10580.000000
16873.000000,42506.000000,50932.000000,10623.000000
16787.000000,42435.000000,50837.000000,10526.000000
16667.000000,42335.000000,50718.000000,10409.000000
16658.000000,42345.000000,50719.000000,10438.000000
16682.000000,42382.000000,50739.000000,10478.000000
16605.000000,42315.000000,50643.000000,10374.000000
16513.000000,42235.000000,50544.000000,10266.000000
16534.000000,42262.000000,50564.000000,10299.000000
16570.000000,42293.000000,50583.000000,10319.000000
16498.000000,42216.000000,50480.000000,10196.000000
16421.000000,42140.000000,50381.000000,10095.000000
16451.000000,42171.000000,50394.000000,10135.000000
16474.000000,42190.000000,50387.000000,10141.000000
16385.000000,42104.000000,50267.000000,10012.000000
16300.000000,42031.000000,50172.000000,9928.000000
16315.000000,42057.000000,50184.000000,9971.000000
16311.000000,42057.000000,50160.000000,9953.000000
16203.000000,41960.000000,50032.000000,9807.000000
16123.000000,41899.000000,49950.000000,9723.000000
16137.000000,41933.000000,49965.000000,9754.000000
16108.000000,41920.000000,49920.000000,9706.000000
15981.000000,41811.000000,49775.000000,9540.000000
15898.000000,41749.000000,49688.000000,9458.000000
15901.000000,41770.000000,49686.000000,9478.000000
15842.000000,41729.000000,49610.000000,9400.000000
15695.000000,41606.000000,49449.000000,9222.000000
15615.000000,41549.000000,49365.000000,9144.000000
15621.000000,41567.000000,49358.000000,9158.000000
15573.000000,41525.000000,49288.000000,9088.000000
15479.000000,41436.000000,49182.000000,8973.000000
15484.000000,41440.000000,49195.000000,8995.000000
15588.000000,41533.000000,49318.000000,9126.000000
15673.000000,41600.000000,49434.000000,9210.000000
15780.000000,41677.000000,49591.000000,9324.000000
16055.000000,41907.000000,49942.000000,9660.000000
16465.000000,42248.000000,50436.000000,10140.000000
16848.000000,42544.000000,50911.000000,10555.000000
17231.000000,42831.000000,51412.000000,10977.000000
17750.000000,43249.000000,52078.000000,11592.000000
18349.000000,43733.000000,52824.000000,12295.000000
18861.000000,44129.000000,53473.000000,12884.000000
19331.000000,44490.000000,54090.000000,13452.000000
19898.000000,44954.000000,54816.000000,14162.000000
20487.000000,45439.000000,55550.000000,14882.000000
20947.000000,45799.000000,56136.000000,15432.000000
21346.000000,46108.000000,56661.000000,15932.000000
21813.000000,46490.000000,57252.000000,16532.000000
22258.000000,46852.000000,57796.000000,17081.000000
22549.000000,47068.000000,58165.000000,17424.000000
22776.000000,47237.000000,58472.000000,17708.000000
23060.000000,47474.000000,58836.000000,18072.000000
23301.000000,47670.000000,59133.000000,18361.000000
23388.000000,47718.000000,59253.000000,18462.000000
23429.000000,47735.000000,59330.000000,18543.000000
23535.000000,47826.000000,59469.000000,18714.000000
23597.000000,47876.000000,59544.000000,18798.000000
23529.000000,47801.000000,59476.000000,18713.000000
23459.000000,47735.000000,59413.000000,18651.000000
23471.000000,47756.000000,59425.000000,18689.000000
23439.000000,47733.000000,59370.000000,18638.000000
23298.000000,47608.000000,59199.000000,18446.000000
23186.000000,47522.000000,59071.000000,18325.000000
23161.000000,47524.000000,59034.000000,18321.000000
23083.000000,47468.000000,58928.000000,18226.000000
22907.000000,47321.000000,58724.000000,18011.000000
22780.000000,47232.000000,58583.000000,17878.000000
22735.000000,47223.000000,58520.000000,17845.000000
22623.000000,47144.000000,58376.000000,17710.000000
22427.000000,46983.000000,58147.000000,17478.000000
22301.000000,46892.000000,58002.000000,17355.000000
22257.000000,46877.000000,57937.000000,17322.000000
22142.000000,46786.000000,57787.000000,17174.000000
21957.000000,46627.000000,57574.000000,16941.000000
21855.000000,46553.000000,57461.000000,16830.000000
21825.000000,46545.000000,57412.000000,16801.000000
21711.000000,46450.000000,57263.000000,16651.000000
21535.000000,46297.000000,57054.000000,16436.000000
21447.000000,46238.000000,56949.000000,16355.000000
21418.000000,46231.000000,56893.000000,16329.000000
21287.000000,46118.000000,56720.000000,16158.000000
21102.000000,45954.000000,56502.000000,15936.000000
21025.000000,45898.000000,56409.000000,15866.000000
21000.000000,45889.000000,56360.000000,15841.000000
20874.000000,45773.000000,56198.000000,15673.000000
20719.000000,45631.000000,56019.000000,15490.000000
20694.000000,45617.000000,55985.000000,15478.000000
20722.000000,45649.000000,55995.000000,15509.000000
20648.000000,45579.000000,55897.000000,15409.000000
20556.000000,45500.000000,55801.000000,15318.000000
20592.000000,45550.000000,55847.000000,15394.000000
20661.000000,45621.000000,55916.000000,15483.000000
20627.000000,45581.000000,55874.000000,15426.000000
20591.000000,45546.000000,55847.000000,15386.000000
20675.000000,45631.000000,55951.000000,15496.000000
20763.000000,45711.000000,56047.000000,15580.000000
20738.000000,45675.000000,56028.000000,15527.000000
20719.000000,45653.000000,56033.000000,15526.000000
20811.000000,45741.000000,56151.000000,15671.000000
20890.000000,45807.000000,56236.000000,15763.000000
20864.000000,45768.000000,56209.000000,15721.000000
20862.000000,45763.000000,56227.000000,15744.000000
20961.000000,45859.000000,56349.000000,15890.000000
21022.000000,45911.000000,56412.000000,15949.000000
20979.000000,45861.000000,56362.000000,15871.000000
20972.000000,45856.000000,56364.000000,15863.000000
21051.000000,45936.000000,56452.000000,15958.000000
21068.000000,45947.000000,56457.000000,15951.000000
20982.000000,45860.000000,56359.000000,15823.000000
20940.000000,45822.000000,56317.000000,15778.000000
20970.000000,45854.000000,56339.000000,15815.000000
20923.000000,45808.000000,56266.000000,15735.000000
20788.000000,45678.000000,56102.000000,15551.000000
20711.000000,45612.000000,56008.000000,15466.000000
20695.000000,45607.000000,55972.000000,15457.000000
20593.000000,45514.000000,55833.000000,15327.000000
20414.000000,45352.000000,55620.000000,15117.000000
20308.000000,45272.000000,55498.000000,15028.000000
20267.000000,45251.000000,55434.000000,15005.000000
20145.000000,45144.000000,55271.000000,14853.000000
19968.000000,44990.000000,55059.000000,14648.000000
19885.000000,44939.000000,54959.000000,14581.000000
19859.000000,44943.000000,54912.000000,14565.000000
19740.000000,44850.000000,54759.000000,14409.000000
19576.000000,44716.000000,54571.000000,14203.000000
19510.000000,44679.000000,54497.000000,14133.000000
19480.000000,44674.000000,54453.000000,14093.000000
19343.000000,44560.000000,54290.000000,13907.000000
19169.000000,44412.000000,54096.000000,13697.000000
19095.000000,44364.000000,54008.000000,13627.000000
19041.000000,44334.000000,53926.000000,13565.000000
18873.000000,44194.000000,53723.000000,13354.000000
18681.000000,44038.000000,53508.000000,13135.000000
18595.000000,43987.000000,53404.000000,13052.000000
18524.000000,43944.000000,53299.000000,12961.000000
18354.000000,43796.000000,53081.000000,12737.000000
18184.000000,43650.000000,52876.000000,12542.000000
18123.000000,43608.000000,52788.000000,12487.000000
18063.000000,43563.000000,52691.000000,12403.000000
17904.000000,43425.000000,52496.000000,12196.000000
17765.000000,43311.000000,52338.000000,12044.000000
17735.000000,43304.000000,52299.000000,12025.000000
17695.000000,43276.000000,52232.000000,11958.000000
17564.000000,43157.000000,52070.000000,11780.000000
17469.000000,43079.000000,51962.000000,11679.000000
17469.000000,43096.000000,51957.000000,11700.000000
17429.000000,43072.000000,51897.000000,11640.000000
17300.000000,42959.000000,51745.000000,11466.000000
17221.000000,42900.000000,51657.000000,11378.000000
17232.000000,42924.000000,51655.000000,11399.000000
17186.000000,42887.000000,51579.000000,11329.000000
17054.000000,42768.000000,51416.000000,11162.000000
16986.000000,42715.000000,51331.000000,11093.000000
17007.000000,42741.000000,51330.000000,11124.000000
16968.000000,42699.000000,51250.000000,11057.000000
16859.000000,42589.000000,51107.000000,10911.000000
16825.000000,42566.000000,51064.000000,10883.000000
16863.000000,42618.000000,51098.000000,10940.000000
16826.000000,42586.000000,51044.000000,10890.000000
16731.000000,42492.000000,50936.000000,10778.000000
16724.000000,42487.000000,50933.000000,10789.000000
16775.000000,42542.000000,50986.000000,10856.000000
16736.000000,42505.000000,50931.000000,10787.000000
16640.000000,42418.000000,50823.000000,10658.000000
16632.000000,42425.000000,50819.000000,10658.000000
16668.000000,42473.000000,50849.000000,10697.000000
16600.000000,42416.000000,50759.000000,10595.000000
16486.000000,42318.000000,50628.000000,10453.000000
16468.000000,42318.000000,50608.000000,10447.000000
16481.000000,42346.000000,50615.000000,10461.000000
16384.000000,42265.000000,50505.000000,10332.000000
16254.000000,42158.000000,50377.000000,10191.000000
16232.000000,42156.000000,50361.000000,10194.000000
16236.000000,42171.000000,50356.000000,10203.000000
16139.000000,42082.000000,50236.000000,10072.000000
16033.000000,41986.000000,50117.000000,9948.000000
16035.000000,41998.000000,50116.000000,9962.000000
16046.000000,42014.000000,50115.000000,9965.000000
15952.000000,41930.000000,50007.000000,9843.000000
15856.000000,41854.000000,49915.000000,9750.000000
15860.000000,41877.000000,49926.000000,9779.000000
15851.000000,41879.000000,49909.000000,9763.000000
15741.000000,41781.000000,49786.000000,9622.000000
15654.000000,41711.000000,49700.000000,9544.000000
15677.000000,41744.000000,49726.000000,9604.000000
15696.000000,41761.000000,49732.000000,9619.000000
15654.000000,41715.000000,49683.000000,9550.000000
15694.000000,41750.000000,49746.000000,9607.000000
15881.000000,41921.000000,49978.000000,9843.000000
16092.000000,42095.000000,50235.000000,10070.000000
16293.000000,42242.000000,50494.000000,10277.000000
16625.000000,42507.000000,50909.000000,10662.000000
17109.000000,42905.000000,51490.000000,11225.000000
17586.000000,43278.000000,52067.000000,11757.000000
18021.000000,43607.000000,52617.000000,12250.000000
18547.000000,44027.000000,53286.000000,12884.000000
19160.000000,44526.000000,54043.000000,13618.000000
19692.000000,44938.000000,54708.000000,14235.000000
20135.000000,45266.000000,55283.000000,14757.000000
20628.000000,45654.000000,55915.000000,15370.000000
21147.000000,46077.000000,56563.000000,16012.000000
21539.000000,46378.000000,57063.000000,16476.000000
21823.000000,46585.000000,57452.000000,16824.000000
22146.000000,46848.000000,57886.000000,17251.000000
22479.000000,47124.000000,58310.000000,17678.000000
22676.000000,47268.000000,58570.000000,17914.000000
22783.000000,47336.000000,58739.000000,18058.000000
22948.000000,47480.000000,58975.000000,18298.000000
23122.000000,47639.000000,59200.000000,18533.000000
23163.000000,47669.000000,59269.000000,18582.000000
23138.000000,47644.000000,59269.000000,18566.000000
23189.000000,47703.000000,59345.000000,18659.000000
23246.000000,47765.000000,59408.000000,18734.000000
23177.000000,47698.000000,59325.000000,18630.000000
23065.000000,47595.000000,59203.000000,18487.000000
23040.000000,47584.000000,59170.000000,18464.000000
23008.000000,47566.000000,59116.000000,18417.000000
22849.000000,47423.000000,58923.000000,18215.000000
22665.000000,47264.000000,58717.000000,18019.000000
22580.000000,47206.000000,58612.000000,17956.000000
22491.000000,47142.000000,58487.000000,17859.000000
22298.000000,46975.000000,58250.000000,17622.000000
22117.000000,46826.000000,58040.000000,17427.000000
22048.000000,46783.000000,57944.000000,17365.000000
21970.000000,46723.000000,57823.000000,17252.000000
21800.000000,46570.000000,57607.000000,17016.000000
21661.000000,46456.000000,57443.000000,16855.000000
21619.000000,46440.000000,57383.000000,16831.000000
21539.000000,46379.000000,57269.000000,16735.000000
21364.000000,46223.000000,57055.000000,16512.000000
21234.000000,46118.000000,56901.000000,16365.000000
21198.000000,46104.000000,56840.000000,16329.000000
21107.000000,46032.000000,56707.000000,16204.000000
20925.000000,45871.000000,56481.000000,15971.000000
20801.000000,45769.000000,56328.000000,15836.000000
20756.000000,45745.000000,56255.000000,15794.000000
20641.000000,45650.000000,56103.000000,15640.000000
20449.000000,45485.000000,55884.000000,15397.000000
20339.000000,45406.000000,55765.000000,15280.000000
20316.000000,45404.000000,55730.000000,15263.000000
20225.000000,45326.000000,55614.000000,15143.000000
20079.000000,45193.000000,55450.000000,14967.000000
20034.000000,45164.000000,55405.000000,14936.000000
20071.000000,45209.000000,55438.000000,14990.000000
20034.000000,45172.000000,55384.000000,14924.000000
19954.000000,45092.000000,55295.000000,14817.000000
19979.000000,45119.000000,55330.000000,14869.000000
20066.000000,45201.000000,55421.000000,14982.000000
20063.000000,45189.000000,55407.000000,14955.000000
20023.000000,45143.000000,55364.000000,14895.000000
20090.000000,45206.000000,55446.000000,14987.000000
20197.000000,45301.000000,55563.000000,15111.000000
20195.000000,45287.000000,55567.000000,15088.000000
20160.000000,45244.000000,55548.000000,15044.000000
20231.000000,45312.000000,55647.000000,15145.000000
20326.000000,45399.000000,55754.000000,15254.000000
20308.000000,45373.000000,55735.000000,15216.000000
20265.000000,45332.000000,55701.000000,15176.000000
20327.000000,45398.000000,55779.000000,15278.000000
20396.000000,45465.000000,55848.000000,15361.000000
20351.000000,45419.000000,55793.000000,15290.000000
20298.000000,45370.000000,55739.000000,15229.000000
20346.000000,45421.000000,55788.000000,15293.000000
20378.000000,45453.000000,55804.000000,15308.000000
20293.000000,45373.000000,55698.000000,15180.000000
20212.000000,45307.000000,55610.000000,15099.000000
20226.000000,45335.000000,55617.000000,15143.000000
20210.000000,45324.000000,55567.000000,15116.000000
20085.000000,45206.000000,55400.000000,14949.000000
19984.000000,45121.000000,55279.000000,14844.000000
19968.000000,45124.000000,55250.000000,14846.000000
19896.000000,45068.000000,55153.000000,14752.000000
19723.000000,44914.000000,54954.000000,14534.000000
19598.000000,44818.000000,54819.000000,14403.000000
19562.000000,44811.000000,54771.000000,14379.000000
19462.000000,44740.000000,54644.000000,14253.000000
19271.000000,44582.000000,54425.000000,14015.000000
19148.000000,44494.000000,54286.000000,13878.000000
19110.000000,44483.000000,54226.000000,13839.000000
18997.000000,44394.000000,54076.000000,13692.000000
18805.000000,44224.000000,53846.000000,13457.000000
18686.000000,44131.000000,53706.000000,13335.000000
18637.000000,44104.000000,53632.000000,13286.000000
18504.000000,43988.000000,53455.000000,13106.000000
18300.000000,43805.000000,53208.000000,12849.000000
18178.000000,43707.000000,53057.000000,12717.000000
18110.000000,43661.000000,52953.000000,12640.000000
17945.000000,43518.000000,52736.000000,12423.000000
17725.000000,43329.000000,52474.000000,12157.000000
17606.000000,43245.000000,52331.000000,12041.000000
17540.000000,43208.000000,52234.000000,11970.000000
17376.000000,43072.000000,52027.000000,11752.000000
17185.000000,42907.000000,51798.000000,11508.000000
17112.000000,42856.000000,51697.000000,11422.000000
17079.000000,42840.000000,51625.000000,11365.000000
16939.000000,42718.000000,51440.000000,11169.000000
16773.000000,42577.000000,51243.000000,10972.000000
16720.000000,42548.000000,51169.000000,10929.000000
16684.000000,42533.000000,51109.000000,10890.000000
16539.000000,42408.000000,50932.000000,10705.000000
16384.000000,42278.000000,50757.000000,10529.000000
16338.000000,42260.000000,50700.000000,10490.000000
16294.000000,42241.000000,50631.000000,10423.000000
16142.000000,42112.000000,50441.000000,10216.000000
16000.000000,41995.000000,50274.000000,10054.000000
15972.000000,41986.000000,50227.000000,10039.000000
15936.000000,41961.000000,50158.000000,9983.000000
15802.000000,41837.000000,49987.000000,9800.000000
15700.000000,41749.000000,49868.000000,9685.000000
15706.000000,41766.000000,49864.000000,9703.000000
15682.000000,41745.000000,49817.000000,9653.000000
15562.000000,41629.000000,49677.000000,9484.000000
15493.000000,41569.000000,49605.000000,9408.000000
15525.000000,41606.000000,49636.000000,9461.000000
15503.000000,41586.000000,49601.000000,9427.000000
15386.000000,41475.000000,49471.000000,9280.000000
15329.000000,41430.000000,49413.000000,9229.000000
15362.000000,41473.000000,49440.000000,9281.000000
15330.000000,41448.000000,49383.000000,9226.000000
15210.000000,41342.000000,49240.000000,9071.000000
15159.000000,41310.000000,49181.000000,9028.000000
15183.000000,41350.000000,49195.000000,9074.000000
15124.000000,41307.000000,49114.000000,8999.000000
14990.000000,41195.000000,48963.000000,8840.000000
14944.000000,41171.000000,48913.000000,8802.000000
14971.000000,41210.000000,48931.000000,8838.000000
14909.000000,41154.000000,48854.000000,8746.000000
14786.000000,41042.000000,48725.000000,8599.000000
14762.000000,41029.000000,48707.000000,8596.000000
14798.000000,41072.000000,48738.000000,8646.000000
14734.000000,41014.000000,48652.000000,8550.000000
14618.000000,40908.000000,48520.000000,8403.000000
14601.000000,40902.000000,48497.000000,8397.000000
14621.000000,40929.000000,48504.000000,8425.000000
14528.000000,40843.000000,48388.000000,8302.000000
14401.000000,40724.000000,48240.000000,8152.000000
14387.000000,40713.000000,48209.000000,8146.000000
14399.000000,40727.000000,48194.000000,8150.000000
14294.000000,40634.000000,48057.000000,8004.000000
14166.000000,40526.000000,47907.000000,7858.000000
14151.000000,40527.000000,47875.000000,7864.000000
14149.000000,40535.000000,47842.000000,7859.000000
14032.000000,40433.000000,47692.000000,7706.000000
13910.000000,40332.000000,47552.000000,7571.000000
13902.000000,40338.000000,47534.000000,7580.000000
13894.000000,40339.000000,47506.000000,7555.000000
13778.000000,40236.000000,47368.000000,7387.000000
13663.000000,40141.000000,47246.000000,7253.000000
13635.000000,40132.000000,47215.000000,7233.000000
13587.000000,40101.000000,47152.000000,7165.000000
13463.000000,40000.000000,47022.000000,7012.000000
13402.000000,39963.000000,46974.000000,6964.000000
13470.000000,40039.000000,47058.000000,7067.000000
13551.000000,40108.000000,47146.000000,7152.000000
13613.000000,40149.000000,47231.000000,7207.000000
13808.000000,40311.000000,47481.000000,7439.000000
14179.000000,40622.000000,47922.000000,7870.000000
14564.000000,40922.000000,48381.000000,8285.000000
14918.000000,41182.000000,48831.000000,8663.000000
15389.000000,41550.000000,49425.000000,9209.000000
15985.000000,42027.000000,50151.000000,9911.000000
16529.000000,42443.000000,50819.000000,10536.000000
16999.000000,42787.000000,51419.000000,11080.000000
17543.000000,43210.000000,52106.000000,11743.000000
18144.000000,43695.000000,52844.000000,12471.000000
18631.000000,44072.000000,53449.000000,13042.000000
19008.000000,44353.000000,53942.000000,13494.000000
19430.000000,44694.000000,54487.000000,14027.000000
19869.000000,45057.000000,55035.000000,14569.000000
20165.000000,45283.000000,55414.000000,14913.000000
20353.000000,45415.000000,55680.000000,15142.000000
20587.000000,45613.000000,55998.000000,15460.000000
20824.000000,45821.000000,56301.000000,15768.000000
20917.000000,45885.000000,56431.000000,15872.000000
20928.000000,45874.000000,56477.000000,15893.000000
21010.000000,45945.000000,56597.000000,16022.000000
21096.000000,46025.000000,56703.000000,16139.000000
21041.000000,45971.000000,56646.000000,16070.000000
20929.000000,45871.000000,56533.000000,15957.000000
20909.000000,45871.000000,56516.000000,15972.000000
20901.000000,45877.000000,56488.000000,15973.000000
20769.000000,45758.000000,56317.000000,15809.000000
20610.000000,45618.000000,56127.000000,15634.000000
20551.000000,45581.000000,56048.000000,15590.000000
20489.000000,45538.000000,55951.000000,15511.000000
20309.000000,45377.000000,55721.000000,15277.000000
20124.000000,45220.000000,55495.000000,15058.000000
20043.000000,45169.000000,55376.000000,14965.000000
19948.000000,45099.000000,55226.000000,14822.000000
19740.000000,44920.000000,54964.000000,14546.000000
19550.000000,44769.000000,54745.000000,14328.000000
19466.000000,44722.000000,54636.000000,14246.000000
19357.000000,44639.000000,54482.000000,14102.000000
19152.000000,44458.000000,54227.000000,13840.000000
18991.000000,44328.000000,54037.000000,13665.000000
18929.000000,44299.000000,53956.000000,13616.000000
18821.000000,44217.000000,53811.000000,13483.000000
18622.000000,44042.000000,53567.000000,13235.000000
18486.000000,43931.000000,53397.000000,13081.000000
18445.000000,43910.000000,53320.000000,13032.000000
18337.000000,43821.000000,53166.000000,12878.000000
18146.000000,43653.000000,52934.000000,12630.000000
18035.000000,43569.000000,52799.000000,12500.000000
18015.000000,43571.000000,52754.000000,12465.000000
17923.000000,43498.000000,52622.000000,12317.000000
17762.000000,43358.000000,52424.000000,12100.000000
17691.000000,43314.000000,52337.000000,12029.000000
17700.000000,43343.000000,52329.000000,12052.000000
17632.000000,43286.000000,52233.000000,11959.000000
17512.000000,43177.000000,52099.000000,11823.000000
17501.000000,43175.000000,52097.000000,11846.000000
17563.000000,43239.000000,52164.000000,11947.000000
17543.000000,43216.000000,52134.000000,11923.000000
17491.000000,43161.000000,52081.000000,11867.000000
17557.000000,43224.000000,52168.000000,11972.000000
17677.000000,43337.000000,52309.000000,12130.000000
17695.000000,43348.000000,52338.000000,12147.000000
17682.000000,43330.000000,52342.000000,12139.000000
17783.000000,43421.000000,52468.000000,12277.000000
17913.000000,43533.000000,52611.000000,12421.000000
17922.000000,43525.000000,52624.000000,12399.000000
17897.000000,43492.000000,52615.000000,12362.000000
17977.000000,43564.000000,52716.000000,12473.000000
18061.000000,43638.000000,52807.000000,12571.000000
18021.000000,43588.000000,52761.000000,12509.000000
17963.000000,43527.000000,52703.000000,12451.000000
18012.000000,43576.000000,52755.000000,12528.000000
18052.000000,43615.000000,52782.000000,12561.000000
17969.000000,43536.000000,52679.000000,12436.000000
17894.000000,43468.000000,52595.000000,12352.000000
17931.000000,43510.000000,52627.000000,12413.000000
17945.000000,43520.000000,52616.000000,12407.000000
17836.000000,43414.000000,52476.000000,12244.000000
17745.000000,43338.000000,52373.000000,12143.000000
17753.000000,43364.000000,52370.000000,12173.000000
17707.000000,43330.000000,52291.000000,12108.000000
17541.000000,43179.000000,52084.000000,11899.000000
17416.000000,43078.000000,51938.000000,11774.000000
17383.000000,43074.000000,51892.000000,11765.000000
17279.000000,43000.000000,51760.000000,11643.000000
17069.000000,42827.000000,51519.000000,11391.000000
16925.000000,42723.000000,51357.000000,11242.000000
16877.000000,42704.000000,51284.000000,11199.000000
16753.000000,42603.000000,51113.000000,11032.000000
16535.000000,42414.000000,50852.000000,10763.000000
16398.000000,42309.000000,50690.000000,10623.000000
16346.000000,42282.000000,50611.000000,10576.000000
16208.000000,42164.000000,50425.000000,10392.000000
15997.000000,41973.000000,50164.000000,10122.000000
15882.000000,41882.000000,50014.000000,9990.000000
15839.000000,41859.000000,49934.000000,9931.000000
15694.000000,41735.000000,49742.000000,9730.000000
15480.000000,41548.000000,49494.000000,9468.000000
15367.000000,41463.000000,49366.000000,9357.000000
15308.000000,41429.000000,49286.000000,9297.000000
15141.000000,41286.000000,49082.000000,9080.000000
14927.000000,41102.000000,48834.000000,8819.000000
14830.000000,41037.000000,48711.000000,8716.000000
14779.000000,41012.000000,48623.000000,8648.000000
14616.000000,40875.000000,48420.000000,8431.000000
14424.000000,40716.000000,48204.000000,8201.000000
14357.000000,40682.000000,48122.000000,8136.000000
14328.000000,40678.000000,48065.000000,8091.000000
14190.000000,40567.000000,47895.000000,7908.000000
14045.000000,40448.000000,47730.000000,7743.000000
14028.000000,40450.000000,47700.000000,7743.000000
14025.000000,40459.000000,47670.000000,7735.000000
13905.000000,40352.000000,47522.000000,7585.000000
13788.000000,40250.000000,47391.000000,7468.000000
13790.000000,40262.000000,47383.000000,7494.000000
13787.000000,40264.000000,47353.000000,7471.000000
13670.000000,40159.000000,47208.000000,7304.000000
13573.000000,40076.000000,47097.000000,7193.000000
13586.000000,40099.000000,47097.000000,7216.000000
13568.000000,40085.000000,47046.000000,7167.000000
13440.000000,39969.000000,46886.000000,6989.000000
13352.000000,39903.000000,46789.000000,6899.000000
13369.000000,39943.000000,46801.000000,6941.000000
13339.000000,39932.000000,46753.000000,6899.000000
13216.000000,39828.000000,46611.000000,6741.000000
13162.000000,39792.000000,46553.000000,6687.000000
13214.000000,39850.000000,46598.000000,6751.000000
13202.000000,39838.000000,46565.000000,6709.000000
13096.000000,39735.000000,46441.000000,6562.000000
13064.000000,39705.000000,46401.000000,6526.000000
13116.000000,39755.000000,46441.000000,6586.000000
13082.000000,39721.000000,46382.000000,6523.000000
12958.000000,39604.000000,46237.000000,6359.000000
12899.000000,39555.000000,46169.000000,6297.000000
12893.000000,39557.000000,46151.000000,6294.000000
12798.000000,39474.000000,46032.000000,6176.000000
12644.000000,39338.000000,45858.000000,6008.000000
12577.000000,39287.000000,45778.000000,5962.000000
12566.000000,39291.000000,45745.000000,5964.000000
12478.000000,39220.000000,45628.000000,5853.000000
12362.000000,39123.000000,45498.000000,5722.000000
12353.000000,39133.000000,45494.000000,5737.000000
12403.000000,39194.000000,45551.000000,5806.000000
12392.000000,39186.000000,45548.000000,5779.000000
12395.000000,39186.000000,45573.000000,5773.000000
12547.000000,39319.000000,45756.000000,5947.000000
12778.000000,39512.000000,46018.000000,6191.000000
12964.000000,39648.000000,46247.000000,6378.000000
13184.000000,39811.000000,46545.000000,6634.000000
13554.000000,40111.000000,47018.000000,7077.000000
13981.000000,40451.000000,47551.000000,7561.000000
14350.000000,40723.000000,48027.000000,7964.000000
14741.000000,41015.000000,48545.000000,8418.000000
15245.000000,41414.000000,49182.000000,9013.000000
15748.000000,41806.000000,49808.000000,9593.000000
16149.000000,42097.000000,50327.000000,10061.000000
16540.000000,42391.000000,50846.000000,10554.000000
16993.000000,42758.000000,51421.000000,11126.000000
17382.000000,43068.000000,51908.000000,11590.000000
17632.000000,43250.000000,52241.000000,11892.000000
17886.000000,43450.000000,52584.000000,12235.000000
18220.000000,43733.000000,53002.000000,12677.000000
18488.000000,43946.000000,53322.000000,12998.000000
18618.000000,44030.000000,53489.000000,13145.000000
18760.000000,44138.000000,53673.000000,13334.000000
18964.000000,44316.000000,53910.000000,13598.000000
19069.000000,44398.000000,54022.000000,13716.000000
19037.000000,44359.000000,53990.000000,13675.000000
19037.000000,44364.000000,53999.000000,13697.000000
19102.000000,44434.000000,54065.000000,13791.000000
19068.000000,44404.000000,54008.000000,13741.000000
18921.000000,44272.000000,53834.000000,13563.000000
18835.000000,44209.000000,53734.000000,13483.000000
18820.000000,44217.000000,53698.000000,13485.000000
18710.000000,44129.000000,53549.000000,13346.000000
18512.000000,43962.000000,53315.000000,13107.000000
18395.000000,43885.000000,53179.000000,12992.000000
18338.000000,43866.000000,53096.000000,12942.000000
18173.000000,43737.000000,52886.000000,12740.000000
17935.000000,43540.000000,52608.000000,12464.000000
17796.000000,43439.000000,52442.000000,12328.000000
17712.000000,43382.000000,52320.000000,12236.000000
17521.000000,43212.000000,52067.000000,11982.000000
17276.000000,42996.000000,51765.000000,11688.000000
17140.000000,42889.000000,51584.000000,11558.000000
17041.000000,42821.000000,51436.000000,11462.000000
16821.000000,42640.000000,51158.000000,11204.000000
16564.000000,42434.000000,50857.000000,10919.000000
16433.000000,42349.000000,50693.000000,10784.000000
16338.000000,42290.000000,50555.000000,10659.000000
16134.000000,42119.000000,50298.000000,10383.000000
15923.000000,41942.000000,50046.000000,10119.000000
15847.000000,41888.000000,49937.000000,10033.000000
15800.000000,41853.000000,49846.000000,9957.000000
15652.000000,41722.000000,49654.000000,9747.000000
15500.000000,41596.000000,49480.000000,9561.000000
15450.000000,41568.000000,49418.000000,9511.000000
15402.000000,41531.000000,49348.000000,9437.000000
15275.000000,41412.000000,49201.000000,9262.000000
15182.000000,41332.000000,49108.000000,9166.000000
15199.000000,41359.000000,49130.000000,9214.000000
15209.000000,41372.000000,49135.000000,9220.000000
15150.000000,41312.000000,49077.000000,9134.000000
15144.000000,41305.000000,49094.000000,9139.000000
15246.000000,41397.000000,49219.000000,9271.000000
15322.000000,41456.000000,49304.000000,9346.000000
15332.000000,41447.000000,49326.000000,9340.000000
15408.000000,41504.000000,49429.000000,9437.000000
15574.000000,41641.000000,49619.000000,9642.000000
15683.000000,41720.000000,49738.000000,9756.000000
15713.000000,41725.000000,49781.000000,9778.000000
15802.000000,41793.000000,49894.000000,9894.000000
15953.000000,41922.000000,50067.000000,10079.000000
16022.000000,41970.000000,50147.000000,10144.000000
16012.000000,41946.000000,50147.000000,10121.000000
16065.000000,41987.000000,50214.000000,10193.000000
16163.000000,42073.000000,50317.000000,10313.000000
16166.000000,42067.000000,50309.000000,10294.000000
16097.000000,41999.000000,50234.000000,10199.000000
16097.000000,42003.000000,50235.000000,10209.000000
16135.000000,42040.000000,50262.000000,10247.000000
16071.000000,41976.000000,50171.000000,10143.000000
15946.000000,41861.000000,50026.000000,9992.000000
15899.000000,41830.000000,49970.000000,9961.000000
15880.000000,41827.000000,49935.000000,9955.000000
15761.000000,41725.000000,49789.000000,9812.000000
15609.000000,41593.000000,49614.000000,9642.000000
15555.000000,41558.000000,49539.000000,9599.000000
15525.000000,41545.000000,49476.000000,9563.000000
15389.000000,41434.000000,49307.000000,9389.000000
15228.000000,41305.000000,49126.000000,9207.000000
15162.000000,41268.000000,49045.000000,9150.000000
15101.000000,41234.000000,48962.000000,9083.000000
14940.000000,41102.000000,48769.000000,8887.000000
14770.000000,40964.000000,48571.000000,8701.000000
14694.000000,40917.000000,48466.000000,8630.000000
14615.000000,40863.000000,48344.000000,8528.000000
14438.000000,40715.000000,48123.000000,8304.000000
14270.000000,40582.000000,47929.000000,8116.000000
14198.000000,40541.000000,47837.000000,8043.000000
14114.000000,40481.000000,47723.000000,7925.000000
13942.000000,40333.000000,47520.000000,7703.000000
13796.000000,40213.000000,47354.000000,7546.000000
13742.000000,40175.000000,47275.000000,7500.000000
13658.000000,40101.000000,47148.000000,7389.000000
13494.000000,39951.000000,46937.000000,7179.000000
13379.000000,39856.000000,46788.000000,7049.000000
13351.000000,39845.000000,46726.000000,7018.000000
13271.000000,39784.000000,46606.000000,6902.000000
13108.000000,39649.000000,46410.000000,6692.000000
13001.000000,39571.000000,46282.000000,6566.000000
12971.000000,39565.000000,46224.000000,6522.000000
12879.000000,39493.000000,46090.000000,6387.000000
12717.000000,39352.000000,45888.000000,6180.000000
12623.000000,39278.000000,45767.000000,6078.000000
12597.000000,39268.000000,45712.000000,6050.000000
12500.000000,39189.000000,45584.000000,5923.000000
12345.000000,39058.000000,45410.000000,5742.000000
12275.000000,39010.000000,45329.000000,5679.000000
12270.000000,39019.000000,45303.000000,5678.000000
12193.000000,38951.000000,45194.000000,5571.000000
12072.000000,38842.000000,45052.000000,5426.000000
12041.000000,38823.000000,45011.000000,5408.000000
12056.000000,38849.000000,45011.000000,5433.000000
11985.000000,38791.000000,44917.000000,5338.000000
11880.000000,38701.000000,44797.000000,5218.000000
11864.000000,38700.000000,44779.000000,5225.000000
11879.000000,38725.000000,44782.000000,5251.000000
11795.000000,38655.000000,44678.000000,5150.000000
11681.000000,38559.000000,44550.000000,5030.000000
11661.000000,38554.000000,44522.000000,5028.000000
11661.000000,38564.000000,44504.000000,5025.000000
11567.000000,38480.000000,44386.000000,4895.000000
11461.000000,38390.000000,44269.000000,4770.000000
11455.000000,38397.000000,44258.000000,4774.000000
11464.000000,38415.000000,44256.000000,4779.000000
11398.000000,38359.000000,44182.000000,4693.000000
11365.000000,38337.000000,44161.000000,4666.000000
11470.000000,38440.000000,44292.000000,4802.000000
11624.000000,38574.000000,44471.000000,4956.000000
11752.000000,38669.000000,44632.000000,5058.000000
11963.000000,38833.000000,44904.000000,5278.000000
12331.000000,39132.000000,45349.000000,5691.000000
12734.000000,39447.000000,45836.000000,6129.000000
13098.000000,39714.000000,46308.000000,6532.000000
13534.000000,40046.000000,46887.000000,7057.000000
14084.000000,40479.000000,47592.000000,7727.000000
14611.000000,40882.000000,48262.000000,8345.000000
15059.000000,41209.000000,48848.000000,8864.000000
15542.000000,41577.000000,49473.000000,9448.000000
16080.000000,42002.000000,50143.000000,10097.000000
16528.000000,42345.000000,50707.000000,10625.000000
16862.000000,42587.000000,51150.000000,11025.000000
17215.000000,42862.000000,51614.000000,11467.000000
17600.000000,43173.000000,52093.000000,11940.000000
17879.000000,43384.000000,52438.000000,12272.000000
18049.000000,43498.000000,52667.000000,12487.000000
18247.000000,43652.000000,52928.000000,12758.000000
18465.000000,43832.000000,53196.000000,13047.000000
18570.000000,43907.000000,53329.000000,13183.000000
18583.000000,43906.000000,53368.000000,13220.000000
18643.000000,43965.000000,53457.000000,13329.000000
18729.000000,44050.000000,53554.000000,13448.000000
18710.000000,44034.000000,53525.000000,13415.000000
18623.000000,43961.000000,53429.000000,13309.000000
18598.000000,43957.000000,53400.000000,13299.000000
18590.000000,43969.000000,53376.000000,13295.000000
18474.000000,43872.000000,53222.000000,13137.000000
18311.000000,43732.000000,53018.000000,12930.000000
18227.000000,43670.000000,52898.000000,12830.000000
18153.000000,43617.000000,52780.000000,12733.000000
17972.000000,43457.000000,52549.000000,12503.000000
17761.000000,43273.000000,52300.000000,12262.000000
17643.000000,43183.000000,52149.000000,12148.000000
17544.000000,43107.000000,52007.000000,12033.000000
17357.000000,42944.000000,51771.000000,11798.000000
17167.000000,42787.000000,51545.000000,11582.000000
17076.000000,42730.000000,51425.000000,11492.000000
16988.000000,42672.000000,51292.000000,11379.000000
16805.000000,42518.000000,51053.000000,11146.000000
16631.000000,42376.000000,50834.000000,10948.000000
16553.000000,42327.000000,50716.000000,10868.000000
16458.000000,42254.000000,50568.000000,10734.000000
16264.000000,42087.000000,50321.000000,10479.000000
16088.000000,41950.000000,50111.000000,10278.000000
16002.000000,41903.000000,49997.000000,10185.000000
15888.000000,41821.000000,49838.000000,10026.000000
15694.000000,41662.000000,49599.000000,9765.000000
15554.000000,41558.000000,49430.000000,9598.000000
15513.000000,41543.000000,49365.000000,9559.000000
15434.000000,41481.000000,49257.000000,9453.000000
15286.000000,41348.000000,49083.000000,9265.000000
15210.000000,41287.000000,48993.000000,9183.000000
15227.000000,41312.000000,48998.000000,9207.000000
15195.000000,41285.000000,48949.000000,9157.000000
15104.000000,41199.000000,48851.000000,9044.000000
15096.000000,41195.000000,48852.000000,9053.000000
15171.000000,41266.000000,48938.000000,9160.000000
15191.000000,41274.000000,48961.000000,9178.000000
15164.000000,41233.000000,48943.000000,9136.000000
15225.000000,41281.000000,49024.000000,9211.000000
15353.000000,41391.000000,49163.000000,9358.000000
15409.000000,41428.000000,49220.000000,9400.000000
15419.000000,41425.000000,49240.000000,9402.000000
15520.000000,41510.000000,49361.000000,9534.000000
15667.000000,41635.000000,49525.000000,9709.000000
15720.000000,41667.000000,49589.000000,9753.000000
15722.000000,41655.000000,49615.000000,9756.000000
15807.000000,41728.000000,49732.000000,9878.000000
15914.000000,41822.000000,49861.000000,10012.000000
15913.000000,41811.000000,49871.000000,9996.000000
15873.000000,41766.000000,49841.000000,9947.000000
15923.000000,41809.000000,49895.000000,10015.000000
15984.000000,41859.000000,49939.000000,10075.000000
15931.000000,41802.000000,49859.000000,9987.000000
15846.000000,41730.000000,49759.000000,9891.000000
15849.000000,41747.000000,49750.000000,9911.000000
15849.000000,41757.000000,49727.000000,9904.000000
15743.000000,41664.000000,49596.000000,9759.000000
15629.000000,41566.000000,49469.000000,9626.000000
15603.000000,41552.000000,49431.000000,9606.000000
15563.000000,41523.000000,49364.000000,9548.000000
15424.000000,41398.000000,49193.000000,9370.000000
15292.000000,41287.000000,49041.000000,9235.000000
15246.000000,41261.000000,48972.000000,9214.000000
15172.000000,41202.000000,48859.000000,9126.000000
15004.000000,41056.000000,48653.000000,8915.000000
14866.000000,40946.000000,48487.000000,8758.000000
14808.000000,40916.000000,48403.000000,8697.000000
14704.000000,40839.000000,48260.000000,8557.000000
14515.000000,40678.000000,48032.000000,8317.000000
14373.000000,40566.000000,47864.000000,8159.000000
14311.000000,40534.000000,47778.000000,8095.000000
14194.000000,40445.000000,47627.000000,7948.000000
14002.000000,40283.000000,47403.000000,7720.000000
13875.000000,40184.000000,47251.000000,7589.000000
13825.000000,40154.000000,47168.000000,7538.000000
13710.000000,40053.000000,47006.000000,7382.000000
13526.000000,39889.000000,46779.000000,7151.000000
13413.000000,39798.000000,46636.000000,7021.000000
13366.000000,39769.000000,46553.000000,6956.000000
13241.000000,39667.000000,46381.000000,6785.000000
13054.000000,39513.000000,46160.000000,6563.000000
12952.000000,39441.000000,46034.000000,6461.000000
12913.000000,39421.000000,45962.000000,6415.000000
12797.000000,39320.000000,45801.000000,6253.000000
12636.000000,39180.000000,45605.000000,6054.000000
12563.000000,39130.000000,45511.000000,5985.000000
12533.000000,39115.000000,45454.000000,5951.000000
12410.000000,39011.000000,45303.000000,5789.000000
12249.000000,38880.000000,45132.000000,5601.000000
12182.000000,38846.000000,45068.000000,5547.000000
12149.000000,38837.000000,45028.000000,5517.000000
12027.000000,38736.000000,44888.000000,5368.000000
11892.000000,38618.000000,44735.000000,5217.000000
11864.000000,38597.000000,44681.000000,5196.000000
11855.000000,38588.000000,44635.000000,5173.000000
11744.000000,38488.000000,44492.000000,5017.000000
11626.000000,38387.000000,44353.000000,4867.000000
11610.000000,38381.000000,44316.000000,4848.000000
11593.000000,38372.000000,44271.000000,4813.000000
11477.000000,38270.000000,44126.000000,4661.000000
11367.000000,38179.000000,44001.000000,4549.000000
11356.000000,38183.000000,43976.000000,4566.000000
11337.000000,38176.000000,43931.000000,4544.000000
11231.000000,38089.000000,43804.000000,4412.000000
11154.000000,38032.000000,43722.000000,4337.000000
11174.000000,38061.000000,43738.000000,4378.000000
11169.000000,38058.000000,43712.000000,4358.000000
11079.000000,37977.000000,43602.000000,4234.000000
11027.000000,37940.000000,43548.000000,4187.000000
11062.000000,37983.000000,43580.000000,4245.000000
11056.000000,37981.000000,43560.000000,4229.000000
10984.000000,37914.000000,43479.000000,4131.000000
10993.000000,37924.000000,43494.000000,4146.000000
11118.000000,38035.000000,43629.000000,4288.000000
11235.000000,38125.000000,43756.000000,4391.000000
11339.000000,38198.000000,43895.000000,4478.000000
11574.000000,38387.000000,44195.000000,4737.000000
11946.000000,38688.000000,44647.000000,5152.000000
12315.000000,38972.000000,45107.000000,5554.000000
12686.000000,39247.000000,45591.000000,5971.000000
13183.000000,39633.000000,46225.000000,6563.000000
13772.000000,40095.000000,46958.000000,7260.000000
14301.000000,40492.000000,47632.000000,7871.000000
14778.000000,40843.000000,48266.000000,8440.000000
15321.000000,41267.000000,48976.000000,9118.000000
15885.000000,41714.000000,49695.000000,9813.000000
16337.000000,42054.000000,50283.000000,10354.000000
16717.000000,42332.000000,50795.000000,10818.000000
17147.000000,42670.000000,51355.000000,11357.000000
17570.000000,43006.000000,51884.000000,11869.000000
17855.000000,43215.000000,52251.000000,12204.000000
18070.000000,43364.000000,52541.000000,12474.000000
18340.000000,43572.000000,52884.000000,12823.000000
18594.000000,43766.000000,53189.000000,13133.000000
18715.000000,43835.000000,53339.000000,13271.000000
18782.000000,43866.000000,53435.000000,13366.000000
18907.000000,43966.000000,53589.000000,13544.000000
19004.000000,44046.000000,53698.000000,13667.000000
18972.000000,44008.000000,53664.000000,13623.000000
18908.000000,43949.000000,53601.000000,13562.000000
18911.000000,43961.000000,53603.000000,13588.000000
18885.000000,43947.000000,53558.000000,13555.000000
18747.000000,43829.000000,53391.000000,13381.000000
18604.000000,43715.000000,53234.000000,13230.000000
18535.000000,43679.000000,53155.000000,13177.000000
18435.000000,43610.000000,53028.000000,13057.000000
18246.000000,43450.000000,52804.000000,12819.000000
18087.000000,43323.000000,52618.000000,12642.000000
18012.000000,43281.000000,52515.000000,12570.000000
17901.000000,43199.000000,52355.000000,12426.000000
17711.000000,43037.000000,52112.000000,12186.000000
17571.000000,42924.000000,51931.000000,12024.000000
17509.000000,42887.000000,51829.000000,11949.000000
17397.000000,42796.000000,51659.000000,11785.000000
17210.000000,42633.000000,51412.000000,11538.000000
17082.000000,42526.000000,51235.000000,11378.000000
17024.000000,42483.000000,51125.000000,11293.000000
16899.000000,42373.000000,50939.000000,11110.000000
16703.000000,42196.000000,50686.000000,10852.000000
16567.000000,42085.000000,50512.000000,10691.000000
16485.000000,42028.000000,50395.000000,10594.000000
16329.000000,41898.000000,50193.000000,10394.000000
16120.000000,41718.000000,49940.000000,10145.000000
15995.000000,41625.000000,49786.000000,10022.000000
15932.000000,41588.000000,49689.000000,9963.000000
15801.000000,41479.000000,49515.000000,9801.000000
15637.000000,41336.000000,49320.000000,9612.000000
15572.000000,41289.000000,49242.000000,9559.000000
15566.000000,41294.000000,49222.000000,9559.000000
15489.000000,41226.000000,49130.000000,9460.000000
15394.000000,41142.000000,49032.000000,9350.000000
15404.000000,41159.000000,49052.000000,9374.000000
15456.000000,41209.000000,49107.000000,9430.000000
15429.000000,41175.000000,49073.000000,9381.000000
15389.000000,41132.000000,49036.000000,9335.000000
15449.000000,41189.000000,49105.000000,9419.000000
15534.000000,41264.000000,49188.000000,9515.000000
15534.000000,41255.000000,49182.000000,9506.000000
15532.000000,41247.000000,49185.000000,9513.000000
15630.000000,41333.000000,49295.000000,9643.000000
15734.000000,41418.000000,49405.000000,9756.000000
15747.000000,41413.000000,49425.000000,9752.000000
15764.000000,41421.000000,49464.000000,9771.000000
15870.000000,41518.000000,49591.000000,9893.000000
15958.000000,41593.000000,49686.000000,9970.000000
15948.000000,41572.000000,49681.000000,9935.000000
15949.000000,41566.000000,49701.000000,9947.000000
16032.000000,41636.000000,49796.000000,10058.000000
16079.000000,41665.000000,49832.000000,10099.000000
16030.000000,41603.000000,49765.000000,10027.000000
16004.000000,41575.000000,49737.000000,10010.000000
16047.000000,41616.000000,49776.000000,10073.000000
16033.000000,41599.000000,49736.000000,10038.000000
15929.000000,41496.000000,49599.000000,9890.000000
15866.000000,41442.000000,49516.000000,9814.000000
15871.000000,41456.000000,49503.000000,9819.000000
15808.000000,41405.000000,49413.000000,9729.000000
15666.000000,41278.000000,49247.000000,9553.000000
15585.000000,41211.000000,49150.000000,9468.000000
15570.000000,41206.000000,49119.000000,9458.000000
15485.000000,41130.000000,49012.000000,9350.000000
15335.000000,40994.000000,48842.000000,9172.000000
15256.000000,40934.000000,48749.000000,9098.000000
15233.000000,40928.000000,48701.000000,9081.000000
15131.000000,40843.000000,48559.000000,8950.000000
14974.000000,40707.000000,48368.000000,8761.000000
14891.000000,40650.000000,48263.000000,8680.000000
14851.000000,40629.000000,48191.000000,8636.000000
14720.000000,40521.000000,48016.000000,8468.000000
14545.000000,40374.000000,47804.000000,8259.000000
14456.000000,40313.000000,47691.000000,8167.000000
14399.000000,40277.000000,47604.000000,8099.000000
14249.000000,40146.000000,47414.000000,7901.000000
14067.000000,39989.000000,47202.000000,7683.000000
13979.000000,39924.000000,47088.000000,7596.000000
13918.000000,39881.000000,46987.000000,7522.000000
13770.000000,39749.000000,46792.000000,7322.000000
13609.000000,39609.000000,46597.000000,7130.000000
13546.000000,39568.000000,46508.000000,7073.000000
13496.000000,39536.000000,46423.000000,7015.000000
13352.000000,39417.000000,46244.000000,6838.000000
13204.000000,39301.000000,46077.000000,6674.000000
13154.000000,39276.000000,46009.000000,6625.000000
13107.000000,39246.000000,45929.000000,6547.000000
12974.000000,39134.000000,45760.000000,6358.000000
12856.000000,39041.000000,45620.000000,6214.000000
12832.000000,39037.000000,45575.000000,6189.000000
12795.000000,39011.000000,45505.000000,6121.000000
12674.000000,38903.000000,45357.000000,5956.000000
12582.000000,38827.000000,45255.000000,5862.000000
12578.000000,38833.000000,45244.000000,5878.000000
12542.000000,38802.000000,45185.000000,5825.000000
12429.000000,38694.000000,45043.000000,5670.000000
12362.000000,38634.000000,44956.000000,5590.000000
12373.000000,38649.000000,44947.000000,5607.000000
12330.000000,38611.000000,44877.000000,5540.000000
12207.000000,38504.000000,44733.000000,5381.000000
12141.000000,38454.000000,44655.000000,5308.000000
12148.000000,38474.000000,44643.000000,5322.000000
12093.000000,38433.000000,44560.000000,5245.000000
11969.000000,38331.000000,44416.000000,5091.000000
11911.000000,38297.000000,44350.000000,5037.000000
11917.000000,38321.000000,44341.000000,5058.000000
11853.000000,38270.000000,44250.000000,4980.000000
11734.000000,38166.000000,44114.000000,4845.000000
11696.000000,38136.000000,44072.000000,4820.000000
11713.000000,38154.000000,44078.000000,4845.000000
11651.000000,38097.000000,43995.000000,4755.000000
11546.000000,38004.000000,43876.000000,4624.000000
11530.000000,37999.000000,43859.000000,4622.000000
11572.000000,38040.000000,43890.000000,4671.000000
11552.000000,38015.000000,43852.000000,4618.000000
11531.000000,37988.000000,43829.000000,4574.000000
11644.000000,38085.000000,43963.000000,4707.000000
11839.000000,38249.000000,44192.000000,4924.000000
12004.000000,38372.000000,44408.000000,5095.000000
12217.000000,38531.000000,44699.000000,5337.000000
12599.000000,38840.000000,45176.000000,5787.000000
13064.000000,39208.000000,45743.000000,6317.000000
13485.000000,39519.000000,46282.000000,6791.000000
13936.000000,39854.000000,46876.000000,7321.000000
14505.000000,40302.000000,47604.000000,8009.000000
15087.000000,40759.000000,48341.000000,8697.000000
15570.000000,41122.000000,48976.000000,9265.000000
16042.000000,41482.000000,49608.000000,9847.000000
16586.000000,41916.000000,50307.000000,10516.000000
17091.000000,42308.000000,50939.000000,11110.000000
17472.000000,42582.000000,51424.000000,11555.000000
17830.000000,42848.000000,51890.000000,12006.000000
18228.000000,43166.000000,52389.000000,12510.000000
18552.000000,43416.000000,52788.000000,12891.000000
18743.000000,43549.000000,53041.000000,13109.000000
18923.000000,43689.000000,53288.000000,13342.000000
19139.000000,43873.000000,53562.000000,13626.000000
19268.000000,43971.000000,53721.000000,13780.000000
19277.000000,43957.000000,53745.000000,13790.000000
19302.000000,43965.000000,53785.000000,13838.000000
19371.000000,44022.000000,53857.000000,13937.000000
19354.000000,44000.000000,53824.000000,13913.000000
19240.000000,43896.000000,53691.000000,13780.000000
19173.000000,43850.000000,53614.000000,13729.000000
19162.000000,43862.000000,53590.000000,13742.000000
19074.000000,43798.000000,53472.000000,13639.000000
18919.000000,43663.000000,53284.000000,13453.000000
18835.000000,43594.000000,53175.000000,13360.000000
18804.000000,43574.000000,53113.000000,13322.000000
18689.000000,43476.000000,52954.000000,13167.000000
18514.000000,43329.000000,52739.000000,12942.000000
18415.000000,43264.000000,52606.000000,12817.000000
18360.000000,43240.000000,52507.000000,12737.000000
18216.000000,43125.000000,52310.000000,12543.000000
18026.000000,42968.000000,52078.000000,12309.000000
17918.000000,42893.000000,51947.000000,12188.000000
17845.000000,42846.000000,51842.000000,12095.000000
17684.000000,42709.000000,51634.000000,11882.000000
17495.000000,42546.000000,51404.000000,11652.000000
17401.000000,42477.000000,51278.000000,11547.000000
17330.000000,42429.000000,51166.000000,11456.000000
17160.000000,42285.000000,50948.000000,11242.000000
16973.000000,42129.000000,50720.000000,11023.000000
16880.000000,42068.000000,50592.000000,10926.000000
16797.000000,42014.000000,50467.000000,10830.000000
16622.000000,41866.000000,50247.000000,10622.000000
16452.000000,41723.000000,50042.000000,10439.000000
16387.000000,41679.000000,49944.000000,10382.000000
16330.000000,41636.000000,49845.000000,10305.000000
16191.000000,41513.000000,49665.000000,10124.000000
16078.000000,41419.000000,49531.000000,9997.000000
16071.000000,41426.000000,49516.000000,10000.000000
16061.000000,41422.000000,49490.000000,9972.000000
15980.000000,41345.000000,49395.000000,9855.000000
15949.000000,41317.000000,49366.000000,9823.000000
16023.000000,41385.000000,49449.000000,9917.000000
16077.000000,41422.000000,49503.000000,9957.000000
16063.000000,41390.000000,49493.000000,9908.000000
16102.000000,41414.000000,49551.000000,9948.000000
16227.000000,41524.000000,49695.000000,10093.000000
16302.000000,41587.000000,49781.000000,10161.000000
16300.000000,41576.000000,49790.000000,10142.000000
16354.000000,41620.000000,49860.000000,10209.000000
16482.000000,41730.000000,49993.000000,10361.000000
16548.000000,41775.000000,50047.000000,10418.000000
16541.000000,41754.000000,50030.000000,10392.000000
16596.000000,41795.000000,50087.000000,10459.000000
16707.000000,41887.000000,50198.000000,10592.000000
16736.000000,41897.000000,50216.000000,10617.000000
16698.000000,41845.000000,50167.000000,10568.000000
16726.000000,41863.000000,50192.000000,10613.000000
16795.000000,41924.000000,50254.000000,10692.000000
16775.000000,41900.000000,50214.000000,10640.000000
16696.000000,41827.000000,50122.000000,10533.000000
16686.000000,41831.000000,50118.000000,10542.000000
16705.000000,41864.000000,50137.000000,10579.000000
16629.000000,41802.000000,50045.000000,10481.000000
16510.000000,41701.000000,49911.000000,10339.000000
16473.000000,41683.000000,49865.000000,10312.000000
16460.000000,41685.000000,49833.000000,10294.000000
16348.000000,41589.000000,49690.000000,10143.000000
16207.000000,41468.000000,49526.000000,9976.000000
16155.000000,41435.000000,49458.000000,9929.000000
16114.000000,41410.000000,49396.000000,9883.000000
15972.000000,41289.000000,49232.000000,9713.000000
15819.000000,41161.000000,49065.000000,9544.000000
15759.000000,41124.000000,48993.000000,9489.000000
15702.000000,41085.000000,48912.000000,9409.000000
15550.000000,40954.000000,48731.000000,9206.000000
15399.000000,40830.000000,48561.000000,9032.000000
15339.000000,40799.000000,48480.000000,8978.000000
15267.000000,40753.000000,48374.000000,8888.000000
15098.000000,40616.000000,48172.000000,8684.000000
14943.000000,40493.000000,47995.000000,8526.000000
14875.000000,40449.000000,47904.000000,8475.000000
14782.000000,40375.000000,47772.000000,8364.000000
14604.000000,40220.000000,47553.000000,8142.000000
14461.000000,40103.000000,47382.000000,7982.000000
14403.000000,40067.000000,47296.000000,7923.000000
14305.000000,39988.000000,47160.000000,7792.000000
14132.000000,39841.000000,46953.000000,7568.000000
14016.000000,39754.000000,46813.000000,7434.000000
13985.000000,39747.000000,46755.000000,7401.000000
13904.000000,39687.000000,46637.000000,7288.000000
13757.000000,39562.000000,46453.000000,7093.000000
13675.000000,39502.000000,46345.000000,6994.000000
13666.000000,39506.000000,46303.000000,6976.000000
13592.000000,39440.000000,46183.000000,6865.000000
13452.000000,39313.000000,46006.000000,6690.000000
13383.000000,39255.000000,45914.000000,6622.000000
13373.000000,39252.000000,45882.000000,6619.000000
13286.000000,39177.000000,45768.000000,6506.000000
13143.000000,39056.000000,45605.000000,6339.000000
13078.000000,39015.000000,45531.000000,6286.000000
13064.000000,39017.000000,45498.000000,6278.000000
12970.000000,38939.000000,45377.000000,6147.000000
12838.000000,38826.000000,45228.000000,5980.000000
12801.000000,38804.000000,45182.000000,5945.000000
12810.000000,38819.000000,45170.000000,5950.000000
12732.000000,38747.000000,45062.000000,5839.000000
12625.000000,38650.000000,44933.000000,5713.000000
12609.000000,38646.000000,44906.000000,5710.000000
12614.000000,38662.000000,44898.000000,5713.000000
12525.000000,38586.000000,44790.000000,5587.000000
12418.000000,38499.000000,44672.000000,5457.000000
12406.000000,38502.000000,44649.000000,5449.000000
12402.000000,38509.000000,44623.000000,5437.000000
12299.000000,38422.000000,44495.000000,5304.000000
12189.000000,38332.000000,44372.000000,5183.000000
12171.000000,38330.000000,44344.000000,5174.000000
12152.000000,38320.000000,44301.000000,5138.000000
12039.000000,38219.000000,44162.000000,4988.000000
11936.000000,38131.000000,44047.000000,4881.000000
11930.000000,38134.000000,44033.000000,4896.000000
11922.000000,38125.000000,44006.000000,4879.000000
11850.000000,38050.000000,43918.000000,4782.000000
11838.000000,38037.000000,43915.000000,4781.000000
11955.000000,38142.000000,44057.000000,4930.000000
12097.000000,38257.000000,44224.000000,5072.000000
12229.000000,38350.000000,44394.000000,5190.000000
12478.000000,38548.000000,44711.000000,5462.000000
12882.000000,38877.000000,45200.000000,5910.000000
13304.000000,39204.000000,45719.000000,6361.000000
13704.000000,39502.000000,46243.000000,6802.000000
14203.000000,39892.000000,46890.000000,7390.000000
14801.000000,40373.000000,47641.000000,8100.000000
15349.000000,40800.000000,48334.000000,8738.000000
15827.000000,41156.000000,48960.000000,9307.000000
16351.000000,41564.000000,49642.000000,9963.000000
16906.000000,42007.000000,50351.000000,10656.000000
17353.000000,42349.000000,50935.000000,11203.000000
17706.000000,42609.000000,51414.000000,11640.000000
18096.000000,42916.000000,51923.000000,12128.000000
18500.000000,43241.000000,52424.000000,12613.000000
18787.000000,43455.000000,52782.000000,12937.000000
18985.000000,43597.000000,53048.000000,13171.000000
19224.000000,43795.000000,53360.000000,13483.000000
19461.000000,43996.000000,53651.000000,13787.000000
19567.000000,44070.000000,53782.000000,13921.000000
19598.000000,44078.000000,53829.000000,13978.000000
19688.000000,44155.000000,53938.000000,14116.000000
19773.000000,44234.000000,54031.000000,14231.000000
19726.000000,44190.000000,53977.000000,14177.000000
19622.000000,44100.000000,53871.000000,14074.000000
19595.000000,44090.000000,53844.000000,14067.000000
19568.000000,44079.000000,53798.000000,14037.000000
19420.000000,43953.000000,53620.000000,13850.000000
19244.000000,43806.000000,53416.000000,13644.000000
19156.000000,43747.000000,53299.000000,13548.000000
19063.000000,43682.000000,53161.000000,13424.000000
18865.000000,43516.000000,52910.000000,13172.000000
18667.000000,43357.000000,52672.000000,12947.000000
18568.000000,43296.000000,52537.000000,12844.000000
18461.000000,43225.000000,52383.000000,12700.000000
18262.000000,43064.000000,52137.000000,12445.000000
18082.000000,42927.000000,51929.000000,12247.000000
17994.000000,42881.000000,51817.000000,12168.000000
17881.000000,42800.000000,51659.000000,12029.000000
17679.000000,42628.000000,51407.000000,11780.000000
17511.000000,42494.000000,51204.000000,11607.000000
17428.000000,42443.000000,51087.000000,11542.000000
17300.000000,42343.000000,50909.000000,11391.000000
17087.000000,42162.000000,50643.000000,11127.000000
16925.000000,42035.000000,50439.000000,10942.000000
16842.000000,41984.000000,50311.000000,10851.000000
16702.000000,41873.000000,50111.000000,10666.000000
16486.000000,41694.000000,49842.000000,10391.000000
16340.000000,41588.000000,49664.000000,10220.000000
16279.000000,41557.000000,49573.000000,10146.000000
16166.000000,41466.000000,49421.000000,9988.000000
16004.000000,41328.000000,49227.000000,9780.000000
15932.000000,41277.000000,49144.000000,9710.000000
15937.000000,41294.000000,49142.000000,9727.000000
15882.000000,41242.000000,49073.000000,9646.000000
15789.000000,41154.000000,48979.000000,9529.000000
15797.000000,41165.000000,48998.000000,9549.000000
15871.000000,41232.000000,49074.000000,9627.000000
15872.000000,41220.000000,49067.000000,9592.000000
15842.000000,41180.000000,49037.000000,9537.000000
15916.000000,41244.000000,49123.000000,9633.000000
16041.000000,41351.000000,49256.000000,9778.000000
16082.000000,41372.000000,49298.000000,9805.000000
16095.000000,41369.000000,49325.000000,9819.000000
16208.000000,41463.000000,49461.000000,9965.000000
16346.000000,41575.000000,49612.000000,10121.000000
16385.000000,41586.000000,49650.000000,10143.000000
16401.000000,41582.000000,49671.000000,10156.000000
16508.000000,41672.000000,49793.000000,10288.000000
16619.000000,41763.000000,49911.000000,10407.000000
16623.000000,41755.000000,49915.000000,10390.000000
16611.000000,41743.000000,49913.000000,10381.000000
16689.000000,41818.000000,50001.000000,10488.000000
16754.000000,41874.000000,50059.000000,10560.000000
16711.000000,41825.000000,50002.000000,10498.000000
16665.000000,41781.000000,49955.000000,10460.000000
16702.000000,41821.000000,49994.000000,10523.000000
16708.000000,41832.000000,49989.000000,10526.000000
16610.000000,41747.000000,49877.000000,10409.000000
16532.000000,41687.000000,49796.000000,10342.000000
16537.000000,41706.000000,49792.000000,10372.000000
16500.000000,41678.000000,49726.000000,10319.000000
16368.000000,41564.000000,49564.000000,10144.000000
16272.000000,41489.000000,49446.000000,10024.000000
16246.000000,41477.000000,49391.000000,9976.000000
16160.000000,41402.000000,49261.000000,9834.000000
15989.000000,41247.000000,49057.000000,9605.000000
15868.000000,41142.000000,48920.000000,9465.000000
15814.000000,41104.000000,48850.000000,9402.000000
15694.000000,41004.000000,48702.000000,9243.000000
15501.000000,40842.000000,48484.000000,9013.000000
15373.000000,40749.000000,48340.000000,8888.000000
15310.000000,40717.000000,48258.000000,8833.000000
15178.000000,40615.000000,48098.000000,8677.000000
14990.000000,40457.000000,47884.000000,8462.000000
14880.000000,40372.000000,47753.000000,8354.000000
14826.000000,40337.000000,47669.000000,8297.000000
14698.000000,40227.000000,47497.000000,8130.000000
14528.000000,40079.000000,47287.000000,7924.000000
14441.000000,40018.000000,47172.000000,7843.000000
14400.000000,40001.000000,47102.000000,7811.000000
14275.000000,39905.000000,46947.000000,7673.000000
14117.000000,39784.000000,46772.000000,7515.000000
14054.000000,39756.000000,46701.000000,7481.000000
14024.000000,39752.000000,46653.000000,7462.000000
13899.000000,39656.000000,46501.000000,7314.000000
13745.000000,39535.000000,46328.000000,7146.000000
13685.000000,39501.000000,46248.000000,7090.000000
13643.000000,39476.000000,46173.000000,7022.000000
13507.000000,39357.000000,45999.000000,6824.000000
13361.000000,39233.000000,45825.000000,6630.000000
13311.000000,39202.000000,45751.000000,6561.000000
13269.000000,39176.000000,45677.000000,6488.000000
13140.000000,39064.000000,45512.000000,6311.000000
13020.000000,38959.000000,45365.000000,6171.000000
12997.000000,38945.000000,45314.000000,6154.000000
12967.000000,38919.000000,45250.000000,6105.000000
12849.000000,38813.000000,45103.000000,5954.000000
12754.000000,38737.000000,44996.000000,5863.000000
12755.000000,38749.000000,44987.000000,5889.000000
12737.000000,38736.000000,44947.000000,5860.000000
12641.000000,38649.000000,44829.000000,5726.000000
12582.000000,38601.000000,44765.000000,5659.000000
12603.000000,38628.000000,44780.000000,5691.000000
12577.000000,38603.000000,44734.000000,5646.000000
12466.000000,38500.000000,44602.000000,5505.000000
12404.000000,38446.000000,44530.000000,5445.000000
12416.000000,38464.000000,44531.000000,5472.000000
12370.000000,38428.000000,44464.000000,5411.000000
12252.000000,38329.000000,44325.000000,5267.000000
12195.000000,38292.000000,44256.000000,5213.000000
12205.000000,38316.000000,44251.000000,5229.000000
12147.000000,38271.000000,44166.000000,5139.000000
12023.000000,38167.000000,44020.000000,4979.000000
11969.000000,38134.000000,43955.000000,4923.000000
11976.000000,38152.000000,43947.000000,4929.000000
11911.000000,38096.000000,43858.000000,4833.000000
11794.000000,37993.000000,43725.000000,4694.000000
11757.000000,37972.000000,43686.000000,4675.000000
11776.000000,38000.000000,43695.000000,4709.000000
11734.000000,37961.000000,43634.000000,4647.000000
11684.000000,37914.000000,43578.000000,4584.000000
11766.000000,37988.000000,43677.000000,4689.000000
11944.000000,38137.000000,43880.000000,4883.000000
12100.000000,38246.000000,44071.000000,5031.000000
12293.000000,38382.000000,44327.000000,5231.000000
12647.000000,38664.000000,44767.000000,5627.000000
13091.000000,39016.000000,45306.000000,6112.000000
13495.000000,39321.000000,45819.000000,6547.000000
13922.000000,39649.000000,46380.000000,7041.000000
14468.000000,40089.000000,47076.000000,7699.000000
15036.000000,40543.000000,47790.000000,8371.000000
15506.000000,40898.000000,48404.000000,8922.000000
15958.000000,41239.000000,49006.000000,9469.000000
16481.000000,41653.000000,49675.000000,10105.000000
16972.000000,42035.000000,50288.000000,10675.000000
17334.000000,42297.000000,50753.000000,11087.000000
17663.000000,42543.000000,51187.000000,11489.000000
18035.000000,42846.000000,51661.000000,11951.000000
18344.000000,43093.000000,52048.000000,12313.000000
18518.000000,43219.000000,52289.000000,12518.000000
18669.000000,43339.000000,52515.000000,12736.000000
18856.000000,43504.000000,52766.000000,13008.000000
18962.000000,43590.000000,52907.000000,13157.000000
18948.000000,43564.000000,52912.000000,13159.000000
18947.000000,43561.000000,52929.000000,13195.000000
18996.000000,43614.000000,52985.000000,13285.000000
18970.000000,43596.000000,52941.000000,13255.000000
18849.000000,43492.000000,52794.000000,13106.000000
18767.000000,43435.000000,52694.000000,13022.000000
18742.000000,43432.000000,52645.000000,13003.000000
18639.000000,43351.000000,52501.000000,12870.000000
18457.000000,43196.000000,52277.000000,12645.000000
18332.000000,43102.000000,52123.000000,12508.000000
18260.000000,43060.000000,52021.000000,12431.000000
18109.000000,42937.000000,51825.000000,12244.000000
17893.000000,42756.000000,51567.000000,11994.000000
17742.000000,42648.000000,51388.000000,11850.000000
17637.000000,42585.000000,51250.000000,11753.000000
17449.000000,42437.000000,51016.000000,11533.000000
17211.000000,42244.000000,50733.000000,11253.000000
17055.000000,42131.000000,50539.000000,11079.000000
16938.000000,42050.000000,50372.000000,10937.000000
16729.000000,41879.000000,50100.000000,10670.000000
16484.000000,41677.000000,49797.000000,10372.000000
16327.000000,41566.000000,49594.000000,10196.000000
16202.000000,41482.000000,49416.000000,10037.000000
15988.000000,41307.000000,49141.000000,9753.000000
15754.000000,41114.000000,48858.000000,9471.000000
15621.000000,41018.000000,48686.000000,9329.000000
15518.000000,40944.000000,48537.000000,9212.000000
15332.000000,40788.000000,48302.000000,8990.000000
15149.000000,40637.000000,48084.000000,8788.000000
15073.000000,40588.000000,47986.000000,8716.000000
15016.000000,40552.000000,47905.000000,8644.000000
14882.000000,40441.000000,47751.000000,8473.000000
14770.000000,40355.000000,47634.000000,8346.000000
14771.000000,40374.000000,47633.000000,8354.000000
14784.000000,40392.000000,47629.000000,8348.000000
14730.000000,40338.000000,47556.000000,8259.000000
14714.000000,40323.000000,47538.000000,8241.000000
14800.000000,40402.000000,47631.000000,8344.000000
14875.000000,40456.000000,47701.000000,8403.000000
14880.000000,40441.000000,47705.000000,8379.000000
14934.000000,40477.000000,47778.000000,8441.000000
15079.000000,40601.000000,47947.000000,8614.000000
15187.000000,40685.000000,48068.000000,8720.000000
15221.000000,40695.000000,48113.000000,8742.000000
15305.000000,40756.000000,48220.000000,8848.000000
15462.000000,40886.000000,48398.000000,9031.000000
15552.000000,40952.000000,48500.000000,9116.000000
15559.000000,40941.000000,48521.000000,9113.000000
15616.000000,40984.000000,48597.000000,9193.000000
15729.000000,41080.000000,48717.000000,9330.000000
15761.000000,41096.000000,48743.000000,9349.000000
15715.000000,41044.000000,48698.000000,9288.000000
15727.000000,41055.000000,48719.000000,9317.000000
15783.000000,41109.000000,48777.000000,9387.000000
15748.000000,41079.000000,48736.000000,9331.000000
15647.000000,40991.000000,48634.000000,9210.000000
15614.000000,40970.000000,48602.000000,9186.000000
15615.000000,40980.000000,48592.000000,9192.000000
15522.000000,40901.000000,48477.000000,9071.000000
15381.000000,40782.000000,48317.000000,8913.000000
15320.000000,40745.000000,48243.000000,8874.000000
15291.000000,40735.000000,48190.000000,8852.000000
15168.000000,40633.000000,48033.000000,8700.000000
15015.000000,40505.000000,47852.000000,8523.000000
14951.000000,40464.000000,47763.000000,8462.000000
14904.000000,40435.000000,47679.000000,8399.000000
14758.000000,40310.000000,47489.000000,8206.000000
14590.000000,40169.000000,47287.000000,8013.000000
14507.000000,40113.000000,47179.000000,7937.000000
14423.000000,40056.000000,47066.000000,7843.000000
14237.000000,39903.000000,46849.000000,7617.000000
14044.000000,39750.000000,46632.000000,7398.000000
13942.000000,39685.000000,46505.000000,7290.000000
13836.000000,39613.000000,46367.000000,7153.000000
13646.000000,39457.000000,46144.000000,6909.000000
13476.000000,39324.000000,45951.000000,6714.000000
13404.000000,39282.000000,45852.000000,6641.000000
13319.000000,39220.000000,45724.000000,6520.000000
13153.000000,39080.000000,45509.000000,6297.000000
13018.000000,38974.000000,45338.000000,6146.000000
12967.000000,38948.000000,45254.000000,6110.000000
12878.000000,38881.000000,45124.000000,6009.000000
12708.000000,38738.000000,44918.000000,5811.000000
12586.000000,38646.000000,44777.000000,5690.000000
12548.000000,38632.000000,44719.000000,5660.000000
12465.000000,38569.000000,44603.000000,5544.000000
12311.000000,38437.000000,44418.000000,5341.000000
12214.000000,38365.000000,44299.000000,5226.000000
12185.000000,38356.000000,44244.000000,5192.000000
12090.000000,38283.000000,44118.000000,5065.000000
11933.000000,38151.000000,43935.000000,4869.000000
11849.000000,38092.000000,43835.000000,4781.000000
11832.000000,38093.000000,43796.000000,4768.000000
11747.000000,38027.000000,43680.000000,4652.000000
11611.000000,37916.000000,43519.000000,4480.000000
11555.000000,37886.000000,43452.000000,4429.000000
11557.000000,37908.000000,43440.000000,4443.000000
11487.000000,37857.000000,43351.000000,4347.000000
11381.000000,37771.000000,43235.000000,4210.000000
11362.000000,37769.000000,43218.000000,4195.000000
11387.000000,37800.000000,43233.000000,4220.000000
11326.000000,37740.000000,43152.000000,4131.000000
11227.000000,37648.000000,43038.000000,4015.000000
11213.000000,37638.000000,43016.000000,4015.000000
11224.000000,37648.000000,43013.000000,4026.000000
11141.000000,37568.000000,42909.000000,3911.000000
11032.000000,37470.000000,42788.000000,3789.000000
11012.000000,37461.000000,42760.000000,3792.000000
11010.000000,37462.000000,42735.000000,3794.000000
10917.000000,37377.000000,42618.000000,3682.000000
10820.000000,37296.000000,42512.000000,3592.000000
10826.000000,37314.000000,42514.000000,3629.000000
10853.000000,37347.000000,42528.000000,3658.000000
10815.000000,37312.000000,42478.000000,3597.000000
10819.000000,37318.000000,42492.000000,3607.000000
10960.000000,37451.000000,42660.000000,3777.000000
11143.000000,37610.000000,42872.000000,3959.000000
11293.000000,37735.000000,43070.000000,4090.000000
11524.000000,37931.000000,43381.000000,4339.000000
11905.000000,38245.000000,43862.000000,4770.000000
12316.000000,38563.000000,44375.000000,5218.000000
12691.000000,38837.000000,44867.000000,5631.000000
13142.000000,39181.000000,45458.000000,6164.000000
13704.000000,39622.000000,46167.000000,6834.000000
14233.000000,40023.000000,46839.000000,7450.000000
14682.000000,40350.000000,47433.000000,7976.000000
15170.000000,40722.000000,48071.000000,8571.000000
15708.000000,41150.000000,48753.000000,9231.000000
16157.000000,41498.000000,49332.000000,9777.000000
16500.000000,41754.000000,49802.000000,10211.000000
16870.000000,42047.000000,50295.000000,10696.000000
17265.000000,42368.000000,50792.000000,11199.000000
17551.000000,42584.000000,51148.000000,11544.000000
17732.000000,42704.000000,51381.000000,11761.000000
17940.000000,42862.000000,51639.000000,12020.000000
18157.000000,43038.000000,51892.000000,12284.000000
18253.000000,43104.000000,52001.000000,12388.000000
18254.000000,43092.000000,52012.000000,12389.000000
18296.000000,43132.000000,52066.000000,12456.000000
18347.000000,43188.000000,52119.000000,12527.000000
18284.000000,43138.000000,52041.000000,12449.000000
18156.000000,43031.000000,51901.000000,12314.000000
18091.000000,42994.000000,51833.000000,12285.000000
18041.000000,42972.000000,51768.000000,12264.000000
17890.000000,42853.000000,51586.000000,12098.000000
17707.000000,42706.000000,51375.000000,11898.000000
17615.000000,42647.000000,51260.000000,11813.000000
17541.000000,42603.000000,51154.000000,11728.000000
17371.000000,42463.000000,50942.000000,11508.000000
17181.000000,42309.000000,50718.000000,11285.000000
17081.000000,42243.000000,50587.000000,11183.000000
16984.000000,42177.000000,50448.000000,11070.000000
16786.000000,42017.000000,50205.000000,10838.000000
16582.000000,41855.000000,49965.000000,10624.000000
16467.000000,41776.000000,49813.000000,10513.000000
16339.000000,41681.000000,49633.000000,10353.000000
16116.000000,41493.000000,49351.000000,10063.000000
15902.000000,41319.000000,49088.000000,9801.000000
15772.000000,41223.000000,48912.000000,9643.000000
15616.000000,41099.000000,48701.000000,9432.000000
15373.000000,40896.000000,48407.000000,9128.000000
15163.000000,40731.000000,48163.000000,8905.000000
15043.000000,40652.000000,48010.000000,8796.000000
14898.000000,40540.000000,47819.000000,8627.000000
14688.000000,40364.000000,47565.000000,8377.000000
14538.000000,40252.000000,47389.000000,8221.000000
14484.000000,40229.000000,47313.000000,8172.000000
14402.000000,40169.000000,47198.000000,8060.000000
14273.000000,40058.000000,47040.000000,7891.000000
14229.000000,40026.000000,46983.000000,7838.000000
14277.000000,40075.000000,47024.000000,7885.000000
14284.000000,40079.000000,47020.000000,7864.000000
14246.000000,40038.000000,46980.000000,7802.000000
14293.000000,40077.000000,47039.000000,7865.000000
14415.000000,40181.000000,47170.000000,8007.000000
14476.000000,40219.000000,47232.000000,8053.000000
14493.000000,40215.000000,47259.000000,8056.000000
14594.000000,40294.000000,47384.000000,8178.000000
14746.000000,40418.000000,47556.000000,8343.000000
14818.000000,40463.000000,47637.000000,8392.000000
14842.000000,40471.000000,47679.000000,8409.000000
14942.000000,40560.000000,47812.000000,8548.000000
15074.000000,40677.000000,47969.000000,8711.000000
15116.000000,40699.000000,48020.000000,8744.000000
15121.000000,40685.000000,48036.000000,8742.000000
15206.000000,40756.000000,48138.000000,8849.000000
15303.000000,40842.000000,48246.000000,8961.000000
15294.000000,40828.000000,48238.000000,8938.000000
15254.000000,40784.000000,48201.000000,8892.000000
15294.000000,40820.000000,48245.000000,8952.000000
15332.000000,40856.000000,48274.000000,8992.000000
15262.000000,40790.000000,48187.000000,8893.000000
15172.000000,40710.000000,48088.000000,8793.000000
15165.000000,40712.000000,48070.000000,8802.000000
15148.000000,40706.000000,48029.000000,8784.000000
15031.000000,40609.000000,47886.000000,8650.000000
14917.000000,40516.000000,47756.000000,8543.000000
14887.000000,40506.000000,47711.000000,8533.000000
14836.000000,40475.000000,47630.000000,8464.000000
14689.000000,40357.000000,47458.000000,8279.000000
14562.000000,40262.000000,47319.000000,8147.000000
14514.000000,40239.000000,47256.000000,8109.000000
14427.000000,40170.000000,47136.000000,7997.000000
14255.000000,40018.000000,46930.000000,7786.000000
14122.000000,39907.000000,46775.000000,7646.000000
14067.000000,39872.000000,46696.000000,7594.000000
13963.000000,39787.000000,46554.000000,7460.000000
13779.000000,39630.000000,46333.000000,7235.000000
13647.000000,39528.000000,46177.000000,7095.000000
13589.000000,39495.000000,46096.000000,7037.000000
13476.000000,39405.000000,45948.000000,6891.000000
13297.000000,39254.000000,45741.000000,6670.000000
13184.000000,39172.000000,45615.000000,6545.000000
13141.000000,39155.000000,45553.000000,6496.000000
13036.000000,39073.000000,45418.000000,6357.000000
12878.000000,38940.000000,45234.000000,6165.000000
12802.000000,38887.000000,45138.000000,6086.000000
12790.000000,38890.000000,45100.000000,6072.000000
12706.000000,38823.000000,44982.000000,5960.000000
12578.000000,38714.000000,44824.000000,5811.000000
12534.000000,38685.000000,44760.000000,5782.000000
12535.000000,38693.000000,44732.000000,5790.000000
12453.000000,38617.000000,44610.000000,5673.000000
12334.000000,38512.000000,44461.000000,5524.000000
12302.000000,38497.000000,44412.000000,5497.000000
12302.000000,38511.000000,44393.000000,5494.000000
12212.000000,38433.000000,44278.000000,5372.000000
12099.000000,38333.000000,44147.000000,5241.000000
12080.000000,38323.000000,44116.000000,5231.000000
12081.000000,38328.000000,44097.000000,5223.000000
11988.000000,38248.000000,43983.000000,5102.000000
11882.000000,38166.000000,43868.000000,4999.000000
11870.000000,38176.000000,43856.000000,5019.000000
11865.000000,38188.000000,43842.000000,5021.000000
11769.000000,38111.000000,43730.000000,4899.000000
11676.000000,38041.000000,43630.000000,4798.000000
11680.000000,38062.000000,43629.000000,4813.000000
11682.000000,38072.000000,43614.000000,4802.000000
11595.000000,37995.000000,43513.000000,4688.000000
11527.000000,37937.000000,43448.000000,4623.000000
11559.000000,37970.000000,43487.000000,4676.000000
11595.000000,37997.000000,43514.000000,4695.000000
11583.000000,37974.000000,43496.000000,4648.000000
11646.000000,38024.000000,43579.000000,4715.000000
11845.000000,38196.000000,43814.000000,4943.000000
12063.000000,38373.000000,44078.000000,5170.000000
12262.000000,38526.000000,44347.000000,5377.000000
12575.000000,38778.000000,44760.000000,5740.000000
13030.000000,39151.000000,45330.000000,6273.000000
13487.000000,39509.000000,45911.000000,6794.000000
13912.000000,39828.000000,46477.000000,7288.000000
14424.000000,40225.000000,47148.000000,7907.000000
15019.000000,40694.000000,47903.000000,8624.000000
15553.000000,41097.000000,48587.000000,9254.000000
16010.000000,41430.000000,49193.000000,9804.000000
16507.000000,41814.000000,49847.000000,10425.000000
17030.000000,42225.000000,50512.000000,11067.000000
17440.000000,42533.000000,51036.000000,11554.000000
17753.000000,42761.000000,51453.000000,11933.000000
18099.000000,43040.000000,51902.000000,12375.000000
18446.000000,43330.000000,52335.000000,12815.000000
18666.000000,43503.000000,52617.000000,13087.000000
18798.000000,43603.000000,52811.000000,13272.000000
18975.000000,43757.000000,53057.000000,13532.000000
19153.000000,43912.000000,53285.000000,13777.000000
19208.000000,43947.000000,53365.000000,13845.000000
19199.000000,43931.000000,53378.000000,13844.000000
19255.000000,43986.000000,53452.000000,13933.000000
19313.000000,44043.000000,53507.000000,14008.000000
19255.000000,43988.000000,53432.000000,13932.000000
19156.000000,43901.000000,53321.000000,13827.000000
19131.000000,43892.000000,53285.000000,13820.000000
19099.000000,43875.000000,53227.000000,13786.000000
18953.000000,43748.000000,53045.000000,13612.000000
18782.000000,43608.000000,52849.000000,13428.000000
18691.000000,43550.000000,52738.000000,13344.000000
18589.000000,43479.000000,52602.000000,13221.000000
18387.000000,43310.000000,52356.000000,12969.000000
18186.000000,43148.000000,52120.000000,12742.000000
18074.000000,43068.000000,51969.000000,12622.000000
17946.000000,42966.000000,51787.000000,12450.000000
17730.000000,42780.000000,51518.000000,12175.000000
17537.000000,42627.000000,51288.000000,11964.000000
17427.000000,42554.000000,51143.000000,11857.000000
17285.000000,42444.000000,50948.000000,11680.000000
17061.000000,42257.000000,50667.000000,11402.000000
16874.000000,42114.000000,50433.000000,11191.000000
16762.000000,42044.000000,50270.000000,11066.000000
16598.000000,41920.000000,50044.000000,10858.000000
16358.000000,41722.000000,49747.000000,10568.000000
16173.000000,41580.000000,49523.000000,10371.000000
16066.000000,41512.000000,49379.000000,10262.000000
15912.000000,41392.000000,49179.000000,10070.000000
15709.000000,41221.000000,48931.000000,9816.000000
15590.000000,41126.000000,48781.000000,9676.000000
15554.000000,41102.000000,48718.000000,9620.000000
15473.000000,41027.000000,48611.000000,9491.000000
15357.000000,40920.000000,48483.000000,9339.000000
15337.000000,40905.000000,48463.000000,9324.000000
15391.000000,40954.000000,48513.000000,9384.000000
15386.000000,40940.000000,48501.000000,9359.000000
15351.000000,40900.000000,48472.000000,9315.000000
15410.000000,40951.000000,48552.000000,9403.000000
15523.000000,41051.000000,48682.000000,9537.000000
15564.000000,41078.000000,48730.000000,9557.000000
15582.000000,41084.000000,48761.000000,9557.000000
15695.000000,41185.000000,48898.000000,9692.000000
15839.000000,41315.000000,49062.000000,9852.000000
15889.000000,41354.000000,49130.000000,9893.000000
15916.000000,41371.000000,49187.000000,9923.000000
16031.000000,41474.000000,49338.000000,10071.000000
16159.000000,41581.000000,49483.000000,10208.000000
16184.000000,41585.000000,49508.000000,10210.000000
16185.000000,41570.000000,49513.000000,10209.000000
16264.000000,41636.000000,49601.000000,10322.000000
16338.000000,41697.000000,49675.000000,10417.000000
16311.000000,41665.000000,49645.000000,10390.000000
16281.000000,41635.000000,49623.000000,10385.000000
16338.000000,41684.000000,49687.000000,10486.000000
16371.000000,41713.000000,49715.000000,10536.000000
16295.000000,41651.000000,49634.000000,10463.000000
16225.000000,41605.000000,49567.000000,10429.000000
16238.000000,41636.000000,49577.000000,10480.000000
16221.000000,41631.000000,49535.000000,10446.000000
16115.000000,41541.000000,49393.000000,10288.000000
16034.000000,41483.000000,49290.000000,10186.000000
16025.000000,41494.000000,49263.000000,10177.000000
15966.000000,41451.000000,49174.000000,10091.000000
15820.000000,41326.000000,49000.000000,9903.000000
15713.000000,41245.000000,48880.000000,9788.000000
15677.000000,41231.000000,48834.000000,9756.000000
15587.000000,41157.000000,48722.000000,9635.000000
15427.000000,41015.000000,48541.000000,9431.000000
15329.000000,40935.000000,48430.000000,9324.000000
15297.000000,40918.000000,48382.000000,9295.000000
15194.000000,40834.000000,48258.000000,9163.000000
15024.000000,40692.000000,48074.000000,8955.000000
14920.000000,40616.000000,47966.000000,8848.000000
14874.000000,40590.000000,47907.000000,8800.000000
14752.000000,40491.000000,47763.000000,8654.000000
14582.000000,40351.000000,47573.000000,8470.000000
14495.000000,40291.000000,47473.000000,8407.000000
14461.000000,40275.000000,47415.000000,8389.000000
14351.000000,40181.000000,47271.000000,8247.000000
14205.000000,40055.000000,47097.000000,8062.000000
14145.000000,40015.000000,47021.000000,8001.000000
14118.000000,40008.000000,46972.000000,7969.000000
14007.000000,39917.000000,46830.000000,7818.000000
13873.000000,39802.000000,46667.000000,7653.000000
13836.000000,39780.000000,46603.000000,7612.000000
13831.000000,39782.000000,46559.000000,7591.000000
13741.000000,39693.000000,46425.000000,7452.000000
13632.000000,39590.000000,46289.000000,7308.000000
13613.000000,39578.000000,46254.000000,7288.000000
13606.000000,39574.000000,46223.000000,7270.000000
13508.000000,39484.000000,46096.000000,7144.000000
13405.000000,39395.000000,45973.000000,7041.000000
13392.000000,39393.000000,45943.000000,7051.000000
13372.000000,39382.000000,45895.000000,7022.000000
13258.000000,39285.000000,45753.000000,6879.000000
13154.000000,39207.000000,45637.000000,6781.000000
13142.000000,39217.000000,45613.000000,6795.000000
13115.000000,39203.000000,45562.000000,6753.000000
13006.000000,39108.000000,45429.000000,6603.000000
12926.000000,39048.000000,45342.000000,6514.000000
12928.000000,39067.000000,45342.000000,6526.000000
12894.000000,39049.000000,45292.000000,6467.000000
12780.000000,38953.000000,45161.000000,6311.000000
12709.000000,38904.000000,45089.000000,6234.000000
12719.000000,38933.000000,45101.000000,6256.000000
12687.000000,38918.000000,45060.000000,6203.000000
12600.000000,38846.000000,44965.000000,6085.000000
12599.000000,38852.000000,44970.000000,6082.000000
12714.000000,38956.000000,45094.000000,6199.000000
12832.000000,39045.000000,45221.000000,6290.000000
12956.000000,39126.000000,45375.000000,6391.000000
13214.000000,39326.000000,45697.000000,6671.000000
13601.000000,39635.000000,46168.000000,7098.000000
13981.000000,39923.000000,46650.000000,7512.000000
14357.000000,40206.000000,47159.000000,7947.000000
14853.000000,40601.000000,47814.000000,8552.000000
15432.000000,41069.000000,48557.000000,9251.000000
15953.000000,41471.000000,49238.000000,9869.000000
16431.000000,41837.000000,49888.000000,10457.000000
16983.000000,42282.000000,50619.000000,11155.000000
17557.000000,42746.000000,51351.000000,11868.000000
18016.000000,43099.000000,51943.000000,12432.000000
18405.000000,43391.000000,52456.000000,12924.000000
18839.000000,43740.000000,53016.000000,13481.000000
19256.000000,44075.000000,53540.000000,14002.000000
19534.000000,44278.000000,53905.000000,14349.000000
19744.000000,44426.000000,54195.000000,14631.000000
19999.000000,44634.000000,54524.000000,14974.000000
20223.000000,44819.000000,54799.000000,15258.000000
20307.000000,44873.000000,54918.000000,15366.000000
20343.000000,44888.000000,54986.000000,15427.000000
20435.000000,44966.000000,55103.000000,15557.000000
20493.000000,45016.000000,55164.000000,15622.000000
20423.000000,44951.000000,55085.000000,15525.000000
20326.000000,44874.000000,54987.000000,15426.000000
20297.000000,44873.000000,54954.000000,15421.000000
20243.000000,44844.000000,54874.000000,15361.000000
20091.000000,44721.000000,54688.000000,15176.000000
19949.000000,44617.000000,54525.000000,15030.000000
19884.000000,44591.000000,54445.000000,14978.000000
19787.000000,44527.000000,54313.000000,14850.000000
19603.000000,44381.000000,54090.000000,14611.000000
19453.000000,44274.000000,53911.000000,14439.000000
19381.000000,44236.000000,53805.000000,14365.000000
19260.000000,44143.000000,53634.000000,14214.000000
19057.000000,43972.000000,53382.000000,13964.000000
18904.000000,43850.000000,53193.000000,13790.000000
18824.000000,43797.000000,53077.000000,13697.000000
18687.000000,43684.000000,52892.000000,13508.000000
18480.000000,43506.000000,52638.000000,13237.000000
18334.000000,43389.000000,52456.000000,13061.000000
18252.000000,43329.000000,52335.000000,12959.000000
18109.000000,43199.000000,52131.000000,12765.000000
17907.000000,43014.000000,51871.000000,12517.000000
17774.000000,42904.000000,51695.000000,12382.000000
17696.000000,42849.000000,51572.000000,12304.000000
17551.000000,42726.000000,51371.000000,12118.000000
17369.000000,42566.000000,51137.000000,11891.000000
17275.000000,42496.000000,51007.000000,11790.000000
17235.000000,42477.000000,50931.000000,11740.000000
17123.000000,42387.000000,50780.000000,11591.000000
16989.000000,42276.000000,50619.000000,11430.000000
16957.000000,42261.000000,50577.000000,11406.000000
16967.000000,42284.000000,50581.000000,11420.000000
16897.000000,42226.000000,50505.000000,11330.000000
16814.000000,42154.000000,50426.000000,11243.000000
16839.000000,42184.000000,50464.000000,11291.000000
16903.000000,42245.000000,50538.000000,11361.000000
16892.000000,42230.000000,50538.000000,11331.000000
16879.000000,42218.000000,50553.000000,11316.000000
16969.000000,42303.000000,50677.000000,11426.000000
17075.000000,42395.000000,50806.000000,11533.000000
17097.000000,42400.000000,50839.000000,11536.000000
17125.000000,42411.000000,50883.000000,11573.000000
17248.000000,42511.000000,51025.000000,11736.000000
17364.000000,42602.000000,51148.000000,11870.000000
17383.000000,42602.000000,51175.000000,11883.000000
17408.000000,42617.000000,51221.000000,11929.000000
17515.000000,42711.000000,51347.000000,12072.000000
17590.000000,42772.000000,51426.000000,12146.000000
17569.000000,42741.000000,51407.000000,12100.000000
17566.000000,42738.000000,51423.000000,12104.000000
17634.000000,42805.000000,51513.000000,12197.000000
17654.000000,42820.000000,51535.000000,12208.000000
17585.000000,42751.000000,51459.000000,12113.000000
17552.000000,42726.000000,51428.000000,12083.000000
17587.000000,42768.000000,51462.000000,12131.000000
17560.000000,42749.000000,51418.000000,12085.000000
17448.000000,42653.000000,51288.000000,11939.000000
17387.000000,42609.000000,51218.000000,11871.000000
17394.000000,42625.000000,51207.000000,11882.000000
17336.000000,42575.000000,51115.000000,11804.000000
17205.000000,42458.000000,50954.000000,11653.000000
17131.000000,42404.000000,50863.000000,11594.000000
17107.000000,42399.000000,50823.000000,11588.000000
17004.000000,42315.000000,50694.000000,11472.000000
16839.000000,42177.000000,50510.000000,11293.000000
16742.000000,42110.000000,50406.000000,11209.000000
16694.000000,42085.000000,50340.000000,11162.000000
16569.000000,41978.000000,50179.000000,10996.000000
16400.000000,41831.000000,49979.000000,10785.000000
16309.000000,41768.000000,49871.000000,10691.000000
16255.000000,41741.000000,49788.000000,10628.000000
16116.000000,41627.000000,49604.000000,10444.000000
15947.000000,41483.000000,49395.000000,10243.000000
15864.000000,41427.000000,49284.000000,10166.000000
15806.000000,41391.000000,49191.000000,10098.000000
15660.000000,41262.000000,49001.000000,9906.000000
15498.000000,41117.000000,48805.000000,9710.000000
15431.000000,41066.000000,48711.000000,9636.000000
15381.000000,41029.000000,48625.000000,9564.000000
15246.000000,40908.000000,48450.000000,9387.000000
15106.000000,40787.000000,48284.000000,9234.000000
15063.000000,40761.000000,48220.000000,9206.000000
15025.000000,40737.000000,48155.000000,9153.000000
14900.000000,40630.000000,48004.000000,8983.000000
14783.000000,40536.000000,47870.000000,8841.000000
14753.000000,40526.000000,47825.000000,8801.000000
14709.000000,40497.000000,47755.000000,8723.000000
14581.000000,40387.000000,47603.000000,8550.000000
14474.000000,40303.000000,47490.000000,8436.000000
14454.000000,40300.000000,47462.000000,8425.000000
14407.000000,40267.000000,47392.000000,8359.000000
14286.000000,40161.000000,47247.000000,8201.000000
14204.000000,40100.000000,47154.000000,8116.000000
14204.000000,40116.000000,47139.000000,8124.000000
14160.000000,40085.000000,47067.000000,8061.000000
14043.000000,39981.000000,46924.000000,7915.000000
13979.000000,39930.000000,46846.000000,7847.000000
13992.000000,39947.000000,46842.000000,7858.000000
13953.000000,39909.000000,46774.000000,7786.000000
13847.000000,39811.000000,46644.000000,7639.000000
13802.000000,39777.000000,46588.000000,7583.000000
13818.000000,39800.000000,46589.000000,7594.000000
13762.000000,39754.000000,46512.000000,7505.000000
13648.000000,39656.000000,46383.000000,7353.000000
13609.000000,39633.000000,46336.000000,7308.000000
13626.000000,39659.000000,46337.000000,7324.000000
13567.000000,39606.000000,46253.000000,7237.000000
13459.000000,39508.000000,46130.000000,7111.000000
13432.000000,39491.000000,46102.000000,7105.000000
13454.000000,39517.000000,46119.000000,7148.000000
13407.000000,39473.000000,46061.000000,7094.000000
13352.000000,39422.000000,46007.000000,7040.000000
13426.000000,39490.000000,46099.000000,7150.000000
13584.000000,39627.000000,46280.000000,7336.000000
13709.000000,39725.000000,46444.000000,7471.000000
13877.000000,39859.000000,46679.000000,7670.000000
14213.000000,40139.000000,47104.000000,8070.000000
14643.000000,40487.000000,47636.000000,8558.000000
15045.000000,40795.000000,48162.000000,9011.000000
15485.000000,41137.000000,48752.000000,9530.000000
16047.000000,41599.000000,49479.000000,10203.000000
16635.000000,42080.000000,50224.000000,10896.000000
17141.000000,42474.000000,50882.000000,11496.000000
17642.000000,42865.000000,51543.000000,12120.000000
18213.000000,43330.000000,52273.000000,12834.000000
18751.000000,43762.000000,52952.000000,13482.000000
19171.000000,44083.000000,53505.000000,13987.000000
19569.000000,44394.000000,54044.000000,14500.000000
20007.000000,44754.000000,54618.000000,15075.000000
20382.000000,45052.000000,55097.000000,15543.000000
20632.000000,45237.000000,55433.000000,15850.000000
20868.000000,45425.000000,55756.000000,16158.000000
21135.000000,45654.000000,56101.000000,16498.000000
21320.000000,45803.000000,56338.000000,16710.000000
21385.000000,45839.000000,56442.000000,16783.000000
21449.000000,45884.000000,56546.000000,16881.000000
21542.000000,45965.000000,56665.000000,17016.000000
21551.000000,45966.000000,56673.000000,17025.000000
21463.000000,45879.000000,56574.000000,16916.000000
21402.000000,45828.000000,56505.000000,16860.000000
21381.000000,45815.000000,56464.000000,16845.000000
21281.000000,45725.000000,56327.000000,16711.000000
21110.000000,45571.000000,56118.000000,16493.000000
20996.000000,45477.000000,55970.000000,16357.000000
20924.000000,45425.000000,55858.000000,16267.000000
20772.000000,45298.000000,55657.000000,16068.000000
20566.000000,45128.000000,55409.000000,15819.000000
20437.000000,45039.000000,55247.000000,15687.000000
20357.000000,44994.000000,55130.000000,15604.000000
20200.000000,44869.000000,54925.000000,15410.000000
20005.000000,44708.000000,54690.000000,15181.000000
19895.000000,44634.000000,54555.000000,15066.000000
19821.000000,44591.000000,54452.000000,14981.000000
19665.000000,44460.000000,54252.000000,14783.000000
19483.000000,44304.000000,54030.000000,14566.000000
19392.000000,44235.000000,53903.000000,14466.000000
19324.000000,44184.000000,53788.000000,14370.000000
19159.000000,44039.000000,53569.000000,14143.000000
18966.000000,43877.000000,53331.000000,13909.000000
18853.000000,43797.000000,53183.000000,13790.000000
18746.000000,43720.000000,53034.000000,13656.000000
18550.000000,43553.000000,52790.000000,13403.000000
18356.000000,43392.000000,52558.000000,13169.000000
18260.000000,43327.000000,52431.000000,13056.000000
18171.000000,43264.000000,52305.000000,12932.000000
18007.000000,43125.000000,52105.000000,12719.000000
17870.000000,43016.000000,51949.000000,12572.000000
17844.000000,43007.000000,51905.000000,12560.000000
17825.000000,42993.000000,51855.000000,12521.000000
17744.000000,42916.000000,51744.000000,12400.000000
17711.000000,42889.000000,51702.000000,12365.000000
17779.000000,42961.000000,51772.000000,12453.000000
17827.000000,43006.000000,51817.000000,12492.000000
17805.000000,42982.000000,51802.000000,12451.000000
17835.000000,43010.000000,51859.000000,12496.000000
17952.000000,43118.000000,52005.000000,12643.000000
18029.000000,43179.000000,52095.000000,12717.000000
18038.000000,43172.000000,52111.000000,12709.000000
18099.000000,43217.000000,52190.000000,12785.000000
18227.000000,43321.000000,52331.000000,12934.000000
18290.000000,43360.000000,52394.000000,12984.000000
18281.000000,43331.000000,52388.000000,12955.000000
18326.000000,43363.000000,52449.000000,13022.000000
18420.000000,43446.000000,52556.000000,13152.000000
18431.000000,43451.000000,52570.000000,13175.000000
18376.000000,43399.000000,52522.000000,13131.000000
18386.000000,43416.000000,52547.000000,13182.000000
18437.000000,43471.000000,52606.000000,13269.000000
18405.000000,43442.000000,52566.000000,13234.000000
18325.000000,43370.000000,52477.000000,13142.000000
18316.000000,43372.000000,52467.000000,13142.000000
18337.000000,43402.000000,52477.000000,13154.000000
18270.000000,43341.000000,52381.000000,13044.000000
18164.000000,43245.000000,52248.000000,12907.000000
18134.000000,43230.000000,52203.000000,12871.000000
18117.000000,43228.000000,52166.000000,12832.000000
17998.000000,43129.000000,52017.000000,12665.000000
17848.000000,43007.000000,51846.000000,12485.000000
17784.000000,42970.000000,51768.000000,12420.000000
17734.000000,42942.000000,51691.000000,12355.000000
17591.000000,42824.000000,51516.000000,12180.000000
17441.000000,42701.000000,51344.000000,12023.000000
17383.000000,42669.000000,51272.000000,11990.000000
17324.000000,42635.000000,51189.000000,11935.000000
17167.000000,42510.000000,51008.000000,11758.000000
17013.000000,42394.000000,50839.000000,11604.000000
16950.000000,42362.000000,50758.000000,11555.000000
16876.000000,42311.000000,50649.000000,11464.000000
16715.000000,42172.000000,50451.000000,11267.000000
16571.000000,42055.000000,50288.000000,11121.000000
16513.000000,42015.000000,50210.000000,11072.000000
16427.000000,41943.000000,50085.000000,10955.000000
16263.000000,41799.000000,49875.000000,10737.000000
16133.000000,41696.000000,49712.000000,10588.000000
16078.000000,41666.000000,49626.000000,10537.000000
15978.000000,41588.000000,49485.000000,10408.000000
15808.000000,41442.000000,49274.000000,10185.000000
15695.000000,41352.000000,49130.000000,10045.000000
15656.000000,41331.000000,49059.000000,9989.000000
15563.000000,41254.000000,48923.000000,9845.000000
15408.000000,41116.000000,48728.000000,9632.000000
15315.000000,41041.000000,48615.000000,9521.000000
15286.000000,41025.000000,48571.000000,9489.000000
15194.000000,40945.000000,48459.000000,9364.000000
15044.000000,40815.000000,48296.000000,9177.000000
14965.000000,40757.000000,48217.000000,9093.000000
14944.000000,40752.000000,48189.000000,9065.000000
14857.000000,40678.000000,48082.000000,8938.000000
14728.000000,40563.000000,47936.000000,8781.000000
14674.000000,40528.000000,47877.000000,8742.000000
14662.000000,40532.000000,47856.000000,8745.000000
14576.000000,40461.000000,47753.000000,8639.000000
14459.000000,40362.000000,47627.000000,8504.000000
14432.000000,40349.000000,47594.000000,8483.000000
14442.000000,40365.000000,47589.000000,8492.000000
14370.000000,40299.000000,47494.000000,8396.000000
14271.000000,40210.000000,47380.000000,8291.000000
14259.000000,40208.000000,47355.000000,8297.000000
14263.000000,40220.000000,47337.000000,8303.000000
14176.000000,40143.000000,47223.000000,8186.000000
14074.000000,40058.000000,47108.000000,8066.000000
14058.000000,40059.000000,47085.000000,8057.000000
14046.000000,40059.000000,47056.000000,8032.000000
13943.000000,39970.000000,46929.000000,7895.000000
13838.000000,39880.000000,46809.000000,7780.000000
13823.000000,39875.000000,46779.000000,7774.000000
13800.000000,39862.000000,46730.000000,7734.000000
13686.000000,39765.000000,46595.000000,7587.000000
13587.000000,39690.000000,46490.000000,7484.000000
13579.000000,39701.000000,46477.000000,7489.000000
13566.000000,39696.000000,46447.000000,7459.000000
13495.000000,39630.000000,46364.000000,7357.000000
13490.000000,39628.000000,46370.000000,7361.000000
13613.000000,39740.000000,46520.000000,7519.000000
13755.000000,39856.000000,46693.000000,7673.000000
13888.000000,39952.000000,46871.000000,7803.000000
14139.000000,40151.000000,47195.000000,8086.000000
14537.000000,40476.000000,47686.000000,8544.000000
14949.000000,40799.000000,48203.000000,9007.000000
15348.000000,41103.000000,48726.000000,9461.000000
15848.000000,41501.000000,49376.000000,10060.000000
16443.000000,41985.000000,50126.000000,10773.000000
16992.000000,42417.000000,50821.000000,11411.000000
17479.000000,42790.000000,51454.000000,11981.000000
18012.000000,43217.000000,52141.000000,12637.000000
18572.000000,43677.000000,52848.000000,13326.000000
19025.000000,44035.000000,53430.000000,13874.000000
19385.000000,44311.000000,53914.000000,14323.000000
19769.000000,44619.000000,54423.000000,14821.000000
20147.000000,44923.000000,54906.000000,15301.000000
20397.000000,45106.000000,55236.000000,15611.000000
20560.000000,45216.000000,55473.000000,15826.000000
20754.000000,45371.000000,55742.000000,16092.000000
20932.000000,45518.000000,55976.000000,16322.000000
20986.000000,45548.000000,56059.000000,16385.000000
20978.000000,45525.000000,56074.000000,16385.000000
21024.000000,45562.000000,56139.000000,16457.000000
21061.000000,45595.000000,56180.000000,16498.000000
20987.000000,45525.000000,56095.000000,16394.000000
20872.000000,45426.000000,55973.000000,16258.000000
20815.000000,45392.000000,55906.000000,16199.000000
20749.000000,45346.000000,55807.000000,16102.000000
20585.000000,45204.000000,55592.000000,15874.000000
20404.000000,45053.000000,55367.000000,15648.000000
20296.000000,44976.000000,55220.000000,15521.000000
20174.000000,44887.000000,55047.000000,15368.000000
19962.000000,44715.000000,54778.000000,15117.000000
19760.000000,44556.000000,54528.000000,14910.000000
19643.000000,44476.000000,54363.000000,14806.000000
19510.000000,44376.000000,54177.000000,14655.000000
19304.000000,44208.000000,53923.000000,14407.000000
19129.000000,44072.000000,53712.000000,14212.000000
19035.000000,44008.000000,53578.000000,14108.000000
18909.000000,43907.000000,53397.000000,13938.000000
18705.000000,43733.000000,53136.000000,13679.000000
18531.000000,43596.000000,52921.000000,13483.000000
18424.000000,43520.000000,52774.000000,13360.000000
18271.000000,43393.000000,52567.000000,13160.000000
18056.000000,43205.000000,52296.000000,12886.000000
17902.000000,43074.000000,52094.000000,12702.000000
17820.000000,43012.000000,51962.000000,12598.000000
17687.000000,42904.000000,51774.000000,12417.000000
17500.000000,42750.000000,51539.000000,12184.000000
17383.000000,42666.000000,51392.000000,12054.000000
17331.000000,42641.000000,51310.000000,11993.000000
17223.000000,42560.000000,51167.000000,11854.000000
17073.000000,42442.000000,50997.000000,11684.000000
17005.000000,42400.000000,50927.000000,11627.000000
17006.000000,42415.000000,50920.000000,11632.000000
16961.000000,42376.000000,50850.000000,11556.000000
16894.000000,42316.000000,50767.000000,11465.000000
16921.000000,42346.000000,50800.000000,11504.000000
17004.000000,42420.000000,50888.000000,11599.000000
17023.000000,42423.000000,50902.000000,11610.000000
17021.000000,42406.000000,50900.000000,11608.000000
17110.000000,42479.000000,50997.000000,11713.000000
17225.000000,42579.000000,51121.000000,11831.000000
17252.000000,42598.000000,51159.000000,11841.000000
17261.000000,42604.000000,51188.000000,11849.000000
17363.000000,42696.000000,51313.000000,11973.000000
17482.000000,42798.000000,51446.000000,12094.000000
17510.000000,42809.000000,51483.000000,12101.000000
17524.000000,42808.000000,51512.000000,12114.000000
17612.000000,42878.000000,51617.000000,12224.000000
17685.000000,42936.000000,51698.000000,12301.000000
17658.000000,42904.000000,51674.000000,12257.000000
17617.000000,42870.000000,51648.000000,12226.000000
17642.000000,42903.000000,51689.000000,12284.000000
17643.000000,42909.000000,51689.000000,12286.000000
17548.000000,42826.000000,51584.000000,12168.000000
17461.000000,42752.000000,51492.000000,12079.000000
17446.000000,42743.000000,51470.000000,12072.000000
17400.000000,42698.000000,51398.000000,12000.000000
17272.000000,42580.000000,51241.000000,11833.000000
17170.000000,42499.000000,51127.000000,11733.000000
17135.000000,42485.000000,51081.000000,11723.000000
17049.000000,42422.000000,50971.000000,11635.000000
16886.000000,42289.000000,50779.000000,11451.000000
16765.000000,42201.000000,50641.000000,11330.000000
16712.000000,42173.000000,50565.000000,11281.000000
16607.000000,42091.000000,50423.000000,11149.000000
16440.000000,41950.000000,50217.000000,10940.000000
16328.000000,41863.000000,50075.000000,10815.000000
16271.000000,41827.000000,49984.000000,10756.000000
16148.000000,41726.000000,49816.000000,10600.000000
15966.000000,41572.000000,49597.000000,10380.000000
15848.000000,41482.000000,49457.000000,10256.000000
15781.000000,41438.000000,49361.000000,10180.000000
15646.000000,41327.000000,49181.000000,9998.000000
15464.000000,41175.000000,48954.000000,9769.000000
15353.000000,41095.000000,48809.000000,9646.000000
15279.000000,41050.000000,48703.000000,9562.000000
15128.000000,40929.000000,48518.000000,9374.000000
14944.000000,40778.000000,48314.000000,9161.000000
14842.000000,40707.000000,48204.000000,9064.000000
14772.000000,40665.000000,48120.000000,8991.000000
14625.000000,40547.000000,47946.000000,8804.000000
14459.000000,40412.000000,47758.000000,8608.000000
14383.000000,40360.000000,47664.000000,8527.000000
14332.000000,40326.000000,47583.000000,8454.000000
14200.000000,40213.000000,47416.000000,8279.000000
14064.000000,40099.000000,47254.000000,8118.000000
14022.000000,40074.000000,47189.000000,8076.000000
13988.000000,40056.000000,47126.000000,8027.000000
13872.000000,39958.000000,46978.000000,7866.000000
13757.000000,39861.000000,46841.000000,7727.000000
13726.000000,39841.000000,46794.000000,7701.000000
13688.000000,39811.000000,46734.000000,7653.000000
13567.000000,39706.000000,46591.000000,7506.000000
13459.000000,39617.000000,46469.000000,7396.000000
13430.000000,39600.000000,46422.000000,7381.000000
13379.000000,39563.000000,46342.000000,7318.000000
13252.000000,39460.000000,46188.000000,7161.000000
13155.000000,39391.000000,46078.000000,7061.000000
13133.000000,39391.000000,46043.000000,7053.000000
13078.000000,39352.000000,45958.000000,6979.000000
12952.000000,39247.000000,45801.000000,6820.000000
12872.000000,39190.000000,45706.000000,6740.000000
12865.000000,39200.000000,45689.000000,6749.000000
12813.000000,39164.000000,45620.000000,6683.000000
12699.000000,39074.000000,45495.000000,6543.000000
12645.000000,39041.000000,45439.000000,6486.000000
12659.000000,39066.000000,45445.000000,6497.000000
12618.000000,39035.000000,45384.000000,6420.000000
12527.000000,38955.000000,45277.000000,6296.000000
12514.000000,38948.000000,45262.000000,6288.000000
12575.000000,39005.000000,45321.000000,6359.000000
12600.000000,39021.000000,45343.000000,6367.000000
12620.000000,39026.000000,45378.000000,6379.000000
12764.000000,39142.000000,45559.000000,6550.000000
13013.000000,39344.000000,45856.000000,6826.000000
13252.000000,39525.000000,46156.000000,7070.000000
13511.000000,39722.000000,46507.000000,7360.000000
13902.000000,40041.000000,47023.000000,7836.000000
14379.000000,40429.000000,47636.000000,8402.000000
14820.000000,40768.000000,48214.000000,8905.000000
15264.000000,41104.000000,48811.000000,9430.000000
15809.000000,41539.000000,49524.000000,10096.000000
16380.000000,41997.000000,50252.000000,10779.000000
16851.000000,42361.000000,50866.000000,11340.000000
17277.000000,42692.000000,51433.000000,11878.000000
17757.000000,43083.000000,52048.000000,12494.000000
18207.000000,43448.000000,52612.000000,13056.000000
18522.000000,43689.000000,53025.000000,13450.000000
18795.000000,43901.000000,53399.000000,13813.000000
19127.000000,44181.000000,53828.000000,14246.000000
19407.000000,44413.000000,54173.000000,14580.000000
19525.000000,44495.000000,54336.000000,14710.000000
19600.000000,44549.000000,54459.000000,14817.000000
19739.000000,44672.000000,54637.000000,15002.000000
19820.000000,44744.000000,54730.000000,15086.000000
19759.000000,44686.000000,54664.000000,15004.000000
19691.000000,44635.000000,54602.000000,14952.000000
19701.000000,44660.000000,54613.000000,14997.000000
19655.000000,44628.000000,54541.000000,14939.000000
19494.000000,44492.000000,54346.000000,14742.000000
19369.000000,44403.000000,54202.000000,14620.000000
19330.000000,44397.000000,54144.000000,14603.000000
19225.000000,44319.000000,54002.000000,14479.000000
19020.000000,44146.000000,53756.000000,14237.000000
18859.000000,44022.000000,53568.000000,14073.000000
18757.000000,43953.000000,53436.000000,13978.000000
18584.000000,43812.000000,53218.000000,13774.000000
18339.000000,43603.000000,52925.000000,13484.000000
18147.000000,43454.000000,52697.000000,13276.000000
18007.000000,43355.000000,52520.000000,13124.000000
17799.000000,43184.000000,52260.000000,12867.000000
17537.000000,42958.000000,51941.000000,12550.000000
17349.000000,42802.000000,51701.000000,12338.000000
17217.000000,42700.000000,51513.000000,12179.000000
17020.000000,42535.000000,51247.000000,11927.000000
16789.000000,42341.000000,50953.000000,11652.000000
16645.000000,42230.000000,50759.000000,11502.000000
16547.000000,42158.000000,50611.000000,11396.000000
16375.000000,42011.000000,50382.000000,11187.000000
16180.000000,41845.000000,50140.000000,10960.000000
16083.000000,41775.000000,50013.000000,10859.000000
16029.000000,41743.000000,49928.000000,10789.000000
15899.000000,41638.000000,49763.000000,10615.000000
15758.000000,41527.000000,49603.000000,10451.000000
15724.000000,41513.000000,49560.000000,10424.000000
15726.000000,41526.000000,49544.000000,10417.000000
15654.000000,41468.000000,49452.000000,10316.000000
15587.000000,41421.000000,49379.000000,10246.000000
15627.000000,41473.000000,49425.000000,10316.000000
15686.000000,41534.000000,49488.000000,10389.000000
15674.000000,41521.000000,49483.000000,10366.000000
15688.000000,41527.000000,49519.000000,10389.000000
15812.000000,41631.000000,49672.000000,10547.000000
15943.000000,41734.000000,49820.000000,10689.000000
15997.000000,41762.000000,49891.000000,10738.000000
16072.000000,41815.000000,49998.000000,10839.000000
16231.000000,41946.000000,50193.000000,11035.000000
16362.000000,42047.000000,50345.000000,11164.000000
16406.000000,42067.000000,50405.000000,11194.000000
16476.000000,42117.000000,50499.000000,11283.000000
16612.000000,42231.000000,50656.000000,11450.000000
16691.000000,42292.000000,50740.000000,11527.000000
16681.000000,42274.000000,50733.000000,11503.000000
16706.000000,42295.000000,50771.000000,11544.000000
16787.000000,42366.000000,50864.000000,11652.000000
16798.000000,42368.000000,50875.000000,11659.000000
16728.000000,42299.000000,50804.000000,11574.000000
16707.000000,42286.000000,50790.000000,11563.000000
16738.000000,42323.000000,50824.000000,11608.000000
16693.000000,42285.000000,50766.000000,11542.000000
16577.000000,42181.000000,50635.000000,11400.000000
16521.000000,42143.000000,50575.000000,11350.000000
16512.000000,42152.000000,50557.000000,11353.000000
16423.000000,42082.000000,50445.000000,11246.000000
16279.000000,41962.000000,50278.000000,11084.000000
16207.000000,41913.000000,50189.000000,11024.000000
16172.000000,41899.000000,50128.000000,10996.000000
16043.000000,41798.000000,49967.000000,10846.000000
15861.000000,41658.000000,49766.000000,10657.000000
15760.000000,41603.000000,49664.000000,10586.000000
15697.000000,41579.000000,49591.000000,10543.000000
15550.000000,41465.000000,49421.000000,10379.000000
15381.000000,41329.000000,49232.000000,10197.000000
15313.000000,41286.000000,49145.000000,10138.000000
15272.000000,41261.000000,49066.000000,10084.000000
15134.000000,41142.000000,48880.000000,9905.000000
14977.000000,41009.000000,48687.000000,9727.000000
14914.000000,40967.000000,48599.000000,9669.000000
