660nm,730nm,850nm,940nm
19203.000000,36705.000000,44911.000000,33588.000000
19179.000000,36677.000000,44835.000000,33534.000000
19118.000000,36596.000000,44702.000000,33405.000000
19040.000000,36498.000000,44553.000000,33261.000000
18997.000000,36454.000000,44464.000000,33198.000000
18966.000000,36426.000000,44393.000000,33152.000000
18899.000000,36347.000000,44268.000000,33032.000000
18828.000000,36264.000000,44141.000000,32910.000000
18800.000000,36241.000000,44077.000000,32871.000000
18781.000000,36228.000000,44019.000000,32829.000000
18727.000000,36162.000000,43902.000000,32704.000000
18669.000000,36092.000000,43787.000000,32587.000000
18648.000000,36076.000000,43731.000000,32556.000000
18629.000000,36057.000000,43670.000000,32513.000000
18571.000000,35979.000000,43551.000000,32392.000000
18519.000000,35906.000000,43444.000000,32293.000000
18508.000000,35892.000000,43400.000000,32279.000000
18495.000000,35872.000000,43346.000000,32243.000000
18442.000000,35799.000000,43236.000000,32134.000000
18393.000000,35739.000000,43144.000000,32051.000000
18379.000000,35731.000000,43107.000000,32034.000000
18356.000000,35709.000000,43047.000000,31979.000000
18298.000000,35638.000000,42931.000000,31855.000000
18249.000000,35585.000000,42837.000000,31769.000000
18232.000000,35573.000000,42790.000000,31744.000000
18198.000000,35536.000000,42714.000000,31674.000000
18131.000000,35454.000000,42589.000000,31544.000000
18082.000000,35397.000000,42497.000000,31461.000000
18066.000000,35383.000000,42449.000000,31434.000000
18032.000000,35340.000000,42362.000000,31356.000000
17971.000000,35259.000000,42235.000000,31231.000000
17930.000000,35211.000000,42153.000000,31164.000000
17916.000000,35201.000000,42106.000000,31137.000000
17877.000000,35150.000000,42006.000000,31038.000000
17810.000000,35064.000000,41871.000000,30896.000000
17771.000000,35022.000000,41790.000000,30828.000000
17756.000000,35009.000000,41745.000000,30800.000000
17708.000000,34947.000000,41645.000000,30700.000000
17638.000000,34856.000000,41512.000000,30563.000000
17601.000000,34817.000000,41434.000000,30502.000000
17583.000000,34806.000000,41381.000000,30471.000000
17531.000000,34742.000000,41271.000000,30364.000000
17460.000000,34654.000000,41139.000000,30234.000000
17423.000000,34615.000000,41058.000000,30177.000000
17399.000000,34594.000000,40991.000000,30135.000000
17340.000000,34518.000000,40862.000000,30013.000000
17268.000000,34426.000000,40718.000000,29877.000000
17233.000000,34387.000000,40634.000000,29822.000000
17208.000000,34361.000000,40563.000000,29777.000000
17149.000000,34283.000000,40435.000000,29655.000000
17083.000000,34200.000000,40304.000000,29532.000000
17053.000000,34173.000000,40234.000000,29492.000000
17030.000000,34152.000000,40167.000000,29452.000000
16973.000000,34079.000000,40041.000000,29331.000000
16915.000000,34002.000000,39922.000000,29220.000000
16893.000000,33977.000000,39867.000000,29193.000000
16870.000000,33950.000000,39808.000000,29151.000000
16811.000000,33869.000000,39685.000000,29029.000000
16755.000000,33796.000000,39571.000000,28923.000000
16738.000000,33779.000000,39518.000000,28892.000000
16720.000000,33754.000000,39453.000000,28838.000000
16663.000000,33674.000000,39333.000000,28714.000000
16610.000000,33607.000000,39232.000000,28620.000000
16593.000000,33591.000000,39184.000000,28596.000000
16568.000000,33561.000000,39113.000000,28531.000000
16509.000000,33483.000000,38991.000000,28397.000000
16461.000000,33427.000000,38897.000000,28303.000000
16444.000000,33416.000000,38851.000000,28275.000000
16411.000000,33378.000000,38775.000000,28206.000000
16348.000000,33296.000000,38652.000000,28084.000000
16303.000000,33242.000000,38564.000000,28015.000000
16290.000000,33229.000000,38519.000000,27997.000000
16256.000000,33183.000000,38433.000000,27918.000000
16193.000000,33098.000000,38302.000000,27787.000000
16150.000000,33049.000000,38214.000000,27719.000000
16132.000000,33034.000000,38162.000000,27695.000000
16089.000000,32977.000000,38061.000000,27600.000000
16022.000000,32891.000000,37925.000000,27464.000000
15982.000000,32851.000000,37842.000000,27403.000000
15962.000000,32840.000000,37790.000000,27381.000000
15912.000000,32778.000000,37682.000000,27283.000000
15844.000000,32689.000000,37544.000000,27150.000000
15809.000000,32650.000000,37463.000000,27090.000000
15794.000000,32636.000000,37405.000000,27052.000000
15746.000000,32568.000000,37289.000000,26937.000000
15680.000000,32476.000000,37151.000000,26797.000000
15644.000000,32436.000000,37071.000000,26733.000000
15624.000000,32414.000000,37009.000000,26690.000000
15575.000000,32348.000000,36899.000000,26580.000000
15524.000000,32283.000000,36800.000000,26479.000000
15520.000000,32292.000000,36794.000000,26485.000000
15547.000000,32341.000000,36846.000000,26538.000000
15569.000000,32375.000000,36901.000000,26567.000000
15622.000000,32447.000000,37028.000000,26665.000000
15749.000000,32619.000000,37297.000000,26917.000000
15919.000000,32838.000000,37647.000000,27232.000000
16091.000000,33045.000000,38012.000000,27526.000000
16294.000000,33292.000000,38448.000000,27882.000000
16563.000000,33622.000000,39000.000000,28364.000000
16849.000000,33964.000000,39582.000000,28866.000000
17108.000000,34261.000000,40127.000000,29312.000000
17376.000000,34567.000000,40697.000000,29791.000000
17682.000000,34924.000000,41325.000000,30348.000000
17974.000000,35260.000000,41925.000000,30871.000000
18213.000000,35524.000000,42441.000000,31307.000000
18443.000000,35787.000000,42944.000000,31749.000000
18691.000000,36080.000000,43459.000000,32226.000000
18905.000000,36330.000000,43903.000000,32630.000000
19061.000000,36505.000000,44249.000000,32929.000000
19208.000000,36676.000000,44575.000000,33229.000000
19364.000000,36866.000000,44901.000000,33548.000000
19477.000000,37003.000000,45149.000000,33781.000000
19537.000000,37073.000000,45314.000000,33925.000000
19601.000000,37152.000000,45482.000000,34092.000000
19684.000000,37255.000000,45661.000000,34280.000000
19735.000000,37310.000000,45772.000000,34381.000000
19750.000000,37318.000000,45827.000000,34414.000000
19785.000000,37357.000000,45916.000000,34501.000000
19844.000000,37427.000000,46037.000000,34625.000000
19875.000000,37453.000000,46109.000000,34677.000000
19887.000000,37451.000000,46154.000000,34690.000000
19936.000000,37506.000000,46260.000000,34787.000000
20013.000000,37600.000000,46407.000000,34938.000000
20061.000000,37651.000000,46508.000000,35029.000000
20093.000000,37679.000000,46589.000000,35093.000000
20166.000000,37764.000000,46733.000000,35232.000000
20261.000000,37877.000000,46904.000000,35398.000000
20321.000000,37937.000000,47021.000000,35492.000000
20364.000000,37977.000000,47122.000000,35570.000000
20447.000000,38069.000000,47280.000000,35725.000000
20544.000000,38176.000000,47449.000000,35893.000000
20600.000000,38229.000000,47558.000000,35981.000000
20642.000000,38267.000000,47655.000000,36058.000000
20718.000000,38356.000000,47806.000000,36207.000000
20792.000000,38448.000000,47952.000000,36349.000000
20816.000000,38477.000000,48022.000000,36394.000000
20822.000000,38491.000000,48070.000000,36425.000000
20853.000000,38543.000000,48157.000000,36517.000000
20876.000000,38580.000000,48213.000000,36579.000000
20846.000000,38544.000000,48172.000000,36531.000000
20804.000000,38497.000000,48106.000000,36469.000000
20787.000000,38490.000000,48073.000000,36463.000000
20756.000000,38459.000000,48003.000000,36416.000000
20674.000000,38356.000000,47850.000000,36265.000000
20588.000000,38247.000000,47691.000000,36115.000000
20537.000000,38186.000000,47577.000000,36024.000000
20476.000000,38111.000000,47440.000000,35898.000000
20375.000000,37987.000000,47248.000000,35703.000000
20283.000000,37882.000000,47079.000000,35549.000000
20232.000000,37831.000000,46969.000000,35471.000000
20174.000000,37764.000000,46842.000000,35360.000000
20089.000000,37661.000000,46679.000000,35196.000000
20030.000000,37594.000000,46560.000000,35088.000000
20014.000000,37580.000000,46503.000000,35051.000000
19986.000000,37547.000000,46431.000000,34977.000000
19934.000000,37481.000000,46333.000000,34866.000000
19908.000000,37454.000000,46286.000000,34829.000000
19919.000000,37472.000000,46290.000000,34856.000000
19913.000000,37458.000000,46262.000000,34825.000000
19881.000000,37414.000000,46207.000000,34752.000000
19876.000000,37413.000000,46205.000000,34755.000000
19895.000000,37445.000000,46236.000000,34809.000000
19881.000000,37430.000000,46213.000000,34791.000000
19841.000000,37382.000000,46159.000000,34727.000000
19833.000000,37380.000000,46158.000000,34730.000000
19846.000000,37404.000000,46180.000000,34760.000000
19822.000000,37372.000000,46135.000000,34707.000000
19774.000000,37308.000000,46052.000000,34617.000000
19757.000000,37288.000000,46012.000000,34594.000000
19757.000000,37285.000000,45981.000000,34584.000000
19719.000000,37226.000000,45887.000000,34489.000000
19664.000000,37147.000000,45773.000000,34373.000000
19639.000000,37119.000000,45710.000000,34331.000000
19623.000000,37103.000000,45653.000000,34295.000000
19567.000000,37031.000000,45528.000000,34180.000000
19499.000000,36947.000000,45392.000000,34057.000000
19465.000000,36916.000000,45314.000000,34010.000000
19437.000000,36889.000000,45238.000000,33961.000000
19368.000000,36804.000000,45102.000000,33828.000000
19295.000000,36712.000000,44967.000000,33698.000000
19258.000000,36674.000000,44892.000000,33646.000000
19220.000000,36633.000000,44811.000000,33582.000000
19140.000000,36537.000000,44664.000000,33435.000000
19064.000000,36449.000000,44524.000000,33309.000000
19029.000000,36420.000000,44448.000000,33267.000000
18995.000000,36385.000000,44365.000000,33209.000000
18924.000000,36296.000000,44228.000000,33072.000000
18861.000000,36220.000000,44109.000000,32959.000000
18838.000000,36202.000000,44049.000000,32917.000000
18807.000000,36169.000000,43971.000000,32845.000000
18739.000000,36084.000000,43845.000000,32708.000000
18686.000000,36022.000000,43747.000000,32614.000000
18671.000000,36011.000000,43702.000000,32590.000000
18641.000000,35980.000000,43633.000000,32530.000000
18579.000000,35908.000000,43519.000000,32417.000000
18538.000000,35868.000000,43442.000000,32356.000000
18533.000000,35875.000000,43415.000000,32352.000000
18507.000000,35852.000000,43353.000000,32290.000000
18450.000000,35781.000000,43247.000000,32172.000000
18414.000000,35739.000000,43180.000000,32110.000000
18406.000000,35732.000000,43146.000000,32094.000000
18374.000000,35685.000000,43060.000000,32015.000000
18317.000000,35603.000000,42938.000000,31895.000000
18286.000000,35566.000000,42870.000000,31848.000000
18278.000000,35564.000000,42838.000000,31840.000000
18239.000000,35516.000000,42749.000000,31757.000000
18178.000000,35437.000000,42625.000000,31634.000000
18149.000000,35408.000000,42555.000000,31583.000000
18138.000000,35404.000000,42511.000000,31562.000000
18091.000000,35347.000000,42411.000000,31464.000000
18023.000000,35262.000000,42288.000000,31340.000000
17989.000000,35226.000000,42224.000000,31288.000000
17971.000000,35208.000000,42176.000000,31253.000000
17917.000000,35137.000000,42067.000000,31140.000000
17850.000000,35050.000000,41941.000000,31015.000000
17820.000000,35017.000000,41874.000000,30972.000000
17800.000000,34998.000000,41817.000000,30938.000000
17746.000000,34926.000000,41699.000000,30823.000000
17682.000000,34843.000000,41575.000000,30702.000000
17655.000000,34812.000000,41512.000000,30661.000000
17635.000000,34788.000000,41452.000000,30623.000000
17580.000000,34711.000000,41335.000000,30507.000000
17522.000000,34635.000000,41224.000000,30400.000000
17500.000000,34615.000000,41176.000000,30377.000000
17479.000000,34593.000000,41120.000000,30339.000000
17419.000000,34517.000000,41003.000000,30216.000000
17360.000000,34447.000000,40895.000000,30104.000000
17338.000000,34433.000000,40849.000000,30069.000000
17314.000000,34408.000000,40790.000000,30014.000000
17253.000000,34330.000000,40674.000000,29890.000000
17199.000000,34268.000000,40575.000000,29798.000000
17183.000000,34259.000000,40530.000000,29777.000000
17160.000000,34236.000000,40462.000000,29719.000000
17103.000000,34165.000000,40343.000000,29592.000000
17056.000000,34115.000000,40250.000000,29506.000000
17044.000000,34109.000000,40208.000000,29485.000000
17019.000000,34076.000000,40138.000000,29420.000000
16965.000000,33996.000000,40020.000000,29294.000000
16927.000000,33941.000000,39936.000000,29218.000000
16916.000000,33923.000000,39893.000000,29196.000000
16883.000000,33873.000000,39809.000000,29117.000000
16823.000000,33786.000000,39683.000000,28988.000000
16784.000000,33738.000000,39602.000000,28924.000000
16769.000000,33731.000000,39559.000000,28912.000000
16728.000000,33687.000000,39464.000000,28834.000000
16663.000000,33610.000000,39334.000000,28713.000000
16625.000000,33576.000000,39257.000000,28661.000000
16609.000000,33571.000000,39212.000000,28644.000000
16562.000000,33518.000000,39114.000000,28551.000000
16495.000000,33436.000000,38986.000000,28421.000000
16461.000000,33402.000000,38914.000000,28367.000000
16445.000000,33394.000000,38862.000000,28340.000000
16394.000000,33336.000000,38751.000000,28235.000000
16326.000000,33257.000000,38619.000000,28107.000000
16289.000000,33228.000000,38545.000000,28056.000000
16268.000000,33215.000000,38487.000000,28020.000000
16215.000000,33150.000000,38371.000000,27905.000000
16154.000000,33068.000000,38243.000000,27780.000000
16128.000000,33035.000000,38172.000000,27737.000000
16111.000000,33012.000000,38107.000000,27697.000000
16065.000000,32938.000000,37990.000000,27579.000000
16018.000000,32865.000000,37884.000000,27475.000000
16019.000000,32860.000000,37865.000000,27476.000000
16038.000000,32882.000000,37886.000000,27504.000000
16042.000000,32883.000000,37897.000000,27493.000000
16073.000000,32926.000000,37975.000000,27547.000000
16173.000000,33068.000000,38187.000000,27744.000000
16306.000000,33250.000000,38470.000000,27993.000000
16439.000000,33415.000000,38765.000000,28228.000000
16612.000000,33624.000000,39135.000000,28540.000000
16854.000000,33921.000000,39623.000000,28976.000000
17112.000000,34232.000000,40142.000000,29424.000000
17346.000000,34503.000000,40638.000000,29829.000000
17595.000000,34795.000000,41174.000000,30284.000000
17884.000000,35139.000000,41767.000000,30814.000000
18160.000000,35462.000000,42329.000000,31305.000000
18393.000000,35727.000000,42823.000000,31722.000000
18627.000000,36001.000000,43320.000000,32161.000000
18879.000000,36300.000000,43836.000000,32632.000000
19093.000000,36548.000000,44281.000000,33023.000000
19254.000000,36722.000000,44634.000000,33324.000000
19413.000000,36896.000000,44976.000000,33643.000000
19579.000000,37087.000000,45317.000000,33975.000000
19699.000000,37219.000000,45576.000000,34210.000000
19768.000000,37291.000000,45757.000000,34360.000000
19843.000000,37381.000000,45944.000000,34543.000000
19927.000000,37485.000000,46133.000000,34742.000000
19970.000000,37531.000000,46242.000000,34842.000000
19983.000000,37537.000000,46296.000000,34880.000000
20025.000000,37586.000000,46393.000000,34976.000000
20086.000000,37666.000000,46513.000000,35094.000000
20112.000000,37693.000000,46571.000000,35133.000000
20117.000000,37691.000000,46595.000000,35141.000000
20160.000000,37743.000000,46676.000000,35226.000000
20227.000000,37819.000000,46786.000000,35340.000000
20260.000000,37845.000000,46850.000000,35385.000000
20280.000000,37856.000000,46906.000000,35423.000000
20342.000000,37927.000000,47030.000000,35549.000000
20420.000000,38018.000000,47179.000000,35696.000000
20463.000000,38060.000000,47276.000000,35776.000000
20498.000000,38093.000000,47365.000000,35856.000000
20573.000000,38183.000000,47517.000000,36018.000000
20657.000000,38284.000000,47676.000000,36182.000000
20701.000000,38329.000000,47771.000000,36262.000000
20736.000000,38367.000000,47856.000000,36331.000000
20808.000000,38454.000000,47992.000000,36470.000000
20876.000000,38539.000000,48112.000000,36591.000000
20897.000000,38559.000000,48153.000000,36614.000000
20908.000000,38566.000000,48179.000000,36629.000000
20945.000000,38612.000000,48244.000000,36702.000000
20963.000000,38634.000000,48270.000000,36735.000000
20925.000000,38580.000000,48204.000000,36664.000000
20876.000000,38519.000000,48123.000000,36588.000000
20853.000000,38498.000000,48073.000000,36555.000000
20810.000000,38451.000000,47983.000000,36467.000000
20718.000000,38339.000000,47819.000000,36290.000000
20627.000000,38235.000000,47662.000000,36143.000000
20570.000000,38176.000000,47550.000000,36064.000000
20501.000000,38097.000000,47409.000000,35945.000000
20402.000000,37978.000000,47220.000000,35764.000000
20325.000000,37891.000000,47069.000000,35637.000000
20288.000000,37858.000000,46979.000000,35580.000000
20240.000000,37807.000000,46872.000000,35483.000000
20167.000000,37720.000000,46739.000000,35344.000000
20123.000000,37670.000000,46658.000000,35275.000000
20118.000000,37666.000000,46631.000000,35269.000000
20094.000000,37637.000000,46574.000000,35208.000000
20049.000000,37580.000000,46489.000000,35107.000000
20037.000000,37569.000000,46462.000000,35083.000000
20055.000000,37592.000000,46476.000000,35109.000000
20044.000000,37568.000000,46442.000000,35065.000000
20006.000000,37516.000000,46377.000000,34988.000000
20002.000000,37517.000000,46371.000000,34993.000000
20021.000000,37549.000000,46398.000000,35036.000000
20003.000000,37528.000000,46367.000000,35003.000000
19964.000000,37477.000000,46307.000000,34937.000000
19961.000000,37476.000000,46298.000000,34940.000000
19976.000000,37494.000000,46303.000000,34957.000000
19951.000000,37456.000000,46243.000000,34891.000000
19903.000000,37391.000000,46157.000000,34801.000000
19886.000000,37372.000000,46119.000000,34781.000000
19875.000000,37362.000000,46085.000000,34762.000000
19823.000000,37294.000000,45982.000000,34658.000000
19759.000000,37213.000000,45861.000000,34545.000000
19727.000000,37182.000000,45792.000000,34505.000000
19697.000000,37154.000000,45722.000000,34456.000000
19625.000000,37068.000000,45585.000000,34320.000000
19546.000000,36975.000000,45444.000000,34188.000000
19510.000000,36938.000000,45360.000000,34133.000000
19478.000000,36903.000000,45273.000000,34066.000000
19407.000000,36814.000000,45124.000000,33915.000000
19337.000000,36731.000000,44984.000000,33781.000000
19308.000000,36708.000000,44909.000000,33730.000000
19275.000000,36676.000000,44827.000000,33662.000000
19203.000000,36587.000000,44689.000000,33521.000000
19136.000000,36507.000000,44570.000000,33406.000000
19110.000000,36482.000000,44509.000000,33362.000000
19077.000000,36444.000000,44427.000000,33288.000000
19007.000000,36357.000000,44288.000000,33146.000000
18949.000000,36289.000000,44173.000000,33041.000000
18930.000000,36272.000000,44111.000000,33007.000000
18901.000000,36234.000000,44026.000000,32940.000000
18839.000000,36151.000000,43899.000000,32820.000000
18796.000000,36097.000000,43809.000000,32748.000000
18787.000000,36089.000000,43767.000000,32732.000000
18759.000000,36051.000000,43693.000000,32663.000000
18697.000000,35972.000000,43579.000000,32543.000000
18655.000000,35925.000000,43506.000000,32484.000000
18641.000000,35916.000000,43471.000000,32472.000000
18603.000000,35868.000000,43389.000000,32392.000000
18539.000000,35787.000000,43271.000000,32267.000000
18501.000000,35750.000000,43204.000000,32211.000000
18485.000000,35745.000000,43168.000000,32196.000000
18438.000000,35695.000000,43077.000000,32113.000000
18371.000000,35619.000000,42954.000000,31995.000000
18339.000000,35594.000000,42887.000000,31952.000000
18331.000000,35597.000000,42849.000000,31941.000000
18290.000000,35548.000000,42752.000000,31850.000000
18230.000000,35472.000000,42629.000000,31728.000000
18206.000000,35445.000000,42562.000000,31682.000000
18199.000000,35437.000000,42513.000000,31657.000000
18154.000000,35374.000000,42406.000000,31552.000000
18095.000000,35293.000000,42287.000000,31429.000000
18069.000000,35264.000000,42229.000000,31382.000000
18053.000000,35247.000000,42178.000000,31346.000000
17999.000000,35177.000000,42064.000000,31232.000000
17938.000000,35097.000000,41941.000000,31117.000000
17915.000000,35070.000000,41878.000000,31083.000000
17894.000000,35048.000000,41818.000000,31047.000000
17832.000000,34971.000000,41698.000000,30927.000000
17765.000000,34892.000000,41579.000000,30811.000000
17739.000000,34867.000000,41520.000000,30774.000000
17713.000000,34839.000000,41455.000000,30721.000000
17651.000000,34753.000000,41327.000000,30585.000000
17594.000000,34673.000000,41210.000000,30467.000000
17578.000000,34652.000000,41157.000000,30434.000000
17560.000000,34626.000000,41093.000000,30386.000000
17503.000000,34545.000000,40968.000000,30268.000000
17453.000000,34478.000000,40859.000000,30179.000000
17440.000000,34467.000000,40805.000000,30161.000000
17418.000000,34439.000000,40731.000000,30108.000000
17357.000000,34358.000000,40604.000000,29987.000000
17306.000000,34298.000000,40501.000000,29905.000000
17286.000000,34285.000000,40447.000000,29885.000000
17253.000000,34245.000000,40365.000000,29816.000000
17191.000000,34160.000000,40241.000000,29683.000000
17147.000000,34101.000000,40154.000000,29602.000000
17135.000000,34085.000000,40112.000000,29578.000000
17105.000000,34042.000000,40033.000000,29501.000000
17050.000000,33966.000000,39916.000000,29378.000000
17018.000000,33927.000000,39844.000000,29322.000000
17012.000000,33924.000000,39807.000000,29314.000000
16978.000000,33880.000000,39719.000000,29234.000000
16916.000000,33803.000000,39595.000000,29107.000000
16880.000000,33770.000000,39523.000000,29052.000000
16865.000000,33766.000000,39485.000000,29036.000000
16818.000000,33714.000000,39392.000000,28944.000000
16749.000000,33635.000000,39269.000000,28816.000000
16713.000000,33606.000000,39203.000000,28766.000000
16698.000000,33603.000000,39163.000000,28745.000000
16649.000000,33547.000000,39064.000000,28650.000000
16583.000000,33466.000000,38945.000000,28531.000000
16554.000000,33437.000000,38885.000000,28493.000000
16543.000000,33428.000000,38842.000000,28473.000000
16501.000000,33368.000000,38737.000000,28373.000000
16447.000000,33291.000000,38618.000000,28263.000000
16426.000000,33266.000000,38559.000000,28235.000000
16412.000000,33251.000000,38510.000000,28213.000000
16363.000000,33181.000000,38400.000000,28106.000000
16305.000000,33103.000000,38284.000000,27991.000000
16284.000000,33080.000000,38227.000000,27953.000000
16270.000000,33063.000000,38167.000000,27907.000000
16221.000000,32991.000000,38043.000000,27777.000000
16166.000000,32917.000000,37923.000000,27656.000000
16141.000000,32897.000000,37867.000000,27618.000000
16113.000000,32873.000000,37807.000000,27571.000000
16053.000000,32797.000000,37693.000000,27449.000000
16005.000000,32738.000000,37605.000000,27359.000000
16011.000000,32752.000000,37608.000000,27367.000000
16032.000000,32781.000000,37641.000000,27389.000000
16044.000000,32791.000000,37677.000000,27388.000000
16097.000000,32854.000000,37801.000000,27475.000000
16223.000000,33014.000000,38053.000000,27695.000000
16378.000000,33203.000000,38358.000000,27948.000000
16537.000000,33387.000000,38686.000000,28204.000000
16742.000000,33635.000000,39110.000000,28565.000000
17009.000000,33962.000000,39640.000000,29039.000000
17276.000000,34284.000000,40185.000000,29508.000000
17522.000000,34575.000000,40720.000000,29949.000000
17794.000000,34906.000000,41308.000000,30459.000000
18100.000000,35281.000000,41940.000000,31027.000000
18382.000000,35617.000000,42520.000000,31533.000000
18629.000000,35899.000000,43039.000000,31979.000000
18885.000000,36201.000000,43577.000000,32469.000000
19149.000000,36516.000000,44118.000000,32977.000000
19363.000000,36762.000000,44569.000000,33382.000000
19530.000000,36945.000000,44943.000000,33705.000000
19704.000000,37145.000000,45325.000000,34060.000000
19878.000000,37352.000000,45691.000000,34410.000000
19997.000000,37487.000000,45958.000000,34646.000000
20074.000000,37570.000000,46157.000000,34810.000000
20172.000000,37684.000000,46373.000000,35014.000000
20278.000000,37806.000000,46581.000000,35215.000000
20339.000000,37861.000000,46706.000000,35315.000000
20376.000000,37884.000000,46794.000000,35380.000000
20443.000000,37952.000000,46925.000000,35516.000000
20520.000000,38034.000000,47065.000000,35668.000000
20559.000000,38064.000000,47147.000000,35745.000000
20589.000000,38082.000000,47221.000000,35815.000000
20660.000000,38159.000000,47359.000000,35966.000000
20743.000000,38253.000000,47512.000000,36126.000000
20791.000000,38301.000000,47614.000000,36207.000000
20837.000000,38345.000000,47720.000000,36289.000000
20927.000000,38447.000000,47893.000000,36457.000000
21026.000000,38554.000000,48068.000000,36625.000000
21088.000000,38611.000000,48183.000000,36712.000000
21149.000000,38674.000000,48307.000000,36811.000000
21250.000000,38796.000000,48493.000000,36997.000000
21350.000000,38910.000000,48672.000000,37171.000000
21405.000000,38964.000000,48788.000000,37264.000000
21461.000000,39024.000000,48913.000000,37370.000000
21555.000000,39135.000000,49092.000000,37540.000000
21634.000000,39225.000000,49244.000000,37670.000000
21662.000000,39252.000000,49324.000000,37714.000000
21693.000000,39282.000000,49404.000000,37777.000000
21756.000000,39353.000000,49512.000000,37889.000000
21796.000000,39392.000000,49564.000000,37939.000000
21782.000000,39366.000000,49535.000000,37899.000000
21768.000000,39349.000000,49507.000000,37878.000000
21774.000000,39361.000000,49498.000000,37899.000000
21745.000000,39327.000000,49430.000000,37849.000000
21667.000000,39232.000000,49294.000000,37721.000000
21596.000000,39155.000000,49173.000000,37627.000000
21549.000000,39109.000000,49076.000000,37563.000000
21473.000000,39020.000000,48923.000000,37417.000000
21363.000000,38885.000000,48722.000000,37214.000000
21277.000000,38787.000000,48563.000000,37076.000000
21222.000000,38729.000000,48440.000000,36985.000000
21143.000000,38632.000000,48272.000000,36831.000000
21049.000000,38509.000000,48085.000000,36650.000000
20997.000000,38442.000000,47969.000000,36560.000000
20976.000000,38417.000000,47898.000000,36520.000000
20924.000000,38352.000000,47785.000000,36416.000000
20855.000000,38271.000000,47661.000000,36296.000000
20830.000000,38251.000000,47609.000000,36263.000000
20831.000000,38265.000000,47595.000000,36263.000000
20800.000000,38232.000000,47536.000000,36191.000000
20755.000000,38183.000000,47470.000000,36104.000000
20750.000000,38192.000000,47471.000000,36102.000000
20760.000000,38221.000000,47491.000000,36119.000000
20733.000000,38197.000000,47454.000000,36058.000000
20697.000000,38155.000000,47406.000000,35988.000000
20700.000000,38162.000000,47412.000000,35997.000000
20708.000000,38175.000000,47419.000000,36006.000000
20674.000000,38129.000000,47355.000000,35934.000000
20633.000000,38072.000000,47277.000000,35866.000000
20630.000000,38069.000000,47251.000000,35873.000000
20626.000000,38062.000000,47215.000000,35860.000000
20574.000000,37992.000000,47110.000000,35755.000000
20518.000000,37922.000000,47005.000000,35656.000000
20497.000000,37905.000000,46956.000000,35631.000000
20469.000000,37876.000000,46893.000000,35581.000000
20397.000000,37787.000000,46766.000000,35447.000000
20330.000000,37706.000000,46648.000000,35332.000000
20302.000000,37678.000000,46583.000000,35289.000000
20263.000000,37635.000000,46493.000000,35213.000000
20181.000000,37539.000000,46343.000000,35063.000000
20108.000000,37458.000000,46213.000000,34948.000000
20075.000000,37426.000000,46136.000000,34898.000000
20028.000000,37371.000000,46035.000000,34812.000000
19946.000000,37270.000000,45885.000000,34667.000000
19882.000000,37197.000000,45767.000000,34566.000000
19855.000000,37171.000000,45695.000000,34522.000000
19812.000000,37119.000000,45589.000000,34428.000000
19738.000000,37029.000000,45445.000000,34279.000000
19685.000000,36974.000000,45348.000000,34193.000000
19664.000000,36959.000000,45295.000000,34159.000000
19620.000000,36908.000000,45200.000000,34060.000000
19548.000000,36819.000000,45071.000000,33916.000000
19504.000000,36772.000000,44996.000000,33846.000000
19484.000000,36760.000000,44953.000000,33820.000000
19434.000000,36703.000000,44852.000000,33719.000000
19365.000000,36613.000000,44713.000000,33578.000000
19333.000000,36572.000000,44627.000000,33514.000000
19323.000000,36560.000000,44573.000000,33486.000000
19276.000000,36498.000000,44465.000000,33387.000000
19206.000000,36409.000000,44333.000000,33263.000000
19173.000000,36373.000000,44258.000000,33216.000000
19159.000000,36357.000000,44204.000000,33189.000000
19111.000000,36289.000000,44093.000000,33079.000000
19047.000000,36203.000000,43965.000000,32948.000000
19018.000000,36170.000000,43896.000000,32893.000000
19000.000000,36149.000000,43838.000000,32850.000000
18945.000000,36073.000000,43720.000000,32730.000000
18879.000000,35988.000000,43593.000000,32605.000000
18849.000000,35958.000000,43528.000000,32566.000000
18823.000000,35936.000000,43468.000000,32528.000000
18758.000000,35857.000000,43350.000000,32407.000000
18689.000000,35776.000000,43233.000000,32290.000000
18659.000000,35754.000000,43177.000000,32257.000000
18633.000000,35733.000000,43116.000000,32215.000000
18568.000000,35660.000000,42990.000000,32094.000000
18506.000000,35594.000000,42872.000000,31987.000000
18486.000000,35586.000000,42818.000000,31961.000000
18462.000000,35569.000000,42753.000000,31913.000000
18400.000000,35492.000000,42629.000000,31786.000000
18346.000000,35425.000000,42519.000000,31681.000000
18331.000000,35411.000000,42464.000000,31645.000000
18307.000000,35378.000000,42386.000000,31574.000000
18244.000000,35289.000000,42252.000000,31435.000000
18191.000000,35219.000000,42143.000000,31337.000000
18172.000000,35199.000000,42086.000000,31305.000000
18137.000000,35159.000000,42001.000000,31235.000000
18070.000000,35074.000000,41867.000000,31110.000000
18021.000000,35013.000000,41769.000000,31033.000000
18005.000000,34996.000000,41720.000000,31010.000000
17966.000000,34948.000000,41637.000000,30932.000000
17894.000000,34861.000000,41510.000000,30802.000000
17845.000000,34811.000000,41424.000000,30735.000000
17826.000000,34798.000000,41375.000000,30711.000000
17785.000000,34749.000000,41278.000000,30617.000000
17717.000000,34666.000000,41144.000000,30480.000000
17677.000000,34628.000000,41063.000000,30420.000000
17660.000000,34620.000000,41015.000000,30403.000000
17614.000000,34561.000000,40909.000000,30309.000000
17549.000000,34471.000000,40770.000000,30172.000000
17520.000000,34433.000000,40689.000000,30106.000000
17510.000000,34424.000000,40638.000000,30068.000000
17461.000000,34362.000000,40532.000000,29953.000000
17389.000000,34271.000000,40404.000000,29816.000000
17353.000000,34230.000000,40333.000000,29757.000000
17334.000000,34211.000000,40280.000000,29719.000000
17281.000000,34141.000000,40169.000000,29605.000000
17215.000000,34055.000000,40045.000000,29478.000000
17183.000000,34023.000000,39981.000000,29430.000000
17160.000000,34003.000000,39929.000000,29390.000000
17104.000000,33933.000000,39818.000000,29270.000000
17042.000000,33857.000000,39701.000000,29152.000000
17018.000000,33837.000000,39643.000000,29123.000000
16997.000000,33821.000000,39587.000000,29095.000000
16942.000000,33751.000000,39470.000000,28986.000000
16886.000000,33681.000000,39357.000000,28885.000000
16867.000000,33666.000000,39307.000000,28863.000000
16848.000000,33647.000000,39249.000000,28827.000000
16793.000000,33570.000000,39127.000000,28710.000000
16741.000000,33499.000000,39015.000000,28609.000000
16725.000000,33482.000000,38963.000000,28584.000000
16701.000000,33453.000000,38892.000000,28535.000000
16633.000000,33368.000000,38758.000000,28409.000000
16568.000000,33296.000000,38641.000000,28306.000000
16540.000000,33278.000000,38582.000000,28266.000000
16506.000000,33244.000000,38499.000000,28188.000000
16436.000000,33160.000000,38363.000000,28043.000000
16377.000000,33098.000000,38254.000000,27938.000000
16349.000000,33081.000000,38197.000000,27897.000000
16309.000000,33037.000000,38110.000000,27813.000000
16240.000000,32948.000000,37978.000000,27673.000000
16193.000000,32890.000000,37883.000000,27590.000000
16180.000000,32880.000000,37839.000000,27570.000000
16155.000000,32844.000000,37769.000000,27505.000000
16114.000000,32785.000000,37686.000000,27415.000000
16116.000000,32790.000000,37693.000000,27427.000000
16174.000000,32866.000000,37796.000000,27535.000000
16242.000000,32945.000000,37921.000000,27631.000000
16324.000000,33039.000000,38091.000000,27752.000000
16474.000000,33227.000000,38398.000000,28018.000000
16682.000000,33491.000000,38814.000000,28393.000000
16888.000000,33746.000000,39244.000000,28754.000000
17101.000000,34001.000000,39702.000000,29128.000000
17373.000000,34329.000000,40263.000000,29614.000000
17682.000000,34699.000000,40880.000000,30157.000000
17962.000000,35023.000000,41455.000000,30641.000000
18224.000000,35321.000000,42011.000000,31109.000000
18518.000000,35661.000000,42616.000000,31652.000000
18817.000000,36007.000000,43217.000000,32197.000000
19062.000000,36282.000000,43728.000000,32640.000000
19275.000000,36518.000000,44187.000000,33042.000000
19506.000000,36782.000000,44663.000000,33492.000000
19723.000000,37028.000000,45101.000000,33908.000000
19875.000000,37193.000000,45428.000000,34198.000000
19996.000000,37325.000000,45701.000000,34441.000000
20134.000000,37486.000000,45989.000000,34725.000000
20256.000000,37627.000000,46237.000000,34964.000000
20320.000000,37689.000000,46389.000000,35084.000000
20368.000000,37737.000000,46518.000000,35186.000000
20447.000000,37831.000000,46686.000000,35346.000000
20516.000000,37913.000000,46825.000000,35475.000000
20537.000000,37929.000000,46886.000000,35514.000000
20556.000000,37947.000000,46949.000000,35571.000000
20616.000000,38023.000000,47073.000000,35705.000000
20673.000000,38093.000000,47186.000000,35820.000000
20694.000000,38112.000000,47250.000000,35870.000000
20732.000000,38151.000000,47345.000000,35958.000000
20816.000000,38249.000000,47505.000000,36119.000000
20893.000000,38333.000000,47651.000000,36249.000000
20939.000000,38374.000000,47754.000000,36322.000000
21005.000000,38444.000000,47893.000000,36445.000000
21112.000000,38566.000000,48088.000000,36634.000000
21201.000000,38663.000000,48253.000000,36777.000000
21256.000000,38713.000000,48369.000000,36865.000000
21330.000000,38792.000000,48519.000000,37006.000000
21435.000000,38910.000000,48707.000000,37194.000000
21512.000000,38991.000000,48850.000000,37314.000000
21552.000000,39030.000000,48947.000000,37381.000000
21613.000000,39102.000000,49080.000000,37508.000000
21695.000000,39201.000000,49232.000000,37665.000000
21740.000000,39244.000000,49310.000000,37732.000000
21747.000000,39242.000000,49332.000000,37735.000000
21773.000000,39270.000000,49384.000000,37788.000000
21806.000000,39309.000000,49439.000000,37851.000000
21786.000000,39276.000000,49400.000000,37808.000000
21726.000000,39196.000000,49296.000000,37701.000000
21687.000000,39153.000000,49216.000000,37639.000000
21654.000000,39123.000000,49131.000000,37575.000000
21571.000000,39030.000000,48968.000000,37417.000000
21464.000000,38909.000000,48772.000000,37230.000000
21392.000000,38835.000000,48626.000000,37116.000000
21334.000000,38776.000000,48491.000000,37014.000000
21239.000000,38664.000000,48298.000000,36834.000000
21133.000000,38543.000000,48101.000000,36649.000000
21073.000000,38481.000000,47976.000000,36554.000000
21031.000000,38435.000000,47875.000000,36474.000000
20958.000000,38343.000000,47731.000000,36326.000000
20887.000000,38259.000000,47605.000000,36198.000000
20867.000000,38244.000000,47561.000000,36171.000000
20857.000000,38241.000000,47531.000000,36151.000000
20814.000000,38191.000000,47454.000000,36063.000000
20776.000000,38152.000000,47395.000000,36000.000000
20787.000000,38178.000000,47411.000000,36029.000000
20800.000000,38201.000000,47424.000000,36046.000000
20774.000000,38165.000000,47380.000000,35984.000000
20754.000000,38137.000000,47349.000000,35944.000000
20775.000000,38165.000000,47375.000000,35980.000000
20787.000000,38179.000000,47380.000000,35989.000000
20755.000000,38137.000000,47325.000000,35925.000000
20730.000000,38108.000000,47286.000000,35890.000000
20740.000000,38124.000000,47294.000000,35914.000000
20733.000000,38113.000000,47270.000000,35890.000000
20686.000000,38049.000000,47190.000000,35799.000000
20653.000000,38007.000000,47135.000000,35749.000000
20650.000000,38007.000000,47117.000000,35757.000000
20622.000000,37975.000000,47054.000000,35707.000000
20558.000000,37893.000000,46935.000000,35595.000000
20511.000000,37839.000000,46849.000000,35531.000000
20492.000000,37821.000000,46800.000000,35505.000000
20448.000000,37766.000000,46704.000000,35404.000000
20375.000000,37674.000000,46567.000000,35257.000000
20327.000000,37623.000000,46477.000000,35178.000000
20304.000000,37606.000000,46421.000000,35140.000000
20248.000000,37542.000000,46309.000000,35028.000000
20169.000000,37445.000000,46162.000000,34877.000000
20126.000000,37396.000000,46069.000000,34801.000000
20106.000000,37377.000000,46005.000000,34760.000000
20049.000000,37306.000000,45885.000000,34643.000000
19971.000000,37208.000000,45738.000000,34498.000000
19933.000000,37162.000000,45649.000000,34432.000000
19917.000000,37141.000000,45585.000000,34391.000000
19863.000000,37071.000000,45467.000000,34278.000000
19791.000000,36982.000000,45336.000000,34150.000000
19753.000000,36948.000000,45267.000000,34103.000000
19727.000000,36930.000000,45214.000000,34072.000000
19666.000000,36860.000000,45105.000000,33964.000000
19597.000000,36782.000000,44991.000000,33854.000000
19570.000000,36763.000000,44938.000000,33825.000000
19553.000000,36753.000000,44891.000000,33797.000000
19499.000000,36686.000000,44786.000000,33689.000000
19442.000000,36618.000000,44680.000000,33587.000000
19425.000000,36607.000000,44634.000000,33572.000000
19410.000000,36592.000000,44585.000000,33547.000000
19356.000000,36518.000000,44476.000000,33436.000000
19304.000000,36452.000000,44381.000000,33343.000000
19294.000000,36446.000000,44354.000000,33335.000000
19280.000000,36432.000000,44313.000000,33307.000000
19222.000000,36360.000000,44208.000000,33200.000000
19168.000000,36298.000000,44118.000000,33114.000000
19155.000000,36290.000000,44085.000000,33096.000000
19135.000000,36268.000000,44027.000000,33042.000000
19078.000000,36194.000000,43913.000000,32920.000000
19033.000000,36140.000000,43824.000000,32835.000000
19026.000000,36135.000000,43786.000000,32815.000000
19004.000000,36107.000000,43718.000000,32756.000000
18948.000000,36034.000000,43599.000000,32643.000000
18906.000000,35988.000000,43515.000000,32580.000000
18894.000000,35985.000000,43479.000000,32570.000000
18865.000000,35954.000000,43406.000000,32504.000000
18807.000000,35879.000000,43291.000000,32387.000000
18771.000000,35835.000000,43218.000000,32328.000000
18764.000000,35827.000000,43182.000000,32312.000000
18732.000000,35781.000000,43096.000000,32223.000000
18673.000000,35700.000000,42969.000000,32084.000000
18637.000000,35659.000000,42891.000000,32017.000000
18620.000000,35648.000000,42846.000000,31997.000000
18571.000000,35591.000000,42747.000000,31906.000000
18502.000000,35505.000000,42618.000000,31780.000000
18468.000000,35474.000000,42550.000000,31733.000000
18457.000000,35474.000000,42512.000000,31722.000000
18410.000000,35421.000000,42417.000000,31635.000000
18344.000000,35337.000000,42297.000000,31518.000000
18313.000000,35302.000000,42233.000000,31473.000000
18301.000000,35288.000000,42183.000000,31447.000000
18252.000000,35224.000000,42071.000000,31344.000000
18188.000000,35146.000000,41943.000000,31228.000000
18159.000000,35121.000000,41877.000000,31195.000000
18142.000000,35107.000000,41824.000000,31168.000000
18089.000000,35037.000000,41712.000000,31056.000000
18029.000000,34958.000000,41595.000000,30940.000000
18007.000000,34933.000000,41541.000000,30904.000000
17992.000000,34917.000000,41493.000000,30863.000000
17940.000000,34847.000000,41385.000000,30738.000000
17884.000000,34774.000000,41279.000000,30620.000000
17864.000000,34754.000000,41233.000000,30588.000000
17842.000000,34727.000000,41173.000000,30544.000000
17778.000000,34642.000000,41047.000000,30415.000000
17715.000000,34561.000000,40929.000000,30302.000000
17691.000000,34538.000000,40873.000000,30271.000000
17662.000000,34510.000000,40804.000000,30221.000000
17597.000000,34431.000000,40675.000000,30096.000000
17539.000000,34365.000000,40562.000000,29999.000000
17519.000000,34353.000000,40504.000000,29975.000000
17491.000000,34325.000000,40425.000000,29917.000000
17427.000000,34244.000000,40293.000000,29786.000000
17374.000000,34182.000000,40191.000000,29693.000000
17355.000000,34166.000000,40139.000000,29663.000000
17319.000000,34125.000000,40055.000000,29587.000000
17249.000000,34035.000000,39922.000000,29450.000000
17197.000000,33974.000000,39826.000000,29366.000000
17179.000000,33961.000000,39779.000000,29344.000000
17147.000000,33923.000000,39703.000000,29269.000000
17094.000000,33853.000000,39603.000000,29151.000000
17079.000000,33834.000000,39575.000000,29117.000000
17110.000000,33875.000000,39625.000000,29167.000000
17142.000000,33905.000000,39673.000000,29190.000000
17180.000000,33940.000000,39748.000000,29222.000000
17283.000000,34067.000000,39948.000000,29392.000000
17443.000000,34270.000000,40254.000000,29666.000000
17604.000000,34461.000000,40572.000000,29922.000000
17775.000000,34656.000000,40922.000000,30195.000000
18010.000000,34932.000000,41385.000000,30593.000000
18283.000000,35259.000000,41918.000000,31062.000000
18531.000000,35546.000000,42421.000000,31486.000000
18766.000000,35812.000000,42918.000000,31906.000000
19039.000000,36129.000000,43476.000000,32411.000000
19322.000000,36458.000000,44041.000000,32927.000000
19555.000000,36723.000000,44527.000000,33346.000000
19759.000000,36958.000000,44974.000000,33732.000000
19984.000000,37227.000000,45451.000000,34175.000000
20199.000000,37484.000000,45898.000000,34595.000000
20352.000000,37656.000000,46240.000000,34897.000000
20477.000000,37792.000000,46531.000000,35161.000000
20626.000000,37959.000000,46838.000000,35468.000000
20763.000000,38105.000000,47105.000000,35730.000000
20842.000000,38175.000000,47274.000000,35867.000000
20904.000000,38230.000000,47417.000000,35979.000000
20996.000000,38329.000000,47600.000000,36151.000000
21075.000000,38415.000000,47753.000000,36297.000000
21101.000000,38436.000000,47826.000000,36350.000000
21125.000000,38462.000000,47899.000000,36417.000000
21189.000000,38548.000000,48030.000000,36561.000000
21249.000000,38627.000000,48143.000000,36678.000000
21271.000000,38653.000000,48198.000000,36717.000000
21307.000000,38696.000000,48276.000000,36789.000000
21390.000000,38794.000000,48417.000000,36932.000000
21464.000000,38875.000000,48541.000000,37038.000000
21500.000000,38908.000000,48620.000000,37086.000000
21553.000000,38966.000000,48733.000000,37187.000000
21647.000000,39073.000000,48900.000000,37357.000000
21723.000000,39154.000000,49037.000000,37475.000000
21763.000000,39188.000000,49128.000000,37533.000000
21823.000000,39255.000000,49257.000000,37649.000000
21915.000000,39365.000000,49426.000000,37821.000000
21982.000000,39438.000000,49548.000000,37928.000000
22015.000000,39465.000000,49623.000000,37975.000000
22068.000000,39524.000000,49733.000000,38078.000000
22140.000000,39610.000000,49865.000000,38214.000000
22170.000000,39637.000000,49922.000000,38257.000000
22162.000000,39613.000000,49915.000000,38234.000000
22176.000000,39624.000000,49935.000000,38266.000000
22201.000000,39651.000000,49957.000000,38314.000000
22172.000000,39607.000000,49888.000000,38255.000000
22102.000000,39515.000000,49757.000000,38132.000000
22058.000000,39462.000000,49657.000000,38058.000000
22023.000000,39425.000000,49561.000000,37990.000000
21938.000000,39328.000000,49392.000000,37825.000000
21830.000000,39203.000000,49194.000000,37627.000000
21759.000000,39127.000000,49050.000000,37505.000000
21701.000000,39064.000000,48921.000000,37397.000000
21605.000000,38950.000000,48737.000000,37214.000000
21502.000000,38828.000000,48553.000000,37031.000000
21445.000000,38771.000000,48445.000000,36944.000000
21407.000000,38733.000000,48363.000000,36875.000000
21337.000000,38649.000000,48236.000000,36741.000000
21269.000000,38573.000000,48121.000000,36623.000000
21252.000000,38566.000000,48083.000000,36606.000000
21246.000000,38569.000000,48058.000000,36595.000000
21202.000000,38520.000000,47980.000000,36510.000000
21164.000000,38479.000000,47916.000000,36445.000000
21173.000000,38502.000000,47925.000000,36471.000000
21185.000000,38523.000000,47932.000000,36487.000000
21159.000000,38486.000000,47881.000000,36427.000000
21140.000000,38457.000000,47845.000000,36390.000000
21164.000000,38484.000000,47870.000000,36425.000000
21176.000000,38497.000000,47873.000000,36426.000000
21141.000000,38449.000000,47811.000000,36346.000000
21111.000000,38413.000000,47762.000000,36294.000000
21115.000000,38425.000000,47760.000000,36308.000000
21102.000000,38412.000000,47724.000000,36278.000000
21048.000000,38344.000000,47626.000000,36175.000000
21005.000000,38295.000000,47552.000000,36114.000000
20993.000000,38290.000000,47522.000000,36113.000000
20959.000000,38253.000000,47452.000000,36052.000000
20887.000000,38164.000000,47329.000000,35925.000000
20833.000000,38104.000000,47240.000000,35849.000000
20811.000000,38083.000000,47186.000000,35819.000000
20763.000000,38024.000000,47083.000000,35718.000000
20685.000000,37925.000000,46936.000000,35567.000000
20633.000000,37865.000000,46833.000000,35487.000000
20608.000000,37840.000000,46764.000000,35454.000000
20553.000000,37769.000000,46643.000000,35345.000000
20474.000000,37668.000000,46493.000000,35195.000000
20429.000000,37618.000000,46402.000000,35120.000000
20410.000000,37600.000000,46346.000000,35083.000000
20358.000000,37532.000000,46236.000000,34973.000000
20285.000000,37438.000000,46099.000000,34835.000000
20251.000000,37400.000000,46022.000000,34778.000000
20237.000000,37392.000000,45972.000000,34747.000000
20186.000000,37334.000000,45866.000000,34637.000000
20118.000000,37258.000000,45745.000000,34510.000000
20088.000000,37235.000000,45686.000000,34466.000000
20072.000000,37227.000000,45642.000000,34436.000000
20016.000000,37164.000000,45538.000000,34323.000000
19950.000000,37089.000000,45424.000000,34202.000000
19925.000000,37071.000000,45372.000000,34168.000000
19910.000000,37062.000000,45325.000000,34139.000000
19855.000000,36994.000000,45216.000000,34028.000000
19797.000000,36922.000000,45107.000000,33925.000000
19781.000000,36908.000000,45064.000000,33914.000000
19769.000000,36895.000000,45019.000000,33895.000000
19716.000000,36824.000000,44911.000000,33791.000000
19664.000000,36755.000000,44812.000000,33702.000000
19654.000000,36747.000000,44777.000000,33698.000000
19640.000000,36732.000000,44731.000000,33676.000000
19584.000000,36655.000000,44621.000000,33575.000000
19534.000000,36588.000000,44524.000000,33497.000000
19527.000000,36580.000000,44488.000000,33490.000000
19511.000000,36561.000000,44432.000000,33445.000000
19453.000000,36486.000000,44316.000000,33321.000000
19402.000000,36426.000000,44221.000000,33229.000000
19389.000000,36416.000000,44183.000000,33206.000000
19363.000000,36384.000000,44117.000000,33140.000000
19300.000000,36303.000000,43995.000000,33008.000000
19254.000000,36247.000000,43901.000000,32922.000000
19241.000000,36237.000000,43853.000000,32895.000000
19206.000000,36196.000000,43767.000000,32816.000000
19137.000000,36109.000000,43636.000000,32685.000000
19091.000000,36057.000000,43551.000000,32615.000000
19076.000000,36046.000000,43511.000000,32598.000000
19037.000000,35998.000000,43424.000000,32516.000000
18970.000000,35914.000000,43298.000000,32390.000000
18928.000000,35872.000000,43222.000000,32336.000000
18911.000000,35863.000000,43182.000000,32323.000000
18862.000000,35805.000000,43087.000000,32230.000000
18793.000000,35717.000000,42956.000000,32098.000000
18764.000000,35683.000000,42880.000000,32046.000000
18760.000000,35681.000000,42834.000000,32030.000000
18717.000000,35623.000000,42728.000000,31933.000000
18651.000000,35535.000000,42596.000000,31806.000000
18620.000000,35500.000000,42524.000000,31759.000000
18607.000000,35489.000000,42475.000000,31736.000000
18557.000000,35427.000000,42370.000000,31631.000000
18494.000000,35349.000000,42250.000000,31505.000000
18468.000000,35325.000000,42191.000000,31459.000000
18453.000000,35316.000000,42145.000000,31424.000000
18396.000000,35252.000000,42037.000000,31305.000000
18329.000000,35179.000000,41921.000000,31182.000000
18301.000000,35163.000000,41866.000000,31145.000000
18282.000000,35153.000000,41813.000000,31109.000000
18224.000000,35086.000000,41696.000000,30990.000000
18163.000000,35016.000000,41583.000000,30882.000000
18141.000000,34997.000000,41533.000000,30862.000000
18120.000000,34970.000000,41475.000000,30827.000000
18058.000000,34881.000000,41348.000000,30703.000000
17998.000000,34795.000000,41229.000000,30596.000000
17980.000000,34771.000000,41178.000000,30577.000000
17959.000000,34742.000000,41117.000000,30533.000000
17898.000000,34655.000000,40990.000000,30407.000000
17842.000000,34578.000000,40878.000000,30305.000000
17825.000000,34559.000000,40828.000000,30275.000000
17796.000000,34529.000000,40756.000000,30209.000000
17726.000000,34448.000000,40628.000000,30073.000000
17664.000000,34386.000000,40527.000000,29978.000000
17639.000000,34370.000000,40478.000000,29953.000000
17601.000000,34328.000000,40396.000000,29883.000000
17531.000000,34238.000000,40261.000000,29752.000000
17481.000000,34178.000000,40161.000000,29671.000000
17466.000000,34166.000000,40108.000000,29645.000000
17434.000000,34125.000000,40019.000000,29561.000000
17372.000000,34045.000000,39888.000000,29428.000000
17334.000000,34002.000000,39804.000000,29364.000000
17325.000000,34001.000000,39766.000000,29351.000000
17294.000000,33965.000000,39689.000000,29273.000000
17244.000000,33906.000000,39594.000000,29163.000000
17237.000000,33911.000000,39584.000000,29156.000000
17276.000000,33971.000000,39651.000000,29230.000000
17313.000000,34011.000000,39717.000000,29279.000000
17365.000000,34062.000000,39821.000000,29347.000000
17489.000000,34211.000000,40060.000000,29556.000000
17671.000000,34434.000000,40399.000000,29863.000000
17850.000000,34644.000000,40750.000000,30153.000000
18042.000000,34863.000000,41140.000000,30469.000000
18297.000000,35163.000000,41642.000000,30913.000000
18589.000000,35503.000000,42202.000000,31414.000000
18854.000000,35799.000000,42728.000000,31861.000000
19109.000000,36082.000000,43253.000000,32307.000000
19402.000000,36420.000000,43841.000000,32839.000000
19701.000000,36765.000000,44430.000000,33372.000000
19950.000000,37043.000000,44936.000000,33808.000000
20176.000000,37296.000000,45412.000000,34221.000000
20428.000000,37588.000000,45918.000000,34692.000000
20666.000000,37863.000000,46389.000000,35126.000000
20838.000000,38055.000000,46756.000000,35439.000000
20984.000000,38219.000000,47083.000000,35724.000000
21152.000000,38418.000000,47431.000000,36059.000000
21300.000000,38588.000000,47732.000000,36346.000000
21386.000000,38673.000000,47929.000000,36515.000000
21457.000000,38744.000000,48103.000000,36668.000000
21558.000000,38859.000000,48312.000000,36871.000000
21642.000000,38954.000000,48483.000000,37029.000000
21677.000000,38985.000000,48574.000000,37100.000000
21718.000000,39026.000000,48671.000000,37193.000000
21802.000000,39123.000000,48818.000000,37351.000000
21878.000000,39204.000000,48943.000000,37470.000000
21917.000000,39235.000000,49019.000000,37523.000000
21974.000000,39293.000000,49133.000000,37622.000000
22074.000000,39403.000000,49311.000000,37793.000000
22160.000000,39492.000000,49467.000000,37927.000000
22212.000000,39539.000000,49584.000000,38007.000000
22288.000000,39622.000000,49746.000000,38147.000000
22404.000000,39754.000000,49959.000000,38353.000000
22503.000000,39855.000000,50136.000000,38508.000000
22573.000000,39918.000000,50275.000000,38620.000000
22669.000000,40019.000000,50457.000000,38798.000000
22792.000000,40158.000000,50670.000000,39017.000000
22880.000000,40249.000000,50822.000000,39154.000000
22935.000000,40297.000000,50931.000000,39235.000000
23018.000000,40385.000000,51087.000000,39381.000000
23120.000000,40497.000000,51264.000000,39553.000000
23175.000000,40548.000000,51367.000000,39630.000000
23194.000000,40560.000000,51421.000000,39653.000000
23240.000000,40613.000000,51507.000000,39733.000000
23294.000000,40680.000000,51592.000000,39819.000000
23289.000000,40677.000000,51585.000000,39800.000000
23248.000000,40631.000000,51523.000000,39731.000000
23235.000000,40617.000000,51488.000000,39713.000000
23221.000000,40599.000000,51438.000000,39685.000000
23149.000000,40507.000000,51296.000000,39551.000000
23048.000000,40387.000000,51117.000000,39384.000000
22979.000000,40313.000000,50980.000000,39285.000000
22914.000000,40243.000000,50839.000000,39180.000000
22804.000000,40112.000000,50628.000000,38985.000000
22687.000000,39974.000000,50412.000000,38791.000000
22617.000000,39898.000000,50266.000000,38688.000000
22556.000000,39832.000000,50131.000000,38586.000000
22459.000000,39719.000000,49943.000000,38405.000000
22366.000000,39617.000000,49776.000000,38244.000000
22326.000000,39587.000000,49691.000000,38181.000000
22293.000000,39567.000000,49618.000000,38121.000000
22225.000000,39499.000000,49501.000000,37999.000000
22169.000000,39449.000000,49414.000000,37914.000000
22167.000000,39464.000000,49402.000000,37920.000000
22167.000000,39470.000000,49384.000000,37908.000000
22130.000000,39419.000000,49316.000000,37831.000000
22107.000000,39384.000000,49272.000000,37793.000000
22129.000000,39404.000000,49287.000000,37826.000000
22138.000000,39405.000000,49277.000000,37814.000000
22106.000000,39352.000000,49214.000000,37731.000000
22088.000000,39323.000000,49178.000000,37688.000000
22105.000000,39342.000000,49184.000000,37705.000000
22096.000000,39331.000000,49149.000000,37669.000000
22043.000000,39269.000000,49059.000000,37572.000000
22006.000000,39231.000000,49001.000000,37525.000000
21994.000000,39230.000000,48982.000000,37522.000000
21953.000000,39189.000000,48913.000000,37446.000000
21880.000000,39103.000000,48796.000000,37314.000000
21834.000000,39057.000000,48720.000000,37247.000000
21814.000000,39043.000000,48673.000000,37224.000000
21760.000000,38979.000000,48565.000000,37121.000000
21677.000000,38878.000000,48419.000000,36968.000000
21630.000000,38824.000000,48326.000000,36889.000000
21605.000000,38800.000000,48260.000000,36846.000000
21540.000000,38723.000000,48132.000000,36722.000000
21452.000000,38613.000000,47972.000000,36565.000000
21403.000000,38556.000000,47868.000000,36488.000000
21376.000000,38527.000000,47787.000000,36438.000000
21309.000000,38445.000000,47649.000000,36307.000000
21224.000000,38343.000000,47494.000000,36157.000000
21179.000000,38298.000000,47404.000000,36091.000000
21150.000000,38272.000000,47331.000000,36041.000000
21083.000000,38189.000000,47197.000000,35906.000000
21006.000000,38092.000000,47056.000000,35762.000000
20969.000000,38053.000000,46981.000000,35706.000000
20941.000000,38025.000000,46914.000000,35659.000000
20872.000000,37942.000000,46784.000000,35533.000000
20796.000000,37858.000000,46650.000000,35414.000000
20762.000000,37836.000000,46582.000000,35384.000000
20733.000000,37817.000000,46516.000000,35346.000000
20663.000000,37741.000000,46388.000000,35219.000000
20592.000000,37668.000000,46269.000000,35104.000000
20566.000000,37655.000000,46217.000000,35075.000000
20538.000000,37635.000000,46156.000000,35025.000000
20466.000000,37553.000000,46032.000000,34893.000000
20399.000000,37482.000000,45923.000000,34788.000000
20378.000000,37470.000000,45877.000000,34761.000000
20352.000000,37444.000000,45817.000000,34703.000000
20285.000000,37359.000000,45700.000000,34570.000000
20231.000000,37292.000000,45602.000000,34475.000000
20217.000000,37278.000000,45555.000000,34448.000000
20189.000000,37243.000000,45477.000000,34381.000000
20124.000000,37154.000000,45345.000000,34250.000000
20076.000000,37091.000000,45240.000000,34166.000000
20063.000000,37075.000000,45183.000000,34144.000000
20028.000000,37028.000000,45091.000000,34066.000000
19956.000000,36934.000000,44954.000000,33931.000000
19902.000000,36872.000000,44856.000000,33854.000000
19879.000000,36849.000000,44802.000000,33827.000000
19831.000000,36789.000000,44702.000000,33730.000000
19754.000000,36690.000000,44561.000000,33581.000000
19705.000000,36634.000000,44470.000000,33509.000000
19683.000000,36612.000000,44414.000000,33488.000000
19631.000000,36545.000000,44301.000000,33391.000000
19554.000000,36448.000000,44153.000000,33246.000000
19515.000000,36407.000000,44069.000000,33176.000000
19503.000000,36400.000000,44020.000000,33141.000000
19457.000000,36342.000000,43916.000000,33028.000000
19388.000000,36254.000000,43786.000000,32893.000000
19358.000000,36224.000000,43716.000000,32842.000000
19349.000000,36221.000000,43668.000000,32814.000000
19301.000000,36160.000000,43559.000000,32703.000000
19232.000000,36076.000000,43433.000000,32571.000000
19198.000000,36042.000000,43368.000000,32520.000000
19174.000000,36021.000000,43314.000000,32478.000000
19110.000000,35944.000000,43194.000000,32355.000000
19037.000000,35859.000000,43065.000000,32229.000000
19006.000000,35834.000000,42999.000000,32190.000000
18983.000000,35819.000000,42937.000000,32154.000000
18919.000000,35745.000000,42810.000000,32033.000000
18850.000000,35666.000000,42682.000000,31918.000000
18819.000000,35642.000000,42620.000000,31891.000000
18791.000000,35617.000000,42558.000000,31853.000000
18721.000000,35534.000000,42431.000000,31727.000000
18655.000000,35456.000000,42310.000000,31615.000000
18632.000000,35435.000000,42254.000000,31587.000000
18608.000000,35406.000000,42185.000000,31542.000000
18543.000000,35318.000000,42054.000000,31416.000000
18486.000000,35242.000000,41940.000000,31312.000000
18470.000000,35224.000000,41888.000000,31281.000000
18445.000000,35196.000000,41818.000000,31218.000000
18376.000000,35116.000000,41694.000000,31083.000000
18318.000000,35057.000000,41595.000000,30985.000000
18297.000000,35048.000000,41549.000000,30954.000000
18260.000000,35011.000000,41468.000000,30879.000000
18184.000000,34920.000000,41330.000000,30738.000000
18125.000000,34851.000000,41223.000000,30645.000000
18102.000000,34825.000000,41165.000000,30610.000000
18059.000000,34770.000000,41072.000000,30520.000000
17984.000000,34676.000000,40935.000000,30377.000000
17933.000000,34619.000000,40841.000000,30299.000000
17915.000000,34604.000000,40788.000000,30271.000000
17874.000000,34549.000000,40683.000000,30176.000000
17804.000000,34459.000000,40541.000000,30035.000000
17762.000000,34414.000000,40454.000000,29968.000000
17745.000000,34402.000000,40403.000000,29944.000000
17693.000000,34340.000000,40294.000000,29846.000000
17616.000000,34247.000000,40151.000000,29713.000000
17576.000000,34207.000000,40068.000000,29659.000000
17561.000000,34202.000000,40018.000000,29639.000000
17514.000000,34146.000000,39913.000000,29544.000000
17454.000000,34069.000000,39798.000000,29430.000000
17443.000000,34060.000000,39765.000000,29413.000000
17466.000000,34091.000000,39788.000000,29444.000000
17474.000000,34096.000000,39799.000000,29432.000000
17497.000000,34120.000000,39858.000000,29457.000000
17593.000000,34245.000000,40050.000000,29624.000000
17739.000000,34429.000000,40332.000000,29867.000000
17885.000000,34603.000000,40627.000000,30091.000000
18060.000000,34810.000000,40988.000000,30376.000000
18306.000000,35111.000000,41478.000000,30808.000000
18586.000000,35444.000000,42024.000000,31285.000000
18845.000000,35739.000000,42544.000000,31712.000000
19114.000000,36044.000000,43087.000000,32168.000000
19431.000000,36409.000000,43701.000000,32719.000000
19745.000000,36766.000000,44304.000000,33261.000000
20005.000000,37052.000000,44829.000000,33711.000000
20254.000000,37326.000000,45339.000000,34157.000000
20527.000000,37637.000000,45882.000000,34653.000000
20771.000000,37913.000000,46371.000000,35093.000000
20945.000000,38102.000000,46751.000000,35414.000000
21102.000000,38278.000000,47099.000000,35721.000000
21280.000000,38486.000000,47458.000000,36065.000000
21429.000000,38654.000000,47751.000000,36338.000000
21516.000000,38745.000000,47947.000000,36502.000000
21595.000000,38835.000000,48132.000000,36674.000000
21697.000000,38953.000000,48338.000000,36882.000000
21769.000000,39029.000000,48489.000000,37018.000000
21795.000000,39047.000000,48571.000000,37074.000000
21836.000000,39090.000000,48674.000000,37175.000000
21915.000000,39179.000000,48817.000000,37331.000000
21974.000000,39237.000000,48918.000000,37423.000000
22002.000000,39249.000000,48978.000000,37460.000000
22055.000000,39298.000000,49086.000000,37566.000000
22139.000000,39390.000000,49238.000000,37727.000000
22198.000000,39446.000000,49350.000000,37820.000000
22233.000000,39475.000000,49436.000000,37877.000000
22308.000000,39560.000000,49589.000000,38021.000000
22416.000000,39688.000000,49786.000000,38217.000000
22494.000000,39772.000000,49935.000000,38342.000000
22550.000000,39830.000000,50060.000000,38435.000000
22648.000000,39942.000000,50246.000000,38607.000000
22771.000000,40081.000000,50459.000000,38808.000000
22851.000000,40163.000000,50607.000000,38924.000000
22904.000000,40214.000000,50723.000000,39005.000000
22992.000000,40311.000000,50882.000000,39155.000000
23088.000000,40415.000000,51039.000000,39309.000000
23131.000000,40451.000000,51114.000000,39362.000000
23145.000000,40460.000000,51155.000000,39384.000000
23186.000000,40513.000000,51234.000000,39468.000000
23226.000000,40562.000000,51295.000000,39537.000000
23209.000000,40538.000000,51263.000000,39497.000000
23166.000000,40486.000000,51194.000000,39429.000000
23150.000000,40474.000000,51157.000000,39419.000000
23126.000000,40448.000000,51091.000000,39377.000000
23042.000000,40348.000000,50933.000000,39221.000000
22941.000000,40237.000000,50758.000000,39055.000000
22876.000000,40175.000000,50634.000000,38966.000000
22803.000000,40100.000000,50490.000000,38856.000000
22682.000000,39957.000000,50273.000000,38656.000000
22563.000000,39819.000000,50064.000000,38474.000000
22491.000000,39744.000000,49925.000000,38377.000000
22419.000000,39668.000000,49782.000000,38261.000000
22312.000000,39545.000000,49593.000000,38078.000000
22224.000000,39449.000000,49439.000000,37937.000000
22191.000000,39422.000000,49362.000000,37882.000000
22160.000000,39388.000000,49280.000000,37809.000000
22097.000000,39313.000000,49163.000000,37685.000000
22054.000000,39269.000000,49093.000000,37619.000000
22055.000000,39283.000000,49089.000000,37630.000000
22047.000000,39279.000000,49067.000000,37601.000000
22009.000000,39233.000000,49008.000000,37523.000000
21995.000000,39222.000000,48994.000000,37513.000000
22017.000000,39261.000000,49030.000000,37562.000000
22018.000000,39265.000000,49027.000000,37547.000000
21986.000000,39225.000000,48980.000000,37479.000000
21977.000000,39220.000000,48976.000000,37482.000000
21997.000000,39250.000000,49002.000000,37529.000000
21984.000000,39232.000000,48966.000000,37490.000000
21938.000000,39175.000000,48883.000000,37394.000000
21919.000000,39159.000000,48850.000000,37370.000000
21920.000000,39171.000000,48843.000000,37387.000000
21880.000000,39127.000000,48771.000000,37321.000000
21812.000000,39046.000000,48659.000000,37211.000000
21777.000000,39013.000000,48600.000000,37170.000000
21762.000000,39004.000000,48558.000000,37149.000000
21704.000000,38937.000000,48449.000000,37044.000000
21623.000000,38842.000000,48312.000000,36912.000000
21580.000000,38799.000000,48230.000000,36856.000000
21555.000000,38772.000000,48157.000000,36813.000000
21489.000000,38688.000000,48013.000000,36681.000000
21409.000000,38588.000000,47856.000000,36538.000000
21369.000000,38544.000000,47764.000000,36478.000000
21339.000000,38512.000000,47685.000000,36422.000000
21267.000000,38424.000000,47546.000000,36277.000000
21189.000000,38329.000000,47408.000000,36131.000000
21153.000000,38292.000000,47336.000000,36073.000000
21122.000000,38258.000000,47264.000000,36012.000000
21050.000000,38166.000000,47128.000000,35867.000000
20977.000000,38076.000000,46998.000000,35737.000000
20950.000000,38049.000000,46936.000000,35702.000000
20921.000000,38020.000000,46870.000000,35657.000000
20849.000000,37935.000000,46742.000000,35528.000000
20782.000000,37860.000000,46628.000000,35420.000000
20761.000000,37846.000000,46578.000000,35392.000000
20735.000000,37820.000000,46515.000000,35334.000000
20667.000000,37737.000000,46393.000000,35201.000000
20608.000000,37671.000000,46293.000000,35106.000000
20589.000000,37661.000000,46250.000000,35088.000000
20560.000000,37632.000000,46182.000000,35035.000000
20494.000000,37555.000000,46060.000000,34916.000000
20446.000000,37505.000000,45967.000000,34840.000000
20436.000000,37505.000000,45925.000000,34826.000000
20408.000000,37476.000000,45851.000000,34759.000000
20343.000000,37396.000000,45728.000000,34632.000000
20298.000000,37343.000000,45643.000000,34564.000000
20285.000000,37333.000000,45602.000000,34551.000000
20246.000000,37290.000000,45520.000000,34472.000000
20175.000000,37209.000000,45397.000000,34339.000000
20130.000000,37165.000000,45318.000000,34280.000000
20116.000000,37157.000000,45274.000000,34269.000000
20075.000000,37102.000000,45175.000000,34180.000000
20009.000000,37014.000000,45043.000000,34046.000000
19979.000000,36977.000000,44971.000000,33988.000000
19973.000000,36970.000000,44932.000000,33968.000000
19932.000000,36907.000000,44834.000000,33868.000000
19870.000000,36816.000000,44709.000000,33734.000000
19844.000000,36780.000000,44644.000000,33679.000000
19835.000000,36771.000000,44605.000000,33654.000000
19786.000000,36709.000000,44508.000000,33552.000000
19718.000000,36627.000000,44392.000000,33431.000000
19688.000000,36600.000000,44336.000000,33394.000000
19673.000000,36589.000000,44293.000000,33375.000000
19617.000000,36520.000000,44186.000000,33273.000000
19551.000000,36437.000000,44066.000000,33159.000000
19526.000000,36412.000000,44006.000000,33129.000000
19510.000000,36396.000000,43951.000000,33099.000000
19455.000000,36321.000000,43832.000000,32982.000000
19394.000000,36240.000000,43709.000000,32867.000000
19372.000000,36219.000000,43654.000000,32842.000000
19352.000000,36207.000000,43601.000000,32811.000000
19291.000000,36141.000000,43486.000000,32695.000000
19233.000000,36080.000000,43377.000000,32592.000000
19216.000000,36077.000000,43334.000000,32574.000000
19197.000000,36062.000000,43281.000000,32533.000000
19135.000000,35980.000000,43162.000000,32407.000000
19077.000000,35906.000000,43055.000000,32301.000000
19058.000000,35891.000000,43008.000000,32271.000000
19030.000000,35862.000000,42940.000000,32207.000000
18957.000000,35775.000000,42813.000000,32070.000000
18892.000000,35699.000000,42705.000000,31971.000000
18865.000000,35670.000000,42649.000000,31941.000000
18827.000000,35619.000000,42564.000000,31870.000000
18753.000000,35521.000000,42425.000000,31733.000000
18693.000000,35453.000000,42319.000000,31642.000000
18664.000000,35437.000000,42263.000000,31611.000000
18616.000000,35390.000000,42168.000000,31521.000000
18537.000000,35299.000000,42025.000000,31371.000000
18481.000000,35241.000000,41922.000000,31283.000000
18460.000000,35225.000000,41862.000000,31255.000000
18419.000000,35172.000000,41759.000000,31164.000000
18352.000000,35082.000000,41620.000000,31029.000000
18315.000000,35037.000000,41539.000000,30968.000000
18305.000000,35029.000000,41499.000000,30953.000000
18267.000000,34972.000000,41403.000000,30864.000000
18204.000000,34882.000000,41272.000000,30733.000000
18176.000000,34845.000000,41200.000000,30679.000000
18170.000000,34842.000000,41163.000000,30666.000000
18133.000000,34795.000000,41079.000000,30585.000000
18085.000000,34733.000000,40992.000000,30494.000000
18093.000000,34748.000000,41001.000000,30514.000000
18144.000000,34817.000000,41080.000000,30601.000000
18187.000000,34871.000000,41158.000000,30659.000000
18249.000000,34946.000000,41287.000000,30753.000000
18385.000000,35117.000000,41550.000000,30986.000000
18572.000000,35346.000000,41899.000000,31291.000000
18752.000000,35556.000000,42253.000000,31571.000000
18950.000000,35783.000000,42660.000000,31895.000000
19212.000000,36090.000000,43180.000000,32349.000000
19499.000000,36423.000000,43739.000000,32840.000000
19756.000000,36712.000000,44255.000000,33270.000000
20015.000000,37002.000000,44782.000000,33718.000000
20316.000000,37348.000000,45369.000000,34254.000000
20609.000000,37680.000000,45935.000000,34769.000000
20842.000000,37934.000000,46409.000000,35176.000000
21062.000000,38173.000000,46858.000000,35572.000000
21305.000000,38450.000000,47337.000000,36022.000000
21521.000000,38694.000000,47763.000000,36419.000000
21669.000000,38852.000000,48081.000000,36697.000000
21799.000000,38995.000000,48369.000000,36963.000000
21949.000000,39171.000000,48672.000000,37265.000000
22071.000000,39310.000000,48913.000000,37491.000000
22133.000000,39374.000000,49066.000000,37608.000000
22193.000000,39437.000000,49215.000000,37732.000000
22281.000000,39532.000000,49389.000000,37898.000000
22345.000000,39592.000000,49510.000000,38002.000000
22365.000000,39599.000000,49567.000000,38035.000000
22404.000000,39634.000000,49650.000000,38116.000000
22479.000000,39718.000000,49780.000000,38257.000000
22533.000000,39775.000000,49875.000000,38344.000000
22554.000000,39795.000000,49931.000000,38379.000000
22604.000000,39859.000000,50039.000000,38485.000000
22692.000000,39969.000000,50199.000000,38652.000000
22756.000000,40042.000000,50320.000000,38753.000000
22795.000000,40078.000000,50412.000000,38810.000000
22870.000000,40162.000000,50564.000000,38944.000000
22974.000000,40281.000000,50755.000000,39121.000000
23043.000000,40350.000000,50889.000000,39221.000000
23086.000000,40385.000000,50987.000000,39282.000000
23167.000000,40473.000000,51137.000000,39416.000000
23269.000000,40588.000000,51308.000000,39580.000000
23327.000000,40644.000000,51409.000000,39665.000000
23354.000000,40663.000000,51474.000000,39722.000000
23412.000000,40726.000000,51586.000000,39850.000000
23478.000000,40799.000000,51697.000000,39980.000000
23488.000000,40803.000000,51725.000000,40002.000000
23464.000000,40774.000000,51709.000000,39979.000000
23466.000000,40785.000000,51724.000000,40007.000000
23462.000000,40791.000000,51719.000000,40014.000000
23399.000000,40718.000000,51618.000000,39907.000000
23312.000000,40618.000000,51478.000000,39769.000000
23256.000000,40562.000000,51373.000000,39691.000000
23196.000000,40501.000000,51245.000000,39588.000000
23084.000000,40374.000000,51035.000000,39385.000000
22965.000000,40243.000000,50815.000000,39184.000000
22889.000000,40171.000000,50658.000000,39067.000000
22817.000000,40098.000000,50503.000000,38940.000000
22707.000000,39967.000000,50295.000000,38734.000000
22606.000000,39850.000000,50109.000000,38559.000000
22558.000000,39805.000000,50006.000000,38482.000000
22515.000000,39762.000000,49909.000000,38397.000000
22436.000000,39671.000000,49771.000000,38251.000000
22373.000000,39603.000000,49666.000000,38152.000000
22363.000000,39602.000000,49635.000000,38139.000000
22352.000000,39592.000000,49591.000000,38105.000000
22307.000000,39534.000000,49503.000000,38014.000000
22280.000000,39500.000000,49453.000000,37972.000000
22295.000000,39522.000000,49469.000000,38003.000000
22295.000000,39523.000000,49463.000000,37993.000000
22259.000000,39477.000000,49411.000000,37923.000000
22243.000000,39462.000000,49391.000000,37906.000000
22263.000000,39492.000000,49412.000000,37944.000000
22259.000000,39484.000000,49386.000000,37917.000000
22218.000000,39429.000000,49312.000000,37838.000000
22197.000000,39409.000000,49280.000000,37823.000000
22201.000000,39426.000000,49283.000000,37849.000000
22172.000000,39397.000000,49224.000000,37789.000000
22112.000000,39326.000000,49118.000000,37676.000000
22079.000000,39295.000000,49059.000000,37633.000000
22066.000000,39290.000000,49026.000000,37625.000000
22009.000000,39224.000000,48925.000000,37530.000000
21926.000000,39122.000000,48783.000000,37393.000000
21882.000000,39070.000000,48694.000000,37328.000000
21858.000000,39045.000000,48629.000000,37285.000000
21790.000000,38962.000000,48502.000000,37157.000000
21699.000000,38850.000000,48347.000000,36999.000000
21646.000000,38791.000000,48246.000000,36917.000000
21608.000000,38754.000000,48161.000000,36851.000000
21531.000000,38664.000000,48013.000000,36704.000000
21443.000000,38561.000000,47854.000000,36545.000000
21397.000000,38516.000000,47757.000000,36472.000000
21363.000000,38486.000000,47671.000000,36410.000000
21290.000000,38402.000000,47526.000000,36271.000000
21212.000000,38312.000000,47380.000000,36139.000000
21178.000000,38284.000000,47301.000000,36095.000000
21149.000000,38262.000000,47226.000000,36046.000000
21078.000000,38182.000000,47091.000000,35908.000000
21007.000000,38101.000000,46966.000000,35782.000000
20981.000000,38077.000000,46912.000000,35744.000000
20957.000000,38051.000000,46855.000000,35696.000000
20892.000000,37967.000000,46736.000000,35570.000000
20831.000000,37892.000000,46629.000000,35467.000000
20815.000000,37877.000000,46586.000000,35447.000000
20796.000000,37853.000000,46529.000000,35402.000000
20734.000000,37771.000000,46409.000000,35278.000000
20679.000000,37703.000000,46306.000000,35180.000000
20662.000000,37689.000000,46257.000000,35152.000000
20632.000000,37654.000000,46182.000000,35088.000000
20561.000000,37570.000000,46054.000000,34957.000000
20505.000000,37511.000000,45958.000000,34868.000000
20486.000000,37503.000000,45915.000000,34841.000000
20449.000000,37466.000000,45840.000000,34768.000000
20375.000000,37382.000000,45717.000000,34638.000000
20323.000000,37329.000000,45631.000000,34565.000000
20307.000000,37319.000000,45587.000000,34545.000000
20268.000000,37272.000000,45496.000000,34461.000000
20196.000000,37181.000000,45361.000000,34325.000000
20152.000000,37131.000000,45277.000000,34260.000000
20137.000000,37118.000000,45231.000000,34242.000000
20095.000000,37059.000000,45130.000000,34152.000000
20024.000000,36966.000000,44989.000000,34021.000000
19987.000000,36925.000000,44907.000000,33963.000000
19973.000000,36918.000000,44859.000000,33939.000000
19924.000000,36856.000000,44754.000000,33838.000000
19851.000000,36763.000000,44622.000000,33703.000000
19816.000000,36723.000000,44549.000000,33642.000000
19801.000000,36710.000000,44502.000000,33608.000000
19748.000000,36643.000000,44394.000000,33495.000000
19675.000000,36555.000000,44264.000000,33363.000000
19640.000000,36520.000000,44192.000000,33313.000000
19620.000000,36499.000000,44134.000000,33275.000000
19560.000000,36421.000000,44011.000000,33152.000000
19488.000000,36331.000000,43871.000000,33021.000000
19455.000000,36300.000000,43794.000000,32976.000000
19430.000000,36284.000000,43726.000000,32939.000000
19365.000000,36212.000000,43600.000000,32816.000000
19295.000000,36134.000000,43474.000000,32696.000000
19266.000000,36113.000000,43416.000000,32665.000000
19243.000000,36094.000000,43359.000000,32628.000000
19181.000000,36018.000000,43238.000000,32506.000000
19120.000000,35943.000000,43124.000000,32397.000000
19099.000000,35922.000000,43077.000000,32375.000000
19075.000000,35891.000000,43020.000000,32337.000000
19009.000000,35798.000000,42896.000000,32215.000000
18948.000000,35716.000000,42784.000000,32111.000000
18927.000000,35697.000000,42736.000000,32083.000000
18898.000000,35667.000000,42672.000000,32023.000000
18829.000000,35583.000000,42549.000000,31885.000000
18772.000000,35516.000000,42446.000000,31781.000000
18754.000000,35502.000000,42397.000000,31747.000000
18723.000000,35465.000000,42318.000000,31672.000000
18654.000000,35377.000000,42186.000000,31533.000000
18600.000000,35313.000000,42083.000000,31443.000000
18582.000000,35296.000000,42030.000000,31412.000000
18547.000000,35253.000000,41942.000000,31330.000000
18478.000000,35165.000000,41805.000000,31191.000000
18426.000000,35106.000000,41704.000000,31113.000000
18403.000000,35086.000000,41643.000000,31088.000000
18357.000000,35030.000000,41539.000000,30998.000000
18284.000000,34937.000000,41398.000000,30861.000000
18235.000000,34887.000000,41309.000000,30801.000000
18212.000000,34872.000000,41257.000000,30789.000000
18158.000000,34809.000000,41147.000000,30700.000000
18080.000000,34714.000000,41005.000000,30565.000000
18038.000000,34673.000000,40926.000000,30506.000000
18021.000000,34667.000000,40883.000000,30484.000000
17971.000000,34612.000000,40783.000000,30382.000000
17902.000000,34529.000000,40655.000000,30245.000000
17870.000000,34504.000000,40585.000000,30187.000000
17862.000000,34508.000000,40544.000000,30158.000000
17825.000000,34467.000000,40457.000000,30063.000000
17784.000000,34421.000000,40381.000000,29977.000000
17802.000000,34454.000000,40409.000000,30014.000000
17864.000000,34537.000000,40508.000000,30116.000000
17923.000000,34602.000000,40613.000000,30194.000000
18008.000000,34699.000000,40785.000000,30327.000000
18173.000000,34900.000000,41099.000000,30611.000000
18383.000000,35155.000000,41494.000000,30962.000000
18586.000000,35393.000000,41892.000000,31287.000000
18814.000000,35657.000000,42347.000000,31670.000000
19104.000000,36002.000000,42912.000000,32182.000000
19410.000000,36358.000000,43505.000000,32714.000000
19682.000000,36661.000000,44050.000000,33176.000000
19957.000000,36967.000000,44605.000000,33656.000000
20271.000000,37323.000000,45217.000000,34214.000000
20569.000000,37655.000000,45797.000000,34736.000000
20806.000000,37909.000000,46288.000000,35154.000000
21030.000000,38153.000000,46763.000000,35567.000000
21278.000000,38430.000000,47257.000000,36022.000000
21495.000000,38668.000000,47686.000000,36405.000000
21644.000000,38824.000000,48010.000000,36677.000000
21779.000000,38972.000000,48311.000000,36948.000000
21935.000000,39146.000000,48621.000000,37250.000000
22056.000000,39273.000000,48862.000000,37473.000000
22121.000000,39332.000000,49015.000000,37597.000000
22189.000000,39401.000000,49172.000000,37743.000000
22284.000000,39507.000000,49358.000000,37932.000000
22349.000000,39573.000000,49491.000000,38052.000000
22373.000000,39592.000000,49568.000000,38103.000000
22418.000000,39643.000000,49682.000000,38208.000000
22499.000000,39733.000000,49835.000000,38357.000000
22557.000000,39784.000000,49941.000000,38437.000000
22588.000000,39803.000000,50015.000000,38478.000000
22653.000000,39876.000000,50151.000000,38606.000000
22750.000000,39992.000000,50332.000000,38789.000000
22819.000000,40068.000000,50468.000000,38903.000000
22873.000000,40120.000000,50583.000000,38984.000000
22972.000000,40232.000000,50766.000000,39152.000000
23098.000000,40377.000000,50985.000000,39364.000000
23182.000000,40468.000000,51147.000000,39502.000000
23243.000000,40534.000000,51278.000000,39611.000000
23341.000000,40652.000000,51458.000000,39794.000000
23457.000000,40787.000000,51649.000000,39990.000000
23527.000000,40859.000000,51771.000000,40091.000000
23574.000000,40902.000000,51865.000000,40160.000000
23652.000000,40989.000000,52006.000000,40300.000000
23731.000000,41076.000000,52142.000000,40437.000000
23755.000000,41090.000000,52198.000000,40475.000000
23757.000000,41080.000000,52222.000000,40487.000000
23789.000000,41115.000000,52280.000000,40560.000000
23815.000000,41139.000000,52314.000000,40607.000000
23781.000000,41087.000000,52255.000000,40541.000000
23724.000000,41016.000000,52166.000000,40450.000000
23697.000000,40991.000000,52110.000000,40420.000000
23658.000000,40952.000000,52022.000000,40356.000000
23563.000000,40842.000000,51846.000000,40182.000000
23462.000000,40731.000000,51665.000000,40006.000000
23402.000000,40677.000000,51538.000000,39904.000000
23333.000000,40613.000000,51393.000000,39779.000000
23219.000000,40488.000000,51184.000000,39576.000000
23113.000000,40373.000000,50993.000000,39405.000000
23056.000000,40315.000000,50868.000000,39315.000000
22993.000000,40247.000000,50731.000000,39199.000000
22895.000000,40134.000000,50554.000000,39023.000000
22819.000000,40051.000000,50421.000000,38901.000000
22787.000000,40025.000000,50358.000000,38863.000000
22741.000000,39980.000000,50279.000000,38790.000000
22664.000000,39894.000000,50162.000000,38663.000000
22616.000000,39843.000000,50092.000000,38603.000000
22616.000000,39849.000000,50085.000000,38619.000000
22605.000000,39831.000000,50052.000000,38586.000000
22568.000000,39779.000000,49988.000000,38508.000000
22560.000000,39771.000000,49975.000000,38499.000000
22587.000000,39806.000000,50001.000000,38536.000000
22583.000000,39794.000000,49974.000000,38498.000000
22548.000000,39742.000000,49905.000000,38415.000000
22544.000000,39736.000000,49888.000000,38409.000000
22563.000000,39765.000000,49902.000000,38441.000000
22542.000000,39738.000000,49850.000000,38390.000000
22489.000000,39673.000000,49755.000000,38294.000000
22468.000000,39654.000000,49705.000000,38266.000000
22464.000000,39659.000000,49674.000000,38260.000000
22417.000000,39604.000000,49574.000000,38167.000000
22343.000000,39516.000000,49443.000000,38040.000000
22306.000000,39476.000000,49366.000000,37986.000000
22285.000000,39453.000000,49304.000000,37944.000000
22220.000000,39373.000000,49177.000000,37815.000000
22139.000000,39277.000000,49036.000000,37667.000000
22098.000000,39236.000000,48956.000000,37600.000000
22066.000000,39203.000000,48885.000000,37543.000000
21992.000000,39111.000000,48749.000000,37402.000000
21904.000000,39009.000000,48607.000000,37259.000000
21856.000000,38968.000000,48529.000000,37199.000000
21814.000000,38932.000000,48451.000000,37134.000000
21728.000000,38837.000000,48304.000000,36981.000000
21642.000000,38741.000000,48159.000000,36839.000000
21602.000000,38706.000000,48081.000000,36788.000000
21564.000000,38671.000000,47999.000000,36728.000000
21485.000000,38581.000000,47856.000000,36587.000000
21414.000000,38500.000000,47728.000000,36467.000000
21392.000000,38478.000000,47665.000000,36430.000000
21365.000000,38445.000000,47587.000000,36368.000000
21292.000000,38354.000000,47449.000000,36231.000000
21227.000000,38277.000000,47333.000000,36126.000000
21207.000000,38258.000000,47273.000000,36097.000000
21180.000000,38225.000000,47187.000000,36030.000000
21114.000000,38143.000000,47049.000000,35891.000000
21062.000000,38085.000000,46947.000000,35793.000000
21047.000000,38076.000000,46902.000000,35762.000000
21009.000000,38038.000000,46825.000000,35682.000000
20934.000000,37950.000000,46695.000000,35543.000000
20880.000000,37890.000000,46598.000000,35462.000000
20859.000000,37874.000000,46545.000000,35440.000000
20811.000000,37824.000000,46449.000000,35356.000000
20731.000000,37733.000000,46313.000000,35219.000000
20678.000000,37681.000000,46226.000000,35152.000000
20657.000000,37665.000000,46176.000000,35135.000000
20610.000000,37606.000000,46073.000000,35047.000000
20537.000000,37514.000000,45933.000000,34915.000000
20498.000000,37473.000000,45850.000000,34860.000000
20485.000000,37467.000000,45803.000000,34844.000000
20435.000000,37409.000000,45698.000000,34747.000000
20360.000000,37322.000000,45561.000000,34612.000000
20322.000000,37289.000000,45481.000000,34555.000000
20308.000000,37284.000000,45428.000000,34527.000000
20258.000000,37224.000000,45320.000000,34418.000000
20191.000000,37139.000000,45191.000000,34284.000000
20161.000000,37108.000000,45120.000000,34230.000000
20145.000000,37093.000000,45065.000000,34191.000000
20087.000000,37022.000000,44950.000000,34073.000000
20016.000000,36933.000000,44824.000000,33945.000000
19986.000000,36902.000000,44759.000000,33900.000000
19968.000000,36884.000000,44700.000000,33861.000000
19914.000000,36812.000000,44580.000000,33740.000000
19851.000000,36735.000000,44460.000000,33621.000000
19826.000000,36715.000000,44405.000000,33591.000000
19803.000000,36694.000000,44348.000000,33555.000000
19739.000000,36613.000000,44227.000000,33430.000000
19674.000000,36533.000000,44113.000000,33317.000000
19650.000000,36513.000000,44063.000000,33291.000000
19624.000000,36487.000000,44002.000000,33246.000000
19557.000000,36399.000000,43875.000000,33115.000000
19495.000000,36319.000000,43761.000000,33005.000000
19475.000000,36301.000000,43711.000000,32977.000000
19448.000000,36275.000000,43649.000000,32922.000000
19377.000000,36193.000000,43528.000000,32792.000000
19315.000000,36127.000000,43423.000000,32695.000000
19291.000000,36115.000000,43372.000000,32666.000000
19257.000000,36082.000000,43294.000000,32598.000000
19187.000000,35996.000000,43161.000000,32465.000000
19133.000000,35933.000000,43055.000000,32379.000000
19114.000000,35917.000000,42999.000000,32357.000000
19079.000000,35870.000000,42911.000000,32284.000000
19008.000000,35777.000000,42778.000000,32147.000000
18956.000000,35716.000000,42682.000000,32064.000000
18934.000000,35701.000000,42629.000000,32033.000000
18890.000000,35650.000000,42532.000000,31938.000000
18819.000000,35557.000000,42396.000000,31792.000000
18775.000000,35502.000000,42313.000000,31720.000000
18756.000000,35480.000000,42268.000000,31697.000000
18706.000000,35413.000000,42162.000000,31594.000000
18630.000000,35316.000000,42016.000000,31442.000000
18585.000000,35269.000000,41925.000000,31369.000000
18562.000000,35252.000000,41866.000000,31335.000000
18503.000000,35181.000000,41747.000000,31221.000000
18422.000000,35080.000000,41596.000000,31075.000000
18376.000000,35033.000000,41502.000000,31012.000000
18350.000000,35016.000000,41436.000000,30977.000000
18289.000000,34949.000000,41315.000000,30865.000000
18212.000000,34862.000000,41178.000000,30735.000000
18174.000000,34830.000000,41103.000000,30687.000000
18151.000000,34815.000000,41045.000000,30657.000000
18093.000000,34744.000000,40926.000000,30546.000000
18028.000000,34657.000000,40798.000000,30426.000000
18001.000000,34627.000000,40737.000000,30388.000000
17982.000000,34611.000000,40691.000000,30357.000000
17929.000000,34547.000000,40596.000000,30253.000000
17880.000000,34491.000000,40520.000000,30171.000000
17887.000000,34515.000000,40543.000000,30205.000000
17922.000000,34571.000000,40611.000000,30274.000000
17949.000000,34608.000000,40676.000000,30307.000000
18019.000000,34694.000000,40819.000000,30413.000000
18176.000000,34884.000000,41104.000000,30671.000000
18369.000000,35110.000000,41453.000000,30972.000000
18552.000000,35314.000000,41806.000000,31250.000000
18766.000000,35558.000000,42229.000000,31600.000000
19044.000000,35885.000000,42758.000000,32064.000000
19328.000000,36217.000000,43300.000000,32526.000000
19579.000000,36502.000000,43803.000000,32931.000000
19842.000000,36802.000000,44331.000000,33379.000000
20140.000000,37142.000000,44902.000000,33894.000000
20411.000000,37443.000000,45424.000000,34358.000000
20628.000000,37675.000000,45866.000000,34736.000000
20842.000000,37911.000000,46307.000000,35137.000000
21070.000000,38171.000000,46761.000000,35566.000000
21255.000000,38375.000000,47138.000000,35905.000000
21384.000000,38506.000000,47424.000000,36147.000000
21514.000000,38644.000000,47707.000000,36410.000000
21657.000000,38800.000000,47992.000000,36690.000000
21754.000000,38899.000000,48193.000000,36867.000000
21803.000000,38943.000000,48321.000000,36966.000000
21867.000000,39016.000000,48472.000000,37114.000000
21947.000000,39113.000000,48637.000000,37288.000000
21989.000000,39154.000000,48731.000000,37369.000000
22005.000000,39161.000000,48782.000000,37398.000000
22062.000000,39223.000000,48888.000000,37500.000000
22148.000000,39319.000000,49026.000000,37642.000000
22194.000000,39361.000000,49108.000000,37709.000000
22218.000000,39376.000000,49168.000000,37750.000000
22284.000000,39451.000000,49292.000000,37875.000000
22373.000000,39553.000000,49444.000000,38027.000000
22423.000000,39603.000000,49544.000000,38106.000000
22458.000000,39636.000000,49635.000000,38178.000000
22539.000000,39729.000000,49798.000000,38343.000000
22636.000000,39840.000000,49981.000000,38525.000000
22694.000000,39897.000000,50102.000000,38621.000000
22740.000000,39944.000000,50212.000000,38709.000000
22828.000000,40049.000000,50383.000000,38879.000000
22924.000000,40162.000000,50557.000000,39046.000000
22976.000000,40216.000000,50663.000000,39118.000000
23018.000000,40262.000000,50758.000000,39181.000000
23098.000000,40356.000000,50903.000000,39317.000000
23173.000000,40434.000000,51023.000000,39428.000000
23192.000000,40439.000000,51054.000000,39437.000000
23200.000000,40437.000000,51071.000000,39446.000000
23237.000000,40481.000000,51131.000000,39523.000000
23253.000000,40500.000000,51152.000000,39558.000000
23208.000000,40439.000000,51081.000000,39486.000000
23154.000000,40372.000000,50993.000000,39411.000000
23129.000000,40346.000000,50933.000000,39381.000000
23082.000000,40293.000000,50827.000000,39293.000000
22980.000000,40177.000000,50646.000000,39118.000000
22885.000000,40073.000000,50479.000000,38971.000000
22827.000000,40018.000000,50358.000000,38882.000000
22752.000000,39939.000000,50204.000000,38743.000000
22639.000000,39810.000000,50002.000000,38540.000000
22548.000000,39714.000000,49841.000000,38397.000000
22499.000000,39673.000000,49743.000000,38326.000000
22435.000000,39608.000000,49621.000000,38211.000000
22345.000000,39509.000000,49473.000000,38055.000000
22290.000000,39456.000000,49385.000000,37980.000000
22277.000000,39452.000000,49353.000000,37969.000000
22246.000000,39412.000000,49285.000000,37900.000000
22195.000000,39342.000000,49195.000000,37796.000000
22185.000000,39324.000000,49173.000000,37781.000000
22209.000000,39350.000000,49197.000000,37819.000000
22199.000000,39335.000000,49172.000000,37782.000000
22166.000000,39292.000000,49120.000000,37709.000000
22172.000000,39304.000000,49127.000000,37717.000000
22201.000000,39346.000000,49159.000000,37755.000000
22188.000000,39331.000000,49128.000000,37709.000000
22148.000000,39284.000000,49070.000000,37634.000000
22142.000000,39287.000000,49066.000000,37641.000000
22150.000000,39307.000000,49075.000000,37666.000000
22115.000000,39268.000000,49015.000000,37600.000000
22061.000000,39207.000000,48933.000000,37513.000000
22046.000000,39198.000000,48905.000000,37504.000000
22039.000000,39196.000000,48879.000000,37500.000000
21986.000000,39131.000000,48780.000000,37406.000000
21919.000000,39051.000000,48668.000000,37302.000000
21892.000000,39024.000000,48613.000000,37278.000000
21870.000000,39000.000000,48554.000000,37243.000000
21803.000000,38914.000000,48427.000000,37113.000000
21730.000000,38824.000000,48299.000000,36985.000000
21697.000000,38793.000000,48234.000000,36941.000000
21661.000000,38759.000000,48159.000000,36886.000000
21582.000000,38667.000000,48014.000000,36745.000000
21509.000000,38584.000000,47879.000000,36616.000000
21483.000000,38562.000000,47808.000000,36562.000000
21449.000000,38529.000000,47725.000000,36488.000000
21367.000000,38441.000000,47580.000000,36342.000000
21294.000000,38366.000000,47457.000000,36234.000000
21266.000000,38343.000000,47397.000000,36203.000000
21231.000000,38302.000000,47320.000000,36139.000000
21157.000000,38210.000000,47191.000000,36007.000000
21100.000000,38144.000000,47090.000000,35916.000000
21083.000000,38128.000000,47043.000000,35889.000000
21049.000000,38089.000000,46967.000000,35812.000000
20979.000000,38003.000000,46842.000000,35676.000000
20931.000000,37949.000000,46754.000000,35598.000000
20919.000000,37944.000000,46712.000000,35579.000000
20887.000000,37908.000000,46633.000000,35505.000000
20823.000000,37832.000000,46516.000000,35385.000000
20786.000000,37795.000000,46449.000000,35338.000000
20779.000000,37797.000000,46422.000000,35340.000000
20743.000000,37754.000000,46343.000000,35267.000000
20680.000000,37674.000000,46228.000000,35146.000000
20650.000000,37643.000000,46171.000000,35103.000000
20643.000000,37646.000000,46146.000000,35104.000000
20599.000000,37598.000000,46063.000000,35026.000000
20531.000000,37519.000000,45948.000000,34911.000000
20500.000000,37496.000000,45892.000000,34874.000000
20491.000000,37500.000000,45860.000000,34860.000000
20442.000000,37446.000000,45765.000000,34760.000000
20377.000000,37368.000000,45646.000000,34633.000000
20356.000000,37345.000000,45588.000000,34588.000000
20354.000000,37341.000000,45548.000000,34565.000000
20312.000000,37279.000000,45445.000000,34460.000000
20256.000000,37197.000000,45327.000000,34344.000000
20240.000000,37169.000000,45270.000000,34312.000000
20231.000000,37151.000000,45221.000000,34282.000000
20176.000000,37077.000000,45108.000000,34164.000000
20111.000000,36997.000000,44991.000000,34047.000000
20087.000000,36977.000000,44941.000000,34018.000000
20072.000000,36964.000000,44894.000000,33987.000000
20019.000000,36896.000000,44783.000000,33870.000000
19967.000000,36832.000000,44681.000000,33770.000000
19958.000000,36831.000000,44645.000000,33761.000000
19947.000000,36823.000000,44598.000000,33738.000000
19889.000000,36750.000000,44482.000000,33629.000000
19832.000000,36680.000000,44377.000000,33540.000000
19817.000000,36668.000000,44337.000000,33530.000000
19795.000000,36644.000000,44279.000000,33489.000000
19730.000000,36563.000000,44160.000000,33369.000000
19674.000000,36498.000000,44064.000000,33278.000000
19658.000000,36488.000000,44023.000000,33258.000000
19630.000000,36459.000000,43952.000000,33199.000000
19564.000000,36377.000000,43822.000000,33068.000000
19512.000000,36318.000000,43717.000000,32979.000000
19496.000000,36307.000000,43661.000000,32950.000000
19461.000000,36266.000000,43569.000000,32869.000000
19391.000000,36178.000000,43431.000000,32730.000000
19339.000000,36121.000000,43333.000000,32652.000000
19319.000000,36107.000000,43283.000000,32632.000000
19277.000000,36056.000000,43192.000000,32546.000000
19206.000000,35963.000000,43061.000000,32412.000000
19161.000000,35911.000000,42982.000000,32353.000000
19146.000000,35896.000000,42940.000000,32339.000000
19101.000000,35836.000000,42842.000000,32246.000000
19031.000000,35741.000000,42708.000000,32105.000000
18996.000000,35699.000000,42633.000000,32041.000000
18986.000000,35689.000000,42591.000000,32020.000000
18939.000000,35624.000000,42490.000000,31922.000000
18871.000000,35531.000000,42360.000000,31790.000000
18839.000000,35494.000000,42290.000000,31738.000000
18825.000000,35485.000000,42243.000000,31712.000000
18769.000000,35418.000000,42133.000000,31600.000000
18694.000000,35330.000000,42003.000000,31467.000000
18658.000000,35302.000000,41938.000000,31421.000000
18639.000000,35294.000000,41895.000000,31395.000000
18586.000000,35232.000000,41799.000000,31294.000000
18532.000000,35166.000000,41709.000000,31197.000000
18532.000000,35176.000000,41710.000000,31208.000000
18560.000000,35218.000000,41754.000000,31255.000000
18575.000000,35235.000000,41782.000000,31259.000000
18618.000000,35284.000000,41866.000000,31314.000000
18737.000000,35430.000000,42076.000000,31508.000000
18889.000000,35613.000000,42342.000000,31749.000000
19028.000000,35769.000000,42600.000000,31953.000000
19194.000000,35957.000000,42920.000000,32215.000000
19422.000000,36230.000000,43355.000000,32601.000000
19661.000000,36512.000000,43815.000000,33001.000000
19863.000000,36741.000000,44228.000000,33337.000000
20072.000000,36979.000000,44661.000000,33706.000000
20324.000000,37272.000000,45152.000000,34154.000000
20563.000000,37542.000000,45614.000000,34564.000000
20746.000000,37744.000000,46001.000000,34889.000000
20926.000000,37949.000000,46385.000000,35233.000000
21131.000000,38187.000000,46790.000000,35622.000000
21306.000000,38381.000000,47130.000000,35939.000000
21423.000000,38502.000000,47381.000000,36154.000000
21540.000000,38625.000000,47627.000000,36384.000000
21678.000000,38776.000000,47888.000000,36646.000000
21778.000000,38877.000000,48078.000000,36825.000000
21823.000000,38917.000000,48192.000000,36916.000000
21878.000000,38978.000000,48323.000000,37044.000000
21957.000000,39072.000000,48478.000000,37204.000000
22003.000000,39117.000000,48567.000000,37282.000000
22013.000000,39116.000000,48602.000000,37299.000000
22049.000000,39158.000000,48682.000000,37381.000000
22113.000000,39236.000000,48800.000000,37507.000000
22144.000000,39267.000000,48865.000000,37558.000000
22150.000000,39269.000000,48897.000000,37570.000000
22197.000000,39326.000000,48993.000000,37666.000000
22274.000000,39420.000000,49128.000000,37803.000000
22316.000000,39462.000000,49212.000000,37863.000000
22340.000000,39479.000000,49273.000000,37895.000000
22409.000000,39554.000000,49400.000000,38012.000000
22502.000000,39660.000000,49556.000000,38158.000000
22557.000000,39711.000000,49654.000000,38226.000000
22596.000000,39743.000000,49736.000000,38279.000000
22672.000000,39830.000000,49879.000000,38417.000000
22758.000000,39930.000000,50033.000000,38568.000000
22796.000000,39967.000000,50117.000000,38634.000000
22819.000000,39986.000000,50180.000000,38686.000000
22881.000000,40055.000000,50290.000000,38809.000000
22942.000000,40118.000000,50385.000000,38916.000000
22946.000000,40109.000000,50388.000000,38916.000000
22929.000000,40082.000000,50363.000000,38899.000000
22939.000000,40100.000000,50378.000000,38945.000000
22936.000000,40102.000000,50364.000000,38957.000000
22872.000000,40027.000000,50256.000000,38855.000000
22795.000000,39942.000000,50132.000000,38744.000000
22754.000000,39907.000000,50056.000000,38696.000000
22702.000000,39859.000000,49956.000000,38613.000000
22604.000000,39749.000000,49782.000000,38437.000000
22515.000000,39651.000000,49620.000000,38288.000000
22472.000000,39613.000000,49520.000000,38220.000000
22426.000000,39563.000000,49409.000000,38124.000000
22344.000000,39461.000000,49254.000000,37963.000000
22283.000000,39383.000000,49138.000000,37852.000000
22271.000000,39367.000000,49095.000000,37826.000000
22250.000000,39337.000000,49039.000000,37769.000000
22196.000000,39268.000000,48944.000000,37657.000000
22167.000000,39237.000000,48895.000000,37606.000000
22181.000000,39263.000000,48908.000000,37632.000000
22182.000000,39261.000000,48894.000000,37615.000000
22152.000000,39219.000000,48844.000000,37551.000000
22151.000000,39214.000000,48840.000000,37556.000000
22182.000000,39253.000000,48876.000000,37612.000000
22184.000000,39252.000000,48862.000000,37592.000000
22155.000000,39211.000000,48809.000000,37520.000000
22156.000000,39213.000000,48808.000000,37522.000000
22180.000000,39249.000000,48838.000000,37567.000000
22163.000000,39230.000000,48803.000000,37533.000000
22115.000000,39176.000000,48727.000000,37455.000000
22102.000000,39174.000000,48704.000000,37450.000000
22111.000000,39196.000000,48704.000000,37474.000000
22074.000000,39157.000000,48638.000000,37407.000000
22011.000000,39083.000000,48537.000000,37298.000000
21985.000000,39057.000000,48485.000000,37258.000000
21978.000000,39046.000000,48442.000000,37232.000000
21927.000000,38976.000000,48332.000000,37116.000000
21854.000000,38885.000000,48201.000000,36981.000000
21817.000000,38849.000000,48131.000000,36930.000000
21791.000000,38826.000000,48073.000000,36893.000000
21723.000000,38744.000000,47951.000000,36771.000000
21647.000000,38650.000000,47820.000000,36643.000000
21618.000000,38614.000000,47753.000000,36601.000000
21597.000000,38586.000000,47687.000000,36557.000000
21532.000000,38500.000000,47552.000000,36422.000000
21457.000000,38413.000000,47417.000000,36291.000000
21422.000000,38389.000000,47351.000000,36248.000000
21388.000000,38363.000000,47282.000000,36197.000000
21310.000000,38274.000000,47148.000000,36061.000000
21236.000000,38192.000000,47027.000000,35942.000000
21208.000000,38172.000000,46974.000000,35908.000000
21179.000000,38147.000000,46909.000000,35856.000000
21109.000000,38063.000000,46780.000000,35727.000000
21051.000000,37994.000000,46672.000000,35627.000000
21042.000000,37984.000000,46628.000000,35603.000000
21028.000000,37963.000000,46565.000000,35547.000000
20972.000000,37889.000000,46449.000000,35424.000000
20928.000000,37835.000000,46361.000000,35343.000000
20922.000000,37830.000000,46329.000000,35331.000000
20897.000000,37800.000000,46266.000000,35271.000000
20831.000000,37720.000000,46155.000000,35147.000000
20782.000000,37667.000000,46078.000000,35077.000000
20767.000000,37659.000000,46045.000000,35066.000000
20726.000000,37618.000000,45968.000000,34995.000000
20653.000000,37533.000000,45846.000000,34871.000000
20609.000000,37485.000000,45770.000000,34817.000000
20599.000000,37477.000000,45735.000000,34818.000000
20561.000000,37429.000000,45649.000000,34744.000000
20495.000000,37346.000000,45529.000000,34620.000000
20460.000000,37313.000000,45465.000000,34572.000000
20453.000000,37315.000000,45436.000000,34569.000000
20412.000000,37267.000000,45347.000000,34489.000000
20346.000000,37188.000000,45226.000000,34369.000000
20318.000000,37161.000000,45165.000000,34326.000000
20316.000000,37164.000000,45132.000000,34314.000000
20276.000000,37109.000000,45037.000000,34223.000000
20213.000000,37023.000000,44914.000000,34102.000000
20189.000000,36989.000000,44854.000000,34058.000000
20181.000000,36978.000000,44815.000000,34033.000000
20130.000000,36913.000000,44714.000000,33920.000000
20064.000000,36832.000000,44601.000000,33788.000000
20038.000000,36811.000000,44554.000000,33746.000000
20024.000000,36805.000000,44516.000000,33718.000000
19969.000000,36742.000000,44413.000000,33609.000000
19905.000000,36668.000000,44301.000000,33498.000000
19878.000000,36647.000000,44253.000000,33473.000000
19856.000000,36632.000000,44209.000000,33445.000000
19792.000000,36562.000000,44101.000000,33329.000000
19729.000000,36491.000000,43995.000000,33224.000000
19709.000000,36480.000000,43953.000000,33212.000000
19689.000000,36465.000000,43901.000000,33188.000000
19628.000000,36388.000000,43783.000000,33077.000000
19573.000000,36317.000000,43675.000000,32981.000000
19566.000000,36308.000000,43634.000000,32965.000000
19552.000000,36290.000000,43578.000000,32922.000000
19493.000000,36213.000000,43461.000000,32803.000000
19441.000000,36150.000000,43363.000000,32719.000000
19429.000000,36140.000000,43321.000000,32706.000000
19407.000000,36108.000000,43251.000000,32654.000000
19346.000000,36023.000000,43124.000000,32531.000000
19297.000000,35960.000000,43025.000000,32447.000000
19284.000000,35948.000000,42980.000000,32427.000000
19250.000000,35909.000000,42905.000000,32362.000000
19181.000000,35821.000000,42782.000000,32239.000000
19133.000000,35763.000000,42695.000000,32171.000000
19119.000000,35751.000000,42653.000000,32155.000000
19080.000000,35705.000000,42567.000000,32072.000000
19008.000000,35618.000000,42435.000000,31934.000000
18959.000000,35569.000000,42350.000000,31863.000000
18941.000000,35559.000000,42303.000000,31841.000000
18895.000000,35503.000000,42200.000000,31745.000000
18822.000000,35412.000000,42060.000000,31603.000000
18783.000000,35373.000000,41982.000000,31539.000000
18772.000000,35371.000000,41942.000000,31518.000000
18728.000000,35318.000000,41845.000000,31418.000000
18662.000000,35234.000000,41717.000000,31285.000000
18632.000000,35202.000000,41651.000000,31238.000000
18623.000000,35200.000000,41614.000000,31224.000000
18578.000000,35148.000000,41522.000000,31138.000000
18521.000000,35082.000000,41426.000000,31044.000000
18515.000000,35087.000000,41421.000000,31056.000000
18547.000000,35134.000000,41470.000000,31115.000000
18567.000000,35152.000000,41498.000000,31125.000000
18607.000000,35188.000000,41569.000000,31169.000000
18720.000000,35320.000000,41771.000000,31355.000000
18874.000000,35504.000000,42048.000000,31603.000000
19014.000000,35664.000000,42319.000000,31811.000000
19174.000000,35849.000000,42637.000000,32062.000000
19397.000000,36115.000000,43061.000000,32441.000000
19639.000000,36400.000000,43514.000000,32842.000000
19848.000000,36633.000000,43922.000000,33170.000000
20060.000000,36870.000000,44348.000000,33522.000000
20316.000000,37168.000000,44840.000000,33968.000000
20567.000000,37456.000000,45316.000000,34397.000000
20764.000000,37669.000000,45711.000000,34734.000000
20956.000000,37874.000000,46100.000000,35078.000000
21176.000000,38121.000000,46530.000000,35482.000000
21371.000000,38338.000000,46910.000000,35831.000000
21503.000000,38475.000000,47193.000000,36072.000000
21628.000000,38607.000000,47460.000000,36320.000000
21777.000000,38772.000000,47753.000000,36611.000000
21898.000000,38896.000000,47986.000000,36833.000000
21962.000000,38950.000000,48134.000000,36955.000000
22028.000000,39014.000000,48287.000000,37101.000000
22123.000000,39120.000000,48472.000000,37295.000000
22190.000000,39192.000000,48609.000000,37425.000000
22214.000000,39216.000000,48686.000000,37486.000000
22259.000000,39270.000000,48796.000000,37601.000000
22343.000000,39368.000000,48947.000000,37766.000000
22406.000000,39429.000000,49055.000000,37864.000000
22439.000000,39450.000000,49129.000000,37916.000000
22504.000000,39520.000000,49265.000000,38052.000000
22605.000000,39632.000000,49445.000000,38239.000000
22676.000000,39702.000000,49575.000000,38346.000000
22721.000000,39742.000000,49675.000000,38409.000000
22807.000000,39841.000000,49840.000000,38558.000000
22921.000000,39977.000000,50041.000000,38754.000000
22993.000000,40058.000000,50184.000000,38869.000000
23039.000000,40104.000000,50296.000000,38950.000000
23129.000000,40206.000000,50470.000000,39114.000000
23243.000000,40336.000000,50671.000000,39307.000000
23313.000000,40410.000000,50807.000000,39412.000000
23357.000000,40457.000000,50915.000000,39486.000000
23438.000000,40553.000000,51074.000000,39633.000000
23528.000000,40659.000000,51236.000000,39785.000000
23569.000000,40695.000000,51317.000000,39836.000000
23590.000000,40704.000000,51367.000000,39861.000000
23645.000000,40755.000000,51456.000000,39956.000000
23694.000000,40800.000000,51525.000000,40033.000000
23680.000000,40768.000000,51497.000000,39998.000000
23639.000000,40713.000000,51435.000000,39940.000000
23627.000000,40702.000000,51410.000000,39944.000000
23606.000000,40682.000000,51360.000000,39917.000000
23529.000000,40592.000000,51222.000000,39781.000000
23442.000000,40497.000000,51074.000000,39646.000000
23397.000000,40459.000000,50986.000000,39590.000000
23350.000000,40411.000000,50883.000000,39511.000000
23256.000000,40298.000000,50711.000000,39345.000000
23169.000000,40195.000000,50553.000000,39201.000000
23133.000000,40157.000000,50460.000000,39139.000000
23092.000000,40111.000000,50355.000000,39049.000000
23009.000000,40010.000000,50201.000000,38892.000000
22945.000000,39936.000000,50084.000000,38783.000000
22933.000000,39928.000000,50039.000000,38757.000000
22915.000000,39906.000000,49980.000000,38703.000000
22865.000000,39839.000000,49886.000000,38592.000000
22839.000000,39807.000000,49837.000000,38538.000000
22855.000000,39832.000000,49849.000000,38559.000000
22854.000000,39832.000000,49831.000000,38537.000000
22816.000000,39788.000000,49773.000000,38465.000000
22803.000000,39781.000000,49760.000000,38461.000000
22823.000000,39815.000000,49788.000000,38508.000000
22814.000000,39805.000000,49766.000000,38479.000000
22772.000000,39751.000000,49697.000000,38392.000000
22758.000000,39738.000000,49674.000000,38375.000000
22768.000000,39758.000000,49681.000000,38403.000000
22741.000000,39726.000000,49625.000000,38348.000000
22684.000000,39658.000000,49528.000000,38245.000000
22663.000000,39643.000000,49487.000000,38223.000000
22665.000000,39660.000000,49477.000000,38241.000000
22624.000000,39618.000000,49404.000000,38176.000000
22557.000000,39542.000000,49295.000000,38074.000000
22530.000000,39518.000000,49239.000000,38047.000000
22524.000000,39514.000000,49198.000000,38034.000000
22472.000000,39449.000000,49090.000000,37926.000000
22397.000000,39358.000000,48963.000000,37791.000000
22363.000000,39319.000000,48897.000000,37737.000000
22344.000000,39293.000000,48842.000000,37693.000000
22283.000000,39210.000000,48720.000000,37560.000000
22211.000000,39116.000000,48586.000000,37420.000000
22181.000000,39081.000000,48513.000000,37371.000000
22158.000000,39055.000000,48443.000000,37327.000000
22087.000000,38971.000000,48308.000000,37196.000000
22009.000000,38885.000000,48178.000000,37069.000000
21976.000000,38862.000000,48119.000000,37032.000000
21949.000000,38840.000000,48058.000000,36989.000000
21879.000000,38760.000000,47933.000000,36859.000000
21813.000000,38686.000000,47819.000000,36744.000000
21798.000000,38676.000000,47772.000000,36717.000000
21783.000000,38657.000000,47717.000000,36673.000000
21720.000000,38575.000000,47600.000000,36552.000000
21663.000000,38503.000000,47500.000000,36460.000000
21652.000000,38493.000000,47462.000000,36449.000000
21631.000000,38468.000000,47403.000000,36400.000000
21566.000000,38386.000000,47284.000000,36271.000000
21510.000000,38324.000000,47187.000000,36181.000000
21497.000000,38317.000000,47146.000000,36166.000000
21469.000000,38288.000000,47078.000000,36105.000000
21403.000000,38208.000000,46956.000000,35975.000000
21358.000000,38157.000000,46865.000000,35896.000000
21353.000000,38155.000000,46824.000000,35879.000000
21326.000000,38118.000000,46747.000000,35805.000000
21262.000000,38037.000000,46629.000000,35677.000000
21221.000000,37993.000000,46556.000000,35617.000000
21212.000000,37990.000000,46523.000000,35609.000000
21173.000000,37946.000000,46437.000000,35526.000000
21103.000000,37864.000000,46313.000000,35392.000000
21063.000000,37830.000000,46247.000000,35338.000000
21052.000000,37834.000000,46220.000000,35337.000000
21008.000000,37787.000000,46136.000000,35260.000000
20939.000000,37706.000000,46020.000000,35142.000000
20908.000000,37677.000000,45965.000000,35104.000000
20900.000000,37677.000000,45940.000000,35096.000000
20849.000000,37619.000000,45851.000000,35002.000000
20775.000000,37531.000000,45729.000000,34875.000000
20744.000000,37494.000000,45662.000000,34829.000000
20735.000000,37475.000000,45614.000000,34803.000000
20685.000000,37402.000000,45501.000000,34690.000000
20617.000000,37312.000000,45370.000000,34558.000000
20588.000000,37282.000000,45303.000000,34515.000000
20572.000000,37270.000000,45253.000000,34488.000000
20515.000000,37202.000000,45144.000000,34374.000000
20448.000000,37122.000000,45029.000000,34255.000000
20423.000000,37101.000000,44976.000000,34225.000000
20406.000000,37087.000000,44925.000000,34192.000000
20344.000000,37012.000000,44810.000000,34072.000000
20275.000000,36935.000000,44698.000000,33963.000000
20250.000000,36919.000000,44652.000000,33946.000000
20228.000000,36900.000000,44599.000000,33916.000000
20163.000000,36818.000000,44475.000000,33799.000000
20102.000000,36745.000000,44361.000000,33697.000000
20088.000000,36739.000000,44315.000000,33677.000000
20071.000000,36726.000000,44256.000000,33634.000000
20010.000000,36653.000000,44135.000000,33510.000000
19959.000000,36589.000000,44034.000000,33411.000000
19949.000000,36579.000000,43993.000000,33385.000000
19925.000000,36549.000000,43926.000000,33323.000000
19857.000000,36462.000000,43802.000000,33189.000000
19800.000000,36399.000000,43706.000000,33099.000000
19783.000000,36390.000000,43669.000000,33082.000000
19751.000000,36356.000000,43605.000000,33022.000000
19685.000000,36274.000000,43488.000000,32900.000000
19639.000000,36222.000000,43408.000000,32832.000000
19627.000000,36215.000000,43374.000000,32821.000000
19592.000000,36171.000000,43295.000000,32747.000000
19522.000000,36084.000000,43168.000000,32619.000000
19477.000000,36036.000000,43085.000000,32559.000000
19462.000000,36028.000000,43039.000000,32548.000000
19421.000000,35978.000000,42938.000000,32458.000000
19352.000000,35888.000000,42801.000000,32319.000000
19313.000000,35840.000000,42724.000000,32260.000000
19302.000000,35822.000000,42681.000000,32246.000000
19257.000000,35752.000000,42574.000000,32150.000000
19190.000000,35655.000000,42430.000000,32014.000000
19160.000000,35619.000000,42347.000000,31961.000000
19150.000000,35618.000000,42296.000000,31938.000000
19097.000000,35562.000000,42188.000000,31835.000000
19022.000000,35476.000000,42058.000000,31712.000000
18987.000000,35445.000000,41989.000000,31675.000000
18970.000000,35436.000000,41942.000000,31657.000000
18915.000000,35372.000000,41836.000000,31551.000000
18851.000000,35296.000000,41722.000000,31432.000000
18834.000000,35285.000000,41682.000000,31406.000000
18836.000000,35295.000000,41670.000000,31402.000000
18810.000000,35262.000000,41616.000000,31335.000000
18793.000000,35241.000000,41591.000000,31304.000000
18843.000000,35310.000000,41680.000000,31407.000000
18929.000000,35419.000000,41827.000000,31554.000000
19007.000000,35504.000000,41967.000000,31659.000000
19115.000000,35625.000000,42177.000000,31821.000000
19296.000000,35841.000000,42515.000000,32119.000000
19503.000000,36084.000000,42899.000000,32447.000000
19689.000000,36290.000000,43257.000000,32730.000000
19898.000000,36523.000000,43659.000000,33064.000000
20162.000000,36828.000000,44148.000000,33498.000000
20423.000000,37124.000000,44633.000000,33919.000000
20637.000000,37357.000000,45057.000000,34273.000000
20854.000000,37596.000000,45496.000000,34660.000000
21108.000000,37882.000000,45980.000000,35115.000000
21341.000000,38135.000000,46416.000000,35514.000000
21518.000000,38316.000000,46769.000000,35817.000000
21693.000000,38501.000000,47123.000000,36136.000000
21889.000000,38715.000000,47499.000000,36490.000000
22045.000000,38876.000000,47804.000000,36766.000000
22143.000000,38970.000000,48026.000000,36955.000000
22244.000000,39081.000000,48255.000000,37176.000000
22364.000000,39223.000000,48504.000000,37425.000000
22445.000000,39315.000000,48684.000000,37584.000000
22483.000000,39354.000000,48804.000000,37673.000000
22547.000000,39427.000000,48959.000000,37823.000000
22642.000000,39535.000000,49145.000000,38015.000000
22706.000000,39596.000000,49271.000000,38126.000000
22743.000000,39624.000000,49359.000000,38190.000000
22820.000000,39707.000000,49508.000000,38334.000000
22927.000000,39827.000000,49693.000000,38520.000000
22997.000000,39896.000000,49823.000000,38626.000000
23043.000000,39935.000000,49928.000000,38698.000000
23133.000000,40033.000000,50099.000000,38858.000000
23249.000000,40164.000000,50306.000000,39058.000000
23327.000000,40242.000000,50461.000000,39185.000000
23385.000000,40298.000000,50598.000000,39294.000000
23489.000000,40415.000000,50797.000000,39493.000000
23611.000000,40551.000000,51012.000000,39710.000000
23689.000000,40628.000000,51165.000000,39842.000000
23750.000000,40689.000000,51304.000000,39961.000000
23851.000000,40809.000000,51500.000000,40160.000000
23959.000000,40936.000000,51696.000000,40355.000000
24017.000000,40999.000000,51817.000000,40451.000000
24060.000000,41047.000000,51922.000000,40532.000000
24141.000000,41146.000000,52076.000000,40687.000000
24215.000000,41236.000000,52208.000000,40819.000000
24230.000000,41249.000000,52250.000000,40842.000000
24233.000000,41246.000000,52272.000000,40853.000000
24270.000000,41289.000000,52335.000000,40931.000000
24289.000000,41310.000000,52358.000000,40965.000000
24243.000000,41250.000000,52284.000000,40882.000000
24185.000000,41179.000000,52193.000000,40789.000000
24161.000000,41154.000000,52141.000000,40751.000000
24119.000000,41103.000000,52048.000000,40667.000000
24022.000000,40982.000000,51872.000000,40494.000000
23928.000000,40870.000000,51704.000000,40345.000000
23875.000000,40810.000000,51584.000000,40260.000000
23808.000000,40730.000000,51433.000000,40131.000000
23700.000000,40604.000000,51232.000000,39930.000000
23612.000000,40510.000000,51070.000000,39782.000000
23567.000000,40476.000000,50971.000000,39708.000000
23506.000000,40419.000000,50851.000000,39592.000000
23414.000000,40324.000000,50699.000000,39429.000000
23354.000000,40273.000000,50603.000000,39340.000000
23340.000000,40276.000000,50566.000000,39324.000000
23308.000000,40249.000000,50495.000000,39258.000000
23253.000000,40188.000000,50397.000000,39155.000000
23235.000000,40175.000000,50362.000000,39139.000000
23253.000000,40202.000000,50377.000000,39179.000000
23238.000000,40181.000000,50343.000000,39147.000000
23198.000000,40124.000000,50277.000000,39074.000000
23201.000000,40122.000000,50272.000000,39082.000000
23229.000000,40154.000000,50301.000000,39125.000000
23213.000000,40128.000000,50266.000000,39082.000000
23166.000000,40066.000000,50197.000000,39000.000000
23154.000000,40055.000000,50180.000000,38993.000000
23158.000000,40065.000000,50179.000000,39006.000000
23116.000000,40016.000000,50107.000000,38929.000000
23049.000000,39942.000000,50006.000000,38823.000000
23022.000000,39923.000000,49962.000000,38796.000000
23008.000000,39918.000000,49927.000000,38779.000000
22948.000000,39846.000000,49821.000000,38670.000000
22875.000000,39755.000000,49697.000000,38550.000000
22845.000000,39721.000000,49633.000000,38514.000000
22822.000000,39697.000000,49571.000000,38476.000000
22754.000000,39611.000000,49440.000000,38345.000000
22681.000000,39519.000000,49306.000000,38217.000000
22653.000000,39491.000000,49237.000000,38178.000000
22629.000000,39467.000000,49164.000000,38131.000000
22556.000000,39381.000000,49023.000000,37990.000000
22480.000000,39298.000000,48892.000000,37859.000000
22448.000000,39275.000000,48830.000000,37815.000000
22416.000000,39245.000000,48757.000000,37755.000000
22340.000000,39154.000000,48616.000000,37613.000000
22271.000000,39071.000000,48488.000000,37500.000000
22248.000000,39049.000000,48424.000000,37467.000000
22216.000000,39016.000000,48343.000000,37402.000000
22138.000000,38924.000000,48206.000000,37259.000000
22073.000000,38851.000000,48095.000000,37156.000000
22052.000000,38835.000000,48041.000000,37125.000000
22017.000000,38797.000000,47956.000000,37045.000000
21940.000000,38704.000000,47814.000000,36894.000000
21880.000000,38634.000000,47704.000000,36794.000000
21860.000000,38614.000000,47645.000000,36761.000000
21819.000000,38566.000000,47552.000000,36675.000000
21741.000000,38474.000000,47415.000000,36533.000000
21685.000000,38418.000000,47325.000000,36457.000000
21665.000000,38406.000000,47279.000000,36437.000000
21620.000000,38356.000000,47185.000000,36346.000000
21545.000000,38271.000000,47053.000000,36208.000000
21501.000000,38232.000000,46978.000000,36148.000000
21487.000000,38229.000000,46941.000000,36131.000000
21441.000000,38174.000000,46846.000000,36032.000000
21367.000000,38085.000000,46717.000000,35891.000000
21332.000000,38048.000000,46649.000000,35832.000000
21322.000000,38043.000000,46610.000000,35810.000000
21273.000000,37983.000000,46507.000000,35706.000000
21198.000000,37891.000000,46373.000000,35570.000000
21161.000000,37853.000000,46298.000000,35518.000000
21142.000000,37838.000000,46246.000000,35492.000000
21082.000000,37766.000000,46129.000000,35381.000000
21005.000000,37674.000000,45996.000000,35253.000000
20967.000000,37641.000000,45926.000000,35209.000000
20943.000000,37626.000000,45870.000000,35176.000000
20879.000000,37556.000000,45752.000000,35061.000000
20808.000000,37474.000000,45626.000000,34941.000000
20783.000000,37449.000000,45563.000000,34905.000000
20765.000000,37430.000000,45505.000000,34866.000000
20701.000000,37348.000000,45382.000000,34738.000000
20632.000000,37263.000000,45256.000000,34616.000000
20605.000000,37239.000000,45196.000000,34584.000000
20579.000000,37213.000000,45131.000000,34540.000000
20510.000000,37124.000000,44999.000000,34405.000000
20443.000000,37039.000000,44875.000000,34287.000000
20421.000000,37017.000000,44819.000000,34257.000000
20396.000000,36985.000000,44753.000000,34209.000000
20325.000000,36893.000000,44627.000000,34080.000000
20258.000000,36811.000000,44515.000000,33976.000000
20235.000000,36789.000000,44461.000000,33945.000000
20202.000000,36754.000000,44384.000000,33878.000000
20127.000000,36667.000000,44250.000000,33740.000000
20065.000000,36601.000000,44143.000000,33644.000000
20043.000000,36588.000000,44092.000000,33619.000000
20009.000000,36554.000000,44015.000000,33550.000000
19940.000000,36471.000000,43888.000000,33413.000000
19886.000000,36417.000000,43793.000000,33326.000000
19867.000000,36409.000000,43744.000000,33304.000000
19827.000000,36367.000000,43656.000000,33226.000000
19756.000000,36278.000000,43524.000000,33092.000000
19708.000000,36224.000000,43440.000000,33025.000000
19692.000000,36215.000000,43400.000000,33013.000000
