660nm,730nm,850nm,940nm
25615.000000,45169.000000,6922.000000,5072.000000
25541.000000,45114.000000,6768.000000,4999.000000
25476.000000,45069.000000,6617.000000,4936.000000
25426.000000,45044.000000,6467.000000,4892.000000
25399.000000,45044.000000,6321.000000,4881.000000
25402.000000,45073.000000,6180.000000,4913.000000
25447.000000,45136.000000,6046.000000,5001.000000
25541.000000,45243.000000,5925.000000,5158.000000
25692.000000,45400.000000,5825.000000,5400.000000
25905.000000,45608.000000,5758.000000,5738.000000
26184.000000,45870.000000,5738.000000,6174.000000
26527.000000,46191.000000,5782.000000,6705.000000
26934.000000,46567.000000,5901.000000,7325.000000
27397.000000,46993.000000,6107.000000,8018.000000
27904.000000,47459.000000,6409.000000,8772.000000
28441.000000,47950.000000,6811.000000,9570.000000
28991.000000,48449.000000,7310.000000,10390.000000
29540.000000,48947.000000,7899.000000,11208.000000
30072.000000,49434.000000,8569.000000,12005.000000
30573.000000,49897.000000,9305.000000,12763.000000
31033.000000,50325.000000,10087.000000,13465.000000
31443.000000,50709.000000,10891.000000,14099.000000
31802.000000,51046.000000,11697.000000,14656.000000
32106.000000,51333.000000,12484.000000,15135.000000
32355.000000,51573.000000,13232.000000,15540.000000
32550.000000,51767.000000,13928.000000,15873.000000
32700.000000,51923.000000,14557.000000,16142.000000
32809.000000,52042.000000,15108.000000,16352.000000
32881.000000,52127.000000,15582.000000,16512.000000
32923.000000,52184.000000,15979.000000,16631.000000
32942.000000,52221.000000,16303.000000,16717.000000
32945.000000,52243.000000,16559.000000,16780.000000
32938.000000,52254.000000,16751.000000,16830.000000
32927.000000,52260.000000,16890.000000,16868.000000
32916.000000,52264.000000,16983.000000,16896.000000
32904.000000,52267.000000,17041.000000,16920.000000
32888.000000,52263.000000,17072.000000,16943.000000
32868.000000,52254.000000,17083.000000,16963.000000
32851.000000,52246.000000,17084.000000,16980.000000
32840.000000,52239.000000,17082.000000,16993.000000
32832.000000,52232.000000,17078.000000,17006.000000
32824.000000,52225.000000,17073.000000,17022.000000
32817.000000,52222.000000,17067.000000,17043.000000
32807.000000,52218.000000,17060.000000,17060.000000
32792.000000,52212.000000,17051.000000,17068.000000
32770.000000,52200.000000,17042.000000,17064.000000
32739.000000,52181.000000,17034.000000,17050.000000
32697.000000,52150.000000,17026.000000,17022.000000
32637.000000,52103.000000,17010.000000,16976.000000
32562.000000,52039.000000,16979.000000,16908.000000
32471.000000,51959.000000,16925.000000,16817.000000
32365.000000,51867.000000,16845.000000,16705.000000
32247.000000,51764.000000,16738.000000,16574.000000
32120.000000,51654.000000,16607.000000,16429.000000
31989.000000,51542.000000,16456.000000,16277.000000
31859.000000,51429.000000,16292.000000,16124.000000
31732.000000,51322.000000,16121.000000,15978.000000
31612.000000,51225.000000,15948.000000,15847.000000
31505.000000,51141.000000,15777.000000,15734.000000
31413.000000,51070.000000,15612.000000,15642.000000
31337.000000,51011.000000,15459.000000,15570.000000
31277.000000,50966.000000,15326.000000,15517.000000
31232.000000,50935.000000,15217.000000,15482.000000
31198.000000,50914.000000,15132.000000,15464.000000
31169.000000,50899.000000,15071.000000,15454.000000
31145.000000,50890.000000,15034.000000,15449.000000
31124.000000,50886.000000,15020.000000,15450.000000
31104.000000,50880.000000,15021.000000,15452.000000
31083.000000,50868.000000,15032.000000,15449.000000
31060.000000,50849.000000,15049.000000,15441.000000
31034.000000,50826.000000,15067.000000,15427.000000
30998.000000,50796.000000,15078.000000,15404.000000
30953.000000,50760.000000,15083.000000,15373.000000
30900.000000,50719.000000,15080.000000,15335.000000
30841.000000,50671.000000,15069.000000,15286.000000
30775.000000,50620.000000,15046.000000,15229.000000
30705.000000,50565.000000,15009.000000,15164.000000
30629.000000,50506.000000,14959.000000,15092.000000
30546.000000,50441.000000,14893.000000,15010.000000
30456.000000,50367.000000,14811.000000,14918.000000
30360.000000,50286.000000,14715.000000,14818.000000
30262.000000,50204.000000,14608.000000,14711.000000
30166.000000,50120.000000,14491.000000,14600.000000
30068.000000,50034.000000,14363.000000,14487.000000
29971.000000,49944.000000,14227.000000,14370.000000
29872.000000,49852.000000,14084.000000,14251.000000
29769.000000,49757.000000,13935.000000,14134.000000
29661.000000,49658.000000,13782.000000,14017.000000
29549.000000,49558.000000,13626.000000,13896.000000
29438.000000,49460.000000,13465.000000,13770.000000
29327.000000,49367.000000,13298.000000,13637.000000
29216.000000,49274.000000,13130.000000,13500.000000
29106.000000,49179.000000,12962.000000,13362.000000
28998.000000,49083.000000,12793.000000,13227.000000
28890.000000,48987.000000,12625.000000,13090.000000
28779.000000,48890.000000,12457.000000,12951.000000
28664.000000,48795.000000,12288.000000,12813.000000
28548.000000,48702.000000,12120.000000,12678.000000
28434.000000,48609.000000,11954.000000,12544.000000
28323.000000,48519.000000,11791.000000,12412.000000
28214.000000,48430.000000,11632.000000,12281.000000
28109.000000,48343.000000,11478.000000,12150.000000
28010.000000,48260.000000,11326.000000,12024.000000
27914.000000,48182.000000,11180.000000,11906.000000
27824.000000,48107.000000,11039.000000,11793.000000
27740.000000,48037.000000,10900.000000,11679.000000
27658.000000,47970.000000,10764.000000,11569.000000
27577.000000,47906.000000,10635.000000,11468.000000
27497.000000,47845.000000,10515.000000,11379.000000
27422.000000,47789.000000,10400.000000,11304.000000
27353.000000,47736.000000,10290.000000,11239.000000
27287.000000,47683.000000,10185.000000,11177.000000
27225.000000,47628.000000,10082.000000,11115.000000
27163.000000,47574.000000,9983.000000,11052.000000
27101.000000,47520.000000,9885.000000,10987.000000
27037.000000,47470.000000,9787.000000,10922.000000
26970.000000,47424.000000,9690.000000,10858.000000
26900.000000,47377.000000,9593.000000,10789.000000
26833.000000,47329.000000,9497.000000,10718.000000
26769.000000,47279.000000,9403.000000,10644.000000
26706.000000,47226.000000,9312.000000,10566.000000
26639.000000,47171.000000,9221.000000,10484.000000
26568.000000,47113.000000,9130.000000,10401.000000
26491.000000,47048.000000,9038.000000,10314.000000
26412.000000,46979.000000,8947.000000,10227.000000
26332.000000,46907.000000,8851.000000,10139.000000
26248.000000,46834.000000,8745.000000,10047.000000
26160.000000,46759.000000,8635.000000,9956.000000
26070.000000,46683.000000,8523.000000,9867.000000
25979.000000,46604.000000,8412.000000,9774.000000
25886.000000,46524.000000,8296.000000,9672.000000
25793.000000,46446.000000,8177.000000,9568.000000
25701.000000,46371.000000,8057.000000,9463.000000
25608.000000,46296.000000,7936.000000,9359.000000
25513.000000,46222.000000,7812.000000,9254.000000
25416.000000,46150.000000,7692.000000,9142.000000
25318.000000,46079.000000,7583.000000,9024.000000
25219.000000,46008.000000,7490.000000,8906.000000
25122.000000,45937.000000,7429.000000,8792.000000
25026.000000,45866.000000,7413.000000,8681.000000
24932.000000,45795.000000,7456.000000,8571.000000
24844.000000,45722.000000,7572.000000,8461.000000
24760.000000,45650.000000,7775.000000,8352.000000
24678.000000,45580.000000,8072.000000,8246.000000
24599.000000,45512.000000,8465.000000,8141.000000
24523.000000,45448.000000,8955.000000,8040.000000
24453.000000,45389.000000,9535.000000,7948.000000
24392.000000,45342.000000,10195.000000,7874.000000
24352.000000,45313.000000,10920.000000,7830.000000
24341.000000,45310.000000,11692.000000,7827.000000
24367.000000,45340.000000,12490.000000,7877.000000
24439.000000,45412.000000,13290.000000,7991.000000
24567.000000,45532.000000,14070.000000,8179.000000
24753.000000,45706.000000,14810.000000,8447.000000
25003.000000,45937.000000,15497.000000,8800.000000
25316.000000,46225.000000,16121.000000,9245.000000
25694.000000,46571.000000,16671.000000,9785.000000
26129.000000,46967.000000,17140.000000,10411.000000
26610.000000,47405.000000,17532.000000,11106.000000
27124.000000,47875.000000,17851.000000,11855.000000
27657.000000,48361.000000,18105.000000,12635.000000
28190.000000,48849.000000,18305.000000,13423.000000
28711.000000,49326.000000,18459.000000,14193.000000
29208.000000,49779.000000,18576.000000,14927.000000
29668.000000,50199.000000,18661.000000,15610.000000
30079.000000,50577.000000,18722.000000,16228.000000
30438.000000,50908.000000,18765.000000,16770.000000
30741.000000,51188.000000,18800.000000,17233.000000
30990.000000,51417.000000,18830.000000,17616.000000
31186.000000,51598.000000,18856.000000,17927.000000
31335.000000,51735.000000,18876.000000,18173.000000
31444.000000,51834.000000,18893.000000,18363.000000
31517.000000,51903.000000,18911.000000,18508.000000
31558.000000,51946.000000,18928.000000,18610.000000
31575.000000,51968.000000,18943.000000,18672.000000
31577.000000,51976.000000,18954.000000,18706.000000
31566.000000,51973.000000,18960.000000,18722.000000
31546.000000,51964.000000,18959.000000,18729.000000
31521.000000,51952.000000,18945.000000,18729.000000
31495.000000,51939.000000,18915.000000,18727.000000
31472.000000,51926.000000,18866.000000,18726.000000
31452.000000,51910.000000,18793.000000,18726.000000
31435.000000,51894.000000,18693.000000,18727.000000
31421.000000,51877.000000,18567.000000,18729.000000
31409.000000,51860.000000,18419.000000,18729.000000
31396.000000,51844.000000,18253.000000,18728.000000
31380.000000,51826.000000,18075.000000,18724.000000
31362.000000,51810.000000,17891.000000,18716.000000
31342.000000,51792.000000,17712.000000,18707.000000
31318.000000,51770.000000,17551.000000,18695.000000
31287.000000,51742.000000,17413.000000,18676.000000
31245.000000,51708.000000,17299.000000,18644.000000
31189.000000,51661.000000,17210.000000,18599.000000
31115.000000,51600.000000,17144.000000,18533.000000
31030.000000,51525.000000,17101.000000,18442.000000
30933.000000,51438.000000,17078.000000,18332.000000
30824.000000,51338.000000,17067.000000,18210.000000
30704.000000,51228.000000,17064.000000,18078.000000
30580.000000,51115.000000,17065.000000,17939.000000
30453.000000,51004.000000,17066.000000,17796.000000
30328.000000,50896.000000,17065.000000,17654.000000
30210.000000,50796.000000,17059.000000,17519.000000
30099.000000,50709.000000,17048.000000,17391.000000
30001.000000,50637.000000,17029.000000,17280.000000
29919.000000,50578.000000,16996.000000,17189.000000
29853.000000,50526.000000,16948.000000,17113.000000
29801.000000,50483.000000,16888.000000,17053.000000
29762.000000,50450.000000,16815.000000,17010.000000
29731.000000,50425.000000,16730.000000,16981.000000
29705.000000,50402.000000,16633.000000,16962.000000
29683.000000,50380.000000,16522.000000,16953.000000
29664.000000,50360.000000,16397.000000,16947.000000
29641.000000,50336.000000,16262.000000,16936.000000
29610.000000,50307.000000,16124.000000,16915.000000
29570.000000,50275.000000,15982.000000,16884.000000
29521.000000,50240.000000,15834.000000,16847.000000
29459.000000,50195.000000,15680.000000,16800.000000
29386.000000,50140.000000,15521.000000,16741.000000
29304.000000,50074.000000,15359.000000,16666.000000
29213.000000,49998.000000,15192.000000,16576.000000
29112.000000,49916.000000,15025.000000,16474.000000
29006.000000,49830.000000,14857.000000,16360.000000
28896.000000,49740.000000,14688.000000,16238.000000
28784.000000,49648.000000,14518.000000,16109.000000
28671.000000,49552.000000,14346.000000,15969.000000
28560.000000,49457.000000,14174.000000,15825.000000
28449.000000,49363.000000,14004.000000,15679.000000
28335.000000,49267.000000,13838.000000,15532.000000
28219.000000,49170.000000,13673.000000,15386.000000
28104.000000,49074.000000,13513.000000,15242.000000
27987.000000,48977.000000,13357.000000,15099.000000
27866.000000,48875.000000,13206.000000,14956.000000
27743.000000,48769.000000,13059.000000,14814.000000
27621.000000,48661.000000,12918.000000,14669.000000
27499.000000,48553.000000,12782.000000,14522.000000
27374.000000,48442.000000,12648.000000,14375.000000
27245.000000,48329.000000,12520.000000,14229.000000
27120.000000,48217.000000,12395.000000,14083.000000
26998.000000,48107.000000,12274.000000,13935.000000
26876.000000,47998.000000,12159.000000,13781.000000
26751.000000,47891.000000,12048.000000,13622.000000
26625.000000,47785.000000,11941.000000,13467.000000
26499.000000,47680.000000,11841.000000,13314.000000
26373.000000,47576.000000,11745.000000,13162.000000
26250.000000,47471.000000,11652.000000,13012.000000
26131.000000,47368.000000,11561.000000,12868.000000
26014.000000,47266.000000,11472.000000,12729.000000
25902.000000,47166.000000,11380.000000,12593.000000
25796.000000,47073.000000,11283.000000,12459.000000
25696.000000,46989.000000,11183.000000,12326.000000
25600.000000,46909.000000,11078.000000,12195.000000
25506.000000,46830.000000,10969.000000,12068.000000
25415.000000,46754.000000,10855.000000,11944.000000
25327.000000,46681.000000,10741.000000,11822.000000
25242.000000,46612.000000,10625.000000,11710.000000
25158.000000,46543.000000,10508.000000,11610.000000
25078.000000,46477.000000,10387.000000,11518.000000
24998.000000,46412.000000,10265.000000,11428.000000
24918.000000,46348.000000,10146.000000,11335.000000
24841.000000,46284.000000,10028.000000,11236.000000
24765.000000,46219.000000,9912.000000,11136.000000
24684.000000,46151.000000,9796.000000,11039.000000
24599.000000,46080.000000,9679.000000,10945.000000
24512.000000,46007.000000,9563.000000,10845.000000
24428.000000,45932.000000,9448.000000,10742.000000
24345.000000,45856.000000,9338.000000,10636.000000
24260.000000,45778.000000,9230.000000,10529.000000
24173.000000,45701.000000,9126.000000,10419.000000
24083.000000,45625.000000,9034.000000,10306.000000
23991.000000,45550.000000,8962.000000,10188.000000
23898.000000,45473.000000,8925.000000,10072.000000
23803.000000,45395.000000,8936.000000,9956.000000
23705.000000,45317.000000,9010.000000,9837.000000
23602.000000,45237.000000,9163.000000,9716.000000
23497.000000,45154.000000,9407.000000,9593.000000
23394.000000,45072.000000,9749.000000,9468.000000
23295.000000,44991.000000,10192.000000,9339.000000
23199.000000,44909.000000,10733.000000,9209.000000
23101.000000,44823.000000,11365.000000,9083.000000
22999.000000,44735.000000,12077.000000,8960.000000
22895.000000,44649.000000,12849.000000,8834.000000
22790.000000,44564.000000,13659.000000,8707.000000
22684.000000,44478.000000,14483.000000,8578.000000
22578.000000,44391.000000,15301.000000,8445.000000
22474.000000,44304.000000,16095.000000,8313.000000
22374.000000,44220.000000,16845.000000,8185.000000
22277.000000,44137.000000,17535.000000,8062.000000
22187.000000,44060.000000,18155.000000,7950.000000
22106.000000,43993.000000,18702.000000,7849.000000
22039.000000,43940.000000,19174.000000,7766.000000
21995.000000,43908.000000,19572.000000,7709.000000
21983.000000,43905.000000,19901.000000,7692.000000
22010.000000,43940.000000,20172.000000,7729.000000
22084.000000,44015.000000,20390.000000,7831.000000
22212.000000,44135.000000,20563.000000,8012.000000
22397.000000,44306.000000,20699.000000,8273.000000
22642.000000,44531.000000,20808.000000,8617.000000
22942.000000,44805.000000,20897.000000,9043.000000
23291.000000,45119.000000,20972.000000,9550.000000
23682.000000,45470.000000,21037.000000,10128.000000
24106.000000,45854.000000,21093.000000,10758.000000
24554.000000,46261.000000,21141.000000,11419.000000
25011.000000,46676.000000,21187.000000,12090.000000
25462.000000,47088.000000,21234.000000,12757.000000
25898.000000,47488.000000,21282.000000,13410.000000
26309.000000,47864.000000,21328.000000,14035.000000
26689.000000,48207.000000,21370.000000,14616.000000
27031.000000,48512.000000,21410.000000,15139.000000
27330.000000,48776.000000,21443.000000,15597.000000
27583.000000,48998.000000,21465.000000,15988.000000
27788.000000,49180.000000,21474.000000,16311.000000
27948.000000,49325.000000,21464.000000,16573.000000
28067.000000,49437.000000,21432.000000,16783.000000
28154.000000,49521.000000,21379.000000,16944.000000
28214.000000,49583.000000,21300.000000,17060.000000
28251.000000,49627.000000,21192.000000,17136.000000
28270.000000,49654.000000,21057.000000,17183.000000
28279.000000,49664.000000,20902.000000,17214.000000
28277.000000,49659.000000,20734.000000,17230.000000
28266.000000,49646.000000,20559.000000,17233.000000
28250.000000,49627.000000,20385.000000,17228.000000
28229.000000,49605.000000,20217.000000,17217.000000
28206.000000,49580.000000,20058.000000,17202.000000
28182.000000,49557.000000,19916.000000,17185.000000
28156.000000,49538.000000,19796.000000,17170.000000
28128.000000,49521.000000,19697.000000,17156.000000
28099.000000,49505.000000,19619.000000,17142.000000
28071.000000,49492.000000,19560.000000,17130.000000
28044.000000,49480.000000,19521.000000,17120.000000
28016.000000,49464.000000,19496.000000,17110.000000
27986.000000,49441.000000,19479.000000,17093.000000
27950.000000,49411.000000,19467.000000,17064.000000
27905.000000,49373.000000,19455.000000,17019.000000
27846.000000,49322.000000,19438.000000,16958.000000
27772.000000,49260.000000,19417.000000,16877.000000
27684.000000,49185.000000,19391.000000,16775.000000
27584.000000,49097.000000,19354.000000,16651.000000
27472.000000,48996.000000,19307.000000,16506.000000
27351.000000,48887.000000,19253.000000,16346.000000
27225.000000,48778.000000,19187.000000,16180.000000
27100.000000,48671.000000,19107.000000,16013.000000
26978.000000,48567.000000,19013.000000,15852.000000
26866.000000,48472.000000,18907.000000,15700.000000
26769.000000,48387.000000,18790.000000,15567.000000
26685.000000,48314.000000,18661.000000,15456.000000
26618.000000,48257.000000,18520.000000,15367.000000
26567.000000,48213.000000,18372.000000,15301.000000
26529.000000,48180.000000,18218.000000,15256.000000
26500.000000,48157.000000,18057.000000,15228.000000
26479.000000,48140.000000,17890.000000,15214.000000
26463.000000,48128.000000,17719.000000,15208.000000
26448.000000,48114.000000,17542.000000,15203.000000
26429.000000,48094.000000,17362.000000,15199.000000
26405.000000,48071.000000,17181.000000,15188.000000
26374.000000,48044.000000,17001.000000,15168.000000
26337.000000,48014.000000,16818.000000,15138.000000
26293.000000,47978.000000,16634.000000,15102.000000
26243.000000,47936.000000,16450.000000,15056.000000
26185.000000,47890.000000,16267.000000,14994.000000
26119.000000,47837.000000,16086.000000,14919.000000
26045.000000,47776.000000,15909.000000,14836.000000
25965.000000,47707.000000,15737.000000,14742.000000
25879.000000,47631.000000,15572.000000,14640.000000
25784.000000,47548.000000,15410.000000,14530.000000
25684.000000,47458.000000,15251.000000,14414.000000
25582.000000,47365.000000,15095.000000,14294.000000
25481.000000,47276.000000,14946.000000,14171.000000
25382.000000,47189.000000,14802.000000,14044.000000
25284.000000,47102.000000,14658.000000,13914.000000
25185.000000,47012.000000,14517.000000,13779.000000
25084.000000,46922.000000,14379.000000,13637.000000
24979.000000,46832.000000,14245.000000,13494.000000
24872.000000,46740.000000,14111.000000,13353.000000
24765.000000,46648.000000,13980.000000,13212.000000
24658.000000,46555.000000,13856.000000,13069.000000
24546.000000,46460.000000,13738.000000,12923.000000
24431.000000,46362.000000,13620.000000,12777.000000
24316.000000,46266.000000,13502.000000,12628.000000
24200.000000,46171.000000,13384.000000,12476.000000
24082.000000,46077.000000,13267.000000,12324.000000
23966.000000,45982.000000,13150.000000,12172.000000
23853.000000,45889.000000,13030.000000,12020.000000
23745.000000,45799.000000,12904.000000,11871.000000
23642.000000,45710.000000,12775.000000,11727.000000
23545.000000,45620.000000,12647.000000,11589.000000
23451.000000,45533.000000,12520.000000,11461.000000
23362.000000,45454.000000,12393.000000,11344.000000
23280.000000,45380.000000,12264.000000,11236.000000
23203.000000,45312.000000,12130.000000,11134.000000
23125.000000,45248.000000,11992.000000,11038.000000
23048.000000,45187.000000,11851.000000,10943.000000
22973.000000,45129.000000,11708.000000,10848.000000
22898.000000,45070.000000,11564.000000,10748.000000
22815.000000,45005.000000,11421.000000,10642.000000
22719.000000,44925.000000,11280.000000,10526.000000
22612.000000,44834.000000,11136.000000,10402.000000
22500.000000,44739.000000,10990.000000,10277.000000
22387.000000,44646.000000,10845.000000,10153.000000
22280.000000,44557.000000,10702.000000,10029.000000
22178.000000,44471.000000,10560.000000,9912.000000
22080.000000,44386.000000,10422.000000,9799.000000
21987.000000,44304.000000,10292.000000,9684.000000
21901.000000,44228.000000,10174.000000,9572.000000
21822.000000,44159.000000,10079.000000,9462.000000
21747.000000,44096.000000,10023.000000,9351.000000
21674.000000,44036.000000,10022.000000,9242.000000
21601.000000,43979.000000,10088.000000,9142.000000
21528.000000,43918.000000,10233.000000,9050.000000
21453.000000,43856.000000,10468.000000,8955.000000
21379.000000,43795.000000,10801.000000,8855.000000
21302.000000,43734.000000,11233.000000,8751.000000
21219.000000,43672.000000,11757.000000,8643.000000
21132.000000,43607.000000,12365.000000,8527.000000
21045.000000,43538.000000,13046.000000,8406.000000
20957.000000,43467.000000,13785.000000,8286.000000
20868.000000,43394.000000,14560.000000,8165.000000
20778.000000,43318.000000,15352.000000,8045.000000
20686.000000,43240.000000,16141.000000,7922.000000
20595.000000,43159.000000,16905.000000,7796.000000
20503.000000,43077.000000,17623.000000,7665.000000
20411.000000,42997.000000,18286.000000,7536.000000
20320.000000,42919.000000,18887.000000,7412.000000
20233.000000,42846.000000,19423.000000,7297.000000
20156.000000,42781.000000,19887.000000,7194.000000
20090.000000,42728.000000,20279.000000,7107.000000
20041.000000,42690.000000,20607.000000,7043.000000
20018.000000,42675.000000,20874.000000,7016.000000
20026.000000,42689.000000,21085.000000,7036.000000
20071.000000,42742.000000,21248.000000,7107.000000
20164.000000,42838.000000,21376.000000,7240.000000
20306.000000,42975.000000,21472.000000,7444.000000
20501.000000,43157.000000,21545.000000,7724.000000
20752.000000,43386.000000,21602.000000,8080.000000
21062.000000,43663.000000,21649.000000,8515.000000
21419.000000,43978.000000,21690.000000,9026.000000
21814.000000,44324.000000,21729.000000,9602.000000
22240.000000,44697.000000,21769.000000,10229.000000
22689.000000,45084.000000,21810.000000,10894.000000
23145.000000,45470.000000,21851.000000,11575.000000
23594.000000,45844.000000,21892.000000,12248.000000
24024.000000,46200.000000,21934.000000,12892.000000
24430.000000,46532.000000,21972.000000,13496.000000
24805.000000,46838.000000,22004.000000,14051.000000
25147.000000,47114.000000,22030.000000,14552.000000
25453.000000,47360.000000,22044.000000,14997.000000
25722.000000,47577.000000,22038.000000,15385.000000
25952.000000,47765.000000,22008.000000,15719.000000
26142.000000,47922.000000,21954.000000,15996.000000
26298.000000,48052.000000,21871.000000,16220.000000
26426.000000,48155.000000,21757.000000,16402.000000
26527.000000,48237.000000,21614.000000,16548.000000
26607.000000,48302.000000,21450.000000,16665.000000
26671.000000,48352.000000,21274.000000,16765.000000
26720.000000,48392.000000,21090.000000,16844.000000
26754.000000,48420.000000,20907.000000,16903.000000
26779.000000,48440.000000,20733.000000,16948.000000
26797.000000,48457.000000,20580.000000,16983.000000
26810.000000,48472.000000,20450.000000,17013.000000
26821.000000,48485.000000,20341.000000,17042.000000
26828.000000,48495.000000,20254.000000,17069.000000
26834.000000,48504.000000,20189.000000,17090.000000
26839.000000,48512.000000,20144.000000,17107.000000
26843.000000,48518.000000,20115.000000,17122.000000
26845.000000,48520.000000,20097.000000,17133.000000
26845.000000,48518.000000,20087.000000,17143.000000
26843.000000,48511.000000,20078.000000,17149.000000
26834.000000,48497.000000,20067.000000,17148.000000
26813.000000,48473.000000,20054.000000,17130.000000
26782.000000,48442.000000,20036.000000,17089.000000
26739.000000,48404.000000,20011.000000,17027.000000
26679.000000,48352.000000,19976.000000,16941.000000
26600.000000,48288.000000,19928.000000,16834.000000
26508.000000,48212.000000,19867.000000,16715.000000
26408.000000,48124.000000,19793.000000,16586.000000
26303.000000,48026.000000,19706.000000,16452.000000
26199.000000,47926.000000,19609.000000,16320.000000
26102.000000,47832.000000,19500.000000,16198.000000
26010.000000,47749.000000,19379.000000,16084.000000
25927.000000,47675.000000,19249.000000,15980.000000
25858.000000,47610.000000,19111.000000,15889.000000
25803.000000,47555.000000,18966.000000,15810.000000
25759.000000,47510.000000,18814.000000,15747.000000
25724.000000,47476.000000,18656.000000,15699.000000
25697.000000,47453.000000,18495.000000,15665.000000
25678.000000,47440.000000,18332.000000,15642.000000
25663.000000,47432.000000,18167.000000,15626.000000
25649.000000,47426.000000,17999.000000,15614.000000
25635.000000,47419.000000,17827.000000,15603.000000
25621.000000,47414.000000,17651.000000,15595.000000
25608.000000,47406.000000,17472.000000,15588.000000
25593.000000,47394.000000,17294.000000,15576.000000
25571.000000,47378.000000,17116.000000,15557.000000
25542.000000,47356.000000,16941.000000,15528.000000
25507.000000,47327.000000,16769.000000,15490.000000
25468.000000,47289.000000,16605.000000,15437.000000
25425.000000,47246.000000,16448.000000,15372.000000
25376.000000,47195.000000,16297.000000,15307.000000
25314.000000,47136.000000,16150.000000,15237.000000
25242.000000,47068.000000,16008.000000,15155.000000
25167.000000,46998.000000,15870.000000,15064.000000
25089.000000,46927.000000,15737.000000,14965.000000
25006.000000,46854.000000,15608.000000,14857.000000
24918.000000,46779.000000,15481.000000,14741.000000
24827.000000,46703.000000,15357.000000,14622.000000
24732.000000,46626.000000,15234.000000,14501.000000
24632.000000,46547.000000,15109.000000,14375.000000
24530.000000,46469.000000,14985.000000,14247.000000
24428.000000,46392.000000,14861.000000,14119.000000
24327.000000,46316.000000,14738.000000,13990.000000
24226.000000,46241.000000,14614.000000,13859.000000
24124.000000,46164.000000,14490.000000,13726.000000
24023.000000,46085.000000,14366.000000,13595.000000
23924.000000,46003.000000,14241.000000,13466.000000
23826.000000,45920.000000,14116.000000,13338.000000
23726.000000,45837.000000,13993.000000,13209.000000
23626.000000,45755.000000,13871.000000,13077.000000
23529.000000,45675.000000,13745.000000,12948.000000
23434.000000,45597.000000,13613.000000,12822.000000
23344.000000,45519.000000,13480.000000,12697.000000
23256.000000,45440.000000,13347.000000,12575.000000
23171.000000,45361.000000,13215.000000,12457.000000
23089.000000,45283.000000,13079.000000,12344.000000
23009.000000,45210.000000,12940.000000,12234.000000
22929.000000,45142.000000,12797.000000,12130.000000
22849.000000,45077.000000,12655.000000,12032.000000
22770.000000,45013.000000,12514.000000,11937.000000
22693.000000,44952.000000,12370.000000,11843.000000
22619.000000,44895.000000,12225.000000,11754.000000
22546.000000,44838.000000,12079.000000,11667.000000
22474.000000,44780.000000,11934.000000,11578.000000
22405.000000,44723.000000,11787.000000,11489.000000
22334.000000,44663.000000,11636.000000,11404.000000
22263.000000,44599.000000,11479.000000,11322.000000
22191.000000,44534.000000,11320.000000,11235.000000
22117.000000,44471.000000,11165.000000,11143.000000
22043.000000,44413.000000,11013.000000,11052.000000
21968.000000,44355.000000,10865.000000,10960.000000
21891.000000,44299.000000,10727.000000,10869.000000
21816.000000,44244.000000,10605.000000,10782.000000
21745.000000,44189.000000,10511.000000,10696.000000
21676.000000,44131.000000,10458.000000,10611.000000
21607.000000,44070.000000,10457.000000,10526.000000
21537.000000,44010.000000,10525.000000,10439.000000
21468.000000,43951.000000,10679.000000,10352.000000
21398.000000,43894.000000,10930.000000,10263.000000
21324.000000,43834.000000,11284.000000,10168.000000
21249.000000,43771.000000,11739.000000,10066.000000
21175.000000,43706.000000,12288.000000,9964.000000
21100.000000,43641.000000,12921.000000,9865.000000
21022.000000,43575.000000,13625.000000,9762.000000
20942.000000,43510.000000,14382.000000,9656.000000
20864.000000,43447.000000,15169.000000,9552.000000
20786.000000,43385.000000,15962.000000,9452.000000
20710.000000,43320.000000,16740.000000,9351.000000
20634.000000,43253.000000,17480.000000,9252.000000
20558.000000,43189.000000,18168.000000,9157.000000
20484.000000,43125.000000,18793.000000,9066.000000
20413.000000,43067.000000,19345.000000,8981.000000
20354.000000,43020.000000,19821.000000,8910.000000
20312.000000,42991.000000,20220.000000,8863.000000
20295.000000,42986.000000,20544.000000,8843.000000
20313.000000,43009.000000,20802.000000,8865.000000
20373.000000,43068.000000,21004.000000,8944.000000
20478.000000,43167.000000,21155.000000,9091.000000
20637.000000,43313.000000,21264.000000,9312.000000
20854.000000,43512.000000,21342.000000,9614.000000
21125.000000,43762.000000,21397.000000,10000.000000
21451.000000,44060.000000,21434.000000,10469.000000
21834.000000,44404.000000,21458.000000,11013.000000
22264.000000,44787.000000,21472.000000,11619.000000
22730.000000,45197.000000,21480.000000,12268.000000
23215.000000,45622.000000,21488.000000,12944.000000
23708.000000,46053.000000,21501.000000,13632.000000
24194.000000,46477.000000,21516.000000,14317.000000
24657.000000,46887.000000,21534.000000,14978.000000
25089.000000,47274.000000,21551.000000,15602.000000
25485.000000,47631.000000,21563.000000,16178.000000
25840.000000,47951.000000,21571.000000,16699.000000
26150.000000,48226.000000,21571.000000,17156.000000
26414.000000,48455.000000,21558.000000,17547.000000
26631.000000,48643.000000,21528.000000,17873.000000
26807.000000,48801.000000,21475.000000,18143.000000
26950.000000,48931.000000,21396.000000,18366.000000
27066.000000,49035.000000,21288.000000,18554.000000
27159.000000,49118.000000,21156.000000,18709.000000
27233.000000,49187.000000,21006.000000,18833.000000
27291.000000,49243.000000,20840.000000,18929.000000
27336.000000,49286.000000,20662.000000,19003.000000
27371.000000,49319.000000,20477.000000,19061.000000
27401.000000,49349.000000,20291.000000,19108.000000
27430.000000,49377.000000,20110.000000,19150.000000
27459.000000,49405.000000,19939.000000,19193.000000
27486.000000,49431.000000,19787.000000,19237.000000
27513.000000,49454.000000,19655.000000,19279.000000
27538.000000,49473.000000,19547.000000,19320.000000
27559.000000,49489.000000,19462.000000,19361.000000
27577.000000,49504.000000,19400.000000,19401.000000
27592.000000,49518.000000,19355.000000,19438.000000
27600.000000,49529.000000,19325.000000,19467.000000
27602.000000,49537.000000,19304.000000,19486.000000
27597.000000,49538.000000,19288.000000,19496.000000
27583.000000,49532.000000,19271.000000,19498.000000
27559.000000,49515.000000,19248.000000,19489.000000
27523.000000,49485.000000,19216.000000,19460.000000
27476.000000,49441.000000,19172.000000,19410.000000
27416.000000,49384.000000,19116.000000,19337.000000
27342.000000,49317.000000,19049.000000,19243.000000
27253.000000,49239.000000,18972.000000,19126.000000
27151.000000,49152.000000,18890.000000,18989.000000
27044.000000,49060.000000,18796.000000,18842.000000
26939.000000,48969.000000,18689.000000,18696.000000
26837.000000,48881.000000,18569.000000,18555.000000
26740.000000,48798.000000,18438.000000,18422.000000
26656.000000,48723.000000,18298.000000,18303.000000
26585.000000,48660.000000,18149.000000,18203.000000
26528.000000,48611.000000,17993.000000,18121.000000
26483.000000,48574.000000,17832.000000,18054.000000
26450.000000,48546.000000,17662.000000,18001.000000
26424.000000,48522.000000,17485.000000,17962.000000
26402.000000,48501.000000,17303.000000,17935.000000
26379.000000,48481.000000,17120.000000,17915.000000
26354.000000,48461.000000,16935.000000,17897.000000
26327.000000,48440.000000,16746.000000,17881.000000
26300.000000,48417.000000,16555.000000,17861.000000
26271.000000,48389.000000,16363.000000,17831.000000
26237.000000,48356.000000,16171.000000,17788.000000
26198.000000,48319.000000,15984.000000,17736.000000
26149.000000,48279.000000,15802.000000,17672.000000
26089.000000,48233.000000,15625.000000,17595.000000
26021.000000,48178.000000,15454.000000,17510.000000
25949.000000,48118.000000,15288.000000,17421.000000
25873.000000,48052.000000,15127.000000,17331.000000
25796.000000,47983.000000,14972.000000,17238.000000
25716.000000,47913.000000,14822.000000,17146.000000
25634.000000,47844.000000,14676.000000,17052.000000
25550.000000,47773.000000,14535.000000,16952.000000
25465.000000,47701.000000,14401.000000,16848.000000
25379.000000,47625.000000,14274.000000,16740.000000
25289.000000,47544.000000,14152.000000,16622.000000
25194.000000,47462.000000,14033.000000,16495.000000
25097.000000,47379.000000,13913.000000,16363.000000
24998.000000,47293.000000,13792.000000,16229.000000
24893.000000,47202.000000,13670.000000,16089.000000
24788.000000,47106.000000,13550.000000,15946.000000
24686.000000,47009.000000,13435.000000,15804.000000
24582.000000,46910.000000,13323.000000,15664.000000
24474.000000,46813.000000,13209.000000,15525.000000
24366.000000,46722.000000,13093.000000,15387.000000
24260.000000,46634.000000,12975.000000,15254.000000
24159.000000,46549.000000,12854.000000,15124.000000
24059.000000,46467.000000,12729.000000,14991.000000
23961.000000,46386.000000,12603.000000,14856.000000
23866.000000,46306.000000,12475.000000,14723.000000
23772.000000,46228.000000,12343.000000,14594.000000
23677.000000,46155.000000,12209.000000,14471.000000
23585.000000,46084.000000,12074.000000,14353.000000
23498.000000,46017.000000,11938.000000,14237.000000
23418.000000,45950.000000,11800.000000,14121.000000
23342.000000,45882.000000,11661.000000,14006.000000
23264.000000,45812.000000,11522.000000,13896.000000
23184.000000,45743.000000,11379.000000,13794.000000
23105.000000,45676.000000,11236.000000,13700.000000
23028.000000,45612.000000,11092.000000,13610.000000
22955.000000,45553.000000,10946.000000,13524.000000
22887.000000,45499.000000,10797.000000,13441.000000
22821.000000,45445.000000,10645.000000,13359.000000
22756.000000,45391.000000,10490.000000,13278.000000
22692.000000,45339.000000,10329.000000,13196.000000
22629.000000,45288.000000,10163.000000,13115.000000
22567.000000,45237.000000,9996.000000,13036.000000
22506.000000,45186.000000,9833.000000,12955.000000
22444.000000,45136.000000,9686.000000,12874.000000
22382.000000,45085.000000,9561.000000,12794.000000
22321.000000,45032.000000,9468.000000,12709.000000
22263.000000,44978.000000,9422.000000,12623.000000
22203.000000,44927.000000,9442.000000,12539.000000
22139.000000,44875.000000,9541.000000,12455.000000
22070.000000,44822.000000,9732.000000,12367.000000
21998.000000,44770.000000,10021.000000,12272.000000
21924.000000,44717.000000,10409.000000,12176.000000
21849.000000,44662.000000,10893.000000,12078.000000
21776.000000,44605.000000,11468.000000,11980.000000
21705.000000,44548.000000,12124.000000,11884.000000
21639.000000,44491.000000,12845.000000,11794.000000
21572.000000,44435.000000,13605.000000,11703.000000
21502.000000,44379.000000,14382.000000,11611.000000
21430.000000,44322.000000,15160.000000,11517.000000
21356.000000,44262.000000,15922.000000,11419.000000
21279.000000,44196.000000,16649.000000,11316.000000
21198.000000,44126.000000,17325.000000,11211.000000
21117.000000,44055.000000,17938.000000,11103.000000
21035.000000,43984.000000,18478.000000,10989.000000
20953.000000,43909.000000,18939.000000,10872.000000
20871.000000,43836.000000,19324.000000,10754.000000
20788.000000,43769.000000,19640.000000,10641.000000
20705.000000,43709.000000,19888.000000,10531.000000
20629.000000,43653.000000,20072.000000,10431.000000
20566.000000,43605.000000,20205.000000,10346.000000
20521.000000,43570.000000,20298.000000,10277.000000
20502.000000,43555.000000,20362.000000,10236.000000
20512.000000,43563.000000,20406.000000,10240.000000
20561.000000,43605.000000,20433.000000,10303.000000
20656.000000,43689.000000,20450.000000,10433.000000
20805.000000,43821.000000,20463.000000,10641.000000
21010.000000,44002.000000,20471.000000,10934.000000
21270.000000,44236.000000,20474.000000,11308.000000
21586.000000,44519.000000,20472.000000,11759.000000
21953.000000,44848.000000,20467.000000,12281.000000
22362.000000,45214.000000,20459.000000,12866.000000
22804.000000,45611.000000,20447.000000,13500.000000
23268.000000,46030.000000,20430.000000,14169.000000
23745.000000,46459.000000,20408.000000,14856.000000
24220.000000,46882.000000,20380.000000,15542.000000
24683.000000,47291.000000,20341.000000,16210.000000
25125.000000,47678.000000,20283.000000,16848.000000
25533.000000,48037.000000,20200.000000,17443.000000
25895.000000,48360.000000,20088.000000,17981.000000
26212.000000,48645.000000,19949.000000,18459.000000
26489.000000,48892.000000,19783.000000,18876.000000
26728.000000,49101.000000,19598.000000,19233.000000
26926.000000,49276.000000,19401.000000,19532.000000
27089.000000,49422.000000,19199.000000,19780.000000
27222.000000,49544.000000,19001.000000,19985.000000
27329.000000,49642.000000,18814.000000,20150.000000
27412.000000,49716.000000,18646.000000,20278.000000
27475.000000,49771.000000,18504.000000,20376.000000
27525.000000,49813.000000,18389.000000,20456.000000
27563.000000,49844.000000,18298.000000,20522.000000
27590.000000,49867.000000,18233.000000,20580.000000
27610.000000,49885.000000,18190.000000,20631.000000
27628.000000,49902.000000,18166.000000,20679.000000
27643.000000,49915.000000,18155.000000,20719.000000
27653.000000,49925.000000,18157.000000,20751.000000
27661.000000,49936.000000,18169.000000,20776.000000
27673.000000,49946.000000,18188.000000,20794.000000
27685.000000,49955.000000,18207.000000,20812.000000
27697.000000,49965.000000,18222.000000,20833.000000
27705.000000,49976.000000,18228.000000,20857.000000
27713.000000,49988.000000,18220.000000,20882.000000
27719.000000,49998.000000,18195.000000,20902.000000
27719.000000,49998.000000,18155.000000,20911.000000
27708.000000,49987.000000,18100.000000,20907.000000
27685.000000,49965.000000,18029.000000,20892.000000
27645.000000,49930.000000,17946.000000,20861.000000
27586.000000,49879.000000,17853.000000,20805.000000
27511.000000,49814.000000,17747.000000,20717.000000
27424.000000,49737.000000,17629.000000,20606.000000
27327.000000,49652.000000,17496.000000,20476.000000
27222.000000,49558.000000,17354.000000,20335.000000
27110.000000,49456.000000,17203.000000,20190.000000
26996.000000,49354.000000,17044.000000,20044.000000
26884.000000,49254.000000,16878.000000,19902.000000
26779.000000,49163.000000,16708.000000,19768.000000
26685.000000,49083.000000,16536.000000,19642.000000
26606.000000,49014.000000,16360.000000,19528.000000
26539.000000,48954.000000,16178.000000,19431.000000
26482.000000,48903.000000,15995.000000,19353.000000
26436.000000,48862.000000,15813.000000,19293.000000
26400.000000,48830.000000,15634.000000,19252.000000
26372.000000,48804.000000,15458.000000,19221.000000
26350.000000,48783.000000,15284.000000,19197.000000
26332.000000,48768.000000,15117.000000,19181.000000
26314.000000,48755.000000,14958.000000,19166.000000
26294.000000,48738.000000,14801.000000,19146.000000
26268.000000,48717.000000,14649.000000,19119.000000
26238.000000,48690.000000,14501.000000,19087.000000
26204.000000,48658.000000,14357.000000,19045.000000
26165.000000,48619.000000,14214.000000,18991.000000
26118.000000,48574.000000,14072.000000,18926.000000
26063.000000,48523.000000,13932.000000,18850.000000
26000.000000,48466.000000,13795.000000,18765.000000
25931.000000,48403.000000,13662.000000,18674.000000
25859.000000,48337.000000,13533.000000,18578.000000
25783.000000,48272.000000,13412.000000,18477.000000
25703.000000,48203.000000,13297.000000,18369.000000
25617.000000,48131.000000,13190.000000,18257.000000
25528.000000,48056.000000,13089.000000,18143.000000
25435.000000,47978.000000,12991.000000,18024.000000
25339.000000,47897.000000,12894.000000,17905.000000
25239.000000,47815.000000,12796.000000,17788.000000
25139.000000,47731.000000,12699.000000,17671.000000
25042.000000,47646.000000,12601.000000,17548.000000
24943.000000,47558.000000,12502.000000,17414.000000
24833.000000,47461.000000,12403.000000,17267.000000
24711.000000,47356.000000,12301.000000,17111.000000
24584.000000,47247.000000,12195.000000,16953.000000
24462.000000,47139.000000,12084.000000,16800.000000
24352.000000,47041.000000,11970.000000,16658.000000
24256.000000,46958.000000,11856.000000,16524.000000
24169.000000,46881.000000,11744.000000,16401.000000
24086.000000,46808.000000,11632.000000,16284.000000
24005.000000,46736.000000,11517.000000,16167.000000
23926.000000,46665.000000,11401.000000,16051.000000
23850.000000,46595.000000,11283.000000,15940.000000
23776.000000,46526.000000,11163.000000,15830.000000
23700.000000,46458.000000,11042.000000,15719.000000
23620.000000,46390.000000,10923.000000,15608.000000
23539.000000,46324.000000,10800.000000,15496.000000
23456.000000,46256.000000,10673.000000,15379.000000
23367.000000,46180.000000,10546.000000,15251.000000
23271.000000,46096.000000,10421.000000,15107.000000
23169.000000,46007.000000,10302.000000,14958.000000
23068.000000,45917.000000,10194.000000,14811.000000
22972.000000,45830.000000,10109.000000,14668.000000
22881.000000,45750.000000,10058.000000,14530.000000
22794.000000,45677.000000,10051.000000,14407.000000
22713.000000,45608.000000,10104.000000,14299.000000
22639.000000,45543.000000,10233.000000,14201.000000
22574.000000,45483.000000,10450.000000,14113.000000
22512.000000,45428.000000,10761.000000,14031.000000
22450.000000,45373.000000,11168.000000,13949.000000
22389.000000,45318.000000,11671.000000,13869.000000
22330.000000,45265.000000,12263.000000,13793.000000
22271.000000,45215.000000,12931.000000,13718.000000
22213.000000,45167.000000,13658.000000,13644.000000
22158.000000,45121.000000,14427.000000,13572.000000
22105.000000,45075.000000,15219.000000,13504.000000
22052.000000,45028.000000,16008.000000,13439.000000
21995.000000,44982.000000,16772.000000,13371.000000
21934.000000,44937.000000,17493.000000,13292.000000
21869.000000,44889.000000,18157.000000,13205.000000
21801.000000,44835.000000,18755.000000,13111.000000
21729.000000,44774.000000,19282.000000,13009.000000
21651.000000,44707.000000,19737.000000,12897.000000
21571.000000,44639.000000,20120.000000,12780.000000
21490.000000,44568.000000,20436.000000,12663.000000
21406.000000,44493.000000,20691.000000,12546.000000
21318.000000,44414.000000,20895.000000,12429.000000
21228.000000,44337.000000,21053.000000,12313.000000
21134.000000,44258.000000,21170.000000,12197.000000
21038.000000,44178.000000,21259.000000,12076.000000
20943.000000,44102.000000,21324.000000,11950.000000
20851.000000,44027.000000,21371.000000,11822.000000
20758.000000,43953.000000,21403.000000,11694.000000
20664.000000,43879.000000,21427.000000,11566.000000
20570.000000,43806.000000,21446.000000,11442.000000
20478.000000,43733.000000,21463.000000,11320.000000
20389.000000,43658.000000,21478.000000,11198.000000
20303.000000,43585.000000,21496.000000,11079.000000
20219.000000,43513.000000,21514.000000,10965.000000
20137.000000,43441.000000,21529.000000,10854.000000
20056.000000,43367.000000,21539.000000,10747.000000
19978.000000,43297.000000,21547.000000,10642.000000
19908.000000,43237.000000,21551.000000,10544.000000
19850.000000,43191.000000,21542.000000,10461.000000
19809.000000,43162.000000,21513.000000,10406.000000
19794.000000,43156.000000,21458.000000,10389.000000
19816.000000,43183.000000,21373.000000,10421.000000
19886.000000,43253.000000,21257.000000,10517.000000
20011.000000,43368.000000,21114.000000,10688.000000
20192.000000,43532.000000,20945.000000,10943.000000
20429.000000,43746.000000,20757.000000,11283.000000
20723.000000,44006.000000,20555.000000,11702.000000
21069.000000,44311.000000,20352.000000,12194.000000
21462.000000,44659.000000,20161.000000,12759.000000
21896.000000,45043.000000,19989.000000,13385.000000
22358.000000,45451.000000,19839.000000,14052.000000
22838.000000,45872.000000,19715.000000,14740.000000
23322.000000,46295.000000,19619.000000,15428.000000
23797.000000,46707.000000,19548.000000,16102.000000
24249.000000,47100.000000,19499.000000,16751.000000
24667.000000,47465.000000,19469.000000,17359.000000
25046.000000,47797.000000,19457.000000,17911.000000
25381.000000,48093.000000,19455.000000,18403.000000
25671.000000,48351.000000,19461.000000,18831.000000
25916.000000,48569.000000,19469.000000,19191.000000
26119.000000,48748.000000,19476.000000,19488.000000
26282.000000,48893.000000,19475.000000,19730.000000
26411.000000,49008.000000,19462.000000,19924.000000
26507.000000,49097.000000,19434.000000,20074.000000
26573.000000,49165.000000,19394.000000,20184.000000
26613.000000,49217.000000,19341.000000,20265.000000
26637.000000,49255.000000,19273.000000,20327.000000
26653.000000,49281.000000,19190.000000,20373.000000
26664.000000,49298.000000,19091.000000,20404.000000
26671.000000,49304.000000,18977.000000,20428.000000
26673.000000,49302.000000,18851.000000,20446.000000
26671.000000,49295.000000,18717.000000,20459.000000
26667.000000,49288.000000,18578.000000,20471.000000
26662.000000,49285.000000,18435.000000,20481.000000
26659.000000,49280.000000,18289.000000,20488.000000
26659.000000,49277.000000,18140.000000,20496.000000
26662.000000,49279.000000,17989.000000,20507.000000
26666.000000,49285.000000,17834.000000,20522.000000
26672.000000,49289.000000,17674.000000,20540.000000
26677.000000,49291.000000,17510.000000,20553.000000
26680.000000,49290.000000,17344.000000,20556.000000
26677.000000,49279.000000,17174.000000,20551.000000
26661.000000,49252.000000,17001.000000,20529.000000
26627.000000,49208.000000,16827.000000,20482.000000
26573.000000,49147.000000,16657.000000,20407.000000
26501.000000,49073.000000,16491.000000,20313.000000
26406.000000,48986.000000,16327.000000,20199.000000
26289.000000,48885.000000,16165.000000,20063.000000
26162.000000,48776.000000,16004.000000,19909.000000
26028.000000,48662.000000,15843.000000,19746.000000
25894.000000,48548.000000,15686.000000,19584.000000
25765.000000,48439.000000,15538.000000,19428.000000
25651.000000,48344.000000,15397.000000,19283.000000
25556.000000,48264.000000,15260.000000,19152.000000
25479.000000,48196.000000,15126.000000,19035.000000
25417.000000,48137.000000,14998.000000,18933.000000
25370.000000,48090.000000,14879.000000,18848.000000
25333.000000,48052.000000,14765.000000,18782.000000
25302.000000,48025.000000,14657.000000,18730.000000
25275.000000,48006.000000,14557.000000,18684.000000
25252.000000,47994.000000,14462.000000,18646.000000
25228.000000,47982.000000,14368.000000,18616.000000
25205.000000,47966.000000,14273.000000,18587.000000
25181.000000,47948.000000,14177.000000,18557.000000
25155.000000,47930.000000,14081.000000,18529.000000
25124.000000,47908.000000,13985.000000,18497.000000
25085.000000,47876.000000,13887.000000,18458.000000
25036.000000,47833.000000,13787.000000,18410.000000
24978.000000,47784.000000,13684.000000,18345.000000
24912.000000,47729.000000,13578.000000,18261.000000
24841.000000,47667.000000,13473.000000,18167.000000
24769.000000,47601.000000,13368.000000,18067.000000
24693.000000,47531.000000,13260.000000,17966.000000
24610.000000,47454.000000,13149.000000,17864.000000
24519.000000,47375.000000,13038.000000,17754.000000
24424.000000,47291.000000,12925.000000,17634.000000
24325.000000,47204.000000,12813.000000,17508.000000
24225.000000,47117.000000,12701.000000,17376.000000
24123.000000,47029.000000,12588.000000,17238.000000
24020.000000,46941.000000,12473.000000,17096.000000
23914.000000,46852.000000,12355.000000,16952.000000
23803.000000,46759.000000,12236.000000,16804.000000
23689.000000,46664.000000,12113.000000,16649.000000
23576.000000,46565.000000,11989.000000,16486.000000
23461.000000,46465.000000,11862.000000,16324.000000
23343.000000,46365.000000,11734.000000,16168.000000
23225.000000,46267.000000,11609.000000,16013.000000
23105.000000,46170.000000,11491.000000,15861.000000
22985.000000,46072.000000,11384.000000,15711.000000
22867.000000,45972.000000,11295.000000,15560.000000
22752.000000,45872.000000,11239.000000,15406.000000
22642.000000,45774.000000,11233.000000,15254.000000
22536.000000,45679.000000,11297.000000,15105.000000
22434.000000,45588.000000,11441.000000,14960.000000
22336.000000,45501.000000,11677.000000,14821.000000
22243.000000,45419.000000,12011.000000,14689.000000
22152.000000,45343.000000,12445.000000,14563.000000
22065.000000,45274.000000,12976.000000,14439.000000
21984.000000,45212.000000,13592.000000,14324.000000
21905.000000,45154.000000,14279.000000,14218.000000
21829.000000,45096.000000,15024.000000,14115.000000
21755.000000,45036.000000,15808.000000,14014.000000
21686.000000,44977.000000,16609.000000,13917.000000
21620.000000,44921.000000,17404.000000,13824.000000
21554.000000,44868.000000,18172.000000,13732.000000
21488.000000,44816.000000,18895.000000,13643.000000
21423.000000,44763.000000,19563.000000,13558.000000
21359.000000,44709.000000,20166.000000,13476.000000
21296.000000,44655.000000,20697.000000,13397.000000
21234.000000,44601.000000,21153.000000,13322.000000
21171.000000,44546.000000,21537.000000,13245.000000
21107.000000,44492.000000,21858.000000,13164.000000
21043.000000,44439.000000,22122.000000,13082.000000
20979.000000,44387.000000,22333.000000,13003.000000
20915.000000,44335.000000,22501.000000,12923.000000
20851.000000,44283.000000,22635.000000,12838.000000
20785.000000,44226.000000,22742.000000,12752.000000
20716.000000,44167.000000,22830.000000,12664.000000
20643.000000,44108.000000,22905.000000,12569.000000
20566.000000,44046.000000,22969.000000,12467.000000
20483.000000,43980.000000,23025.000000,12358.000000
20397.000000,43908.000000,23075.000000,12242.000000
20308.000000,43834.000000,23120.000000,12123.000000
20221.000000,43760.000000,23162.000000,12003.000000
20133.000000,43685.000000,23203.000000,11880.000000
20043.000000,43606.000000,23247.000000,11754.000000
19953.000000,43525.000000,23289.000000,11631.000000
19863.000000,43445.000000,23327.000000,11508.000000
19771.000000,43367.000000,23357.000000,11382.000000
19673.000000,43291.000000,23378.000000,11253.000000
19574.000000,43217.000000,23388.000000,11125.000000
19476.000000,43143.000000,23379.000000,10997.000000
19380.000000,43070.000000,23347.000000,10866.000000
19285.000000,42998.000000,23288.000000,10734.000000
19190.000000,42927.000000,23203.000000,10601.000000
19093.000000,42853.000000,23092.000000,10469.000000
19000.000000,42776.000000,22957.000000,10338.000000
18911.000000,42701.000000,22799.000000,10208.000000
18822.000000,42627.000000,22622.000000,10082.000000
18733.000000,42550.000000,22431.000000,9959.000000
18644.000000,42473.000000,22237.000000,9839.000000
18559.000000,42400.000000,22049.000000,9721.000000
18479.000000,42334.000000,21872.000000,9609.000000
18405.000000,42275.000000,21711.000000,9507.000000
18344.000000,42228.000000,21573.000000,9425.000000
18308.000000,42201.000000,21454.000000,9375.000000
18305.000000,42203.000000,21356.000000,9371.000000
18343.000000,42240.000000,21281.000000,9423.000000
18425.000000,42316.000000,21228.000000,9542.000000
18557.000000,42437.000000,21192.000000,9735.000000
18745.000000,42607.000000,21165.000000,10007.000000
18990.000000,42827.000000,21140.000000,10364.000000
19293.000000,43095.000000,21112.000000,10803.000000
19651.000000,43407.000000,21082.000000,11316.000000
20055.000000,43760.000000,21048.000000,11899.000000
20492.000000,44145.000000,21005.000000,12537.000000
20949.000000,44548.000000,20954.000000,13212.000000
21418.000000,44958.000000,20898.000000,13904.000000
21889.000000,45368.000000,20837.000000,14592.000000
22345.000000,45764.000000,20764.000000,15255.000000
22777.000000,46135.000000,20679.000000,15881.000000
23176.000000,46475.000000,20581.000000,16461.000000
23532.000000,46780.000000,20470.000000,16981.000000
23841.000000,47047.000000,20349.000000,17431.000000
24104.000000,47277.000000,20221.000000,17816.000000
24326.000000,47471.000000,20086.000000,18143.000000
24506.000000,47627.000000,19945.000000,18414.000000
24647.000000,47748.000000,19798.000000,18629.000000
24755.000000,47838.000000,19647.000000,18794.000000
24834.000000,47905.000000,19493.000000,18919.000000
24890.000000,47953.000000,19337.000000,19011.000000
24925.000000,47986.000000,19178.000000,19078.000000
24945.000000,48008.000000,19017.000000,19129.000000
24953.000000,48020.000000,18855.000000,19165.000000
24958.000000,48028.000000,18693.000000,19191.000000
24961.000000,48035.000000,18528.000000,19209.000000
24963.000000,48040.000000,18360.000000,19222.000000
24962.000000,48043.000000,18191.000000,19231.000000
24960.000000,48046.000000,18021.000000,19239.000000
24959.000000,48047.000000,17850.000000,19247.000000
24957.000000,48045.000000,17680.000000,19250.000000
24953.000000,48043.000000,17510.000000,19250.000000
24946.000000,48038.000000,17340.000000,19249.000000
24935.000000,48030.000000,17172.000000,19249.000000
24920.000000,48021.000000,17007.000000,19244.000000
24900.000000,48007.000000,16852.000000,19228.000000
24868.000000,47984.000000,16708.000000,19199.000000
24823.000000,47946.000000,16571.000000,19153.000000
24764.000000,47892.000000,16438.000000,19088.000000
24690.000000,47826.000000,16308.000000,19004.000000
24602.000000,47749.000000,16180.000000,18897.000000
24502.000000,47662.000000,16056.000000,18766.000000
24392.000000,47570.000000,15937.000000,18623.000000
24278.000000,47476.000000,15821.000000,18472.000000
24166.000000,47378.000000,15706.000000,18314.000000
24059.000000,47280.000000,15594.000000,18156.000000
23961.000000,47188.000000,15485.000000,18006.000000
23869.000000,47103.000000,15375.000000,17869.000000
23786.000000,47025.000000,15264.000000,17747.000000
23718.000000,46958.000000,15151.000000,17645.000000
23666.000000,46908.000000,15038.000000,17565.000000
23629.000000,46875.000000,14922.000000,17511.000000
23606.000000,46856.000000,14804.000000,17480.000000
23593.000000,46846.000000,14683.000000,17462.000000
23585.000000,46840.000000,14560.000000,17454.000000
23578.000000,46835.000000,14432.000000,17453.000000
23572.000000,46829.000000,14303.000000,17449.000000
23563.000000,46821.000000,14177.000000,17436.000000
23551.000000,46813.000000,14054.000000,17414.000000
23535.000000,46801.000000,13930.000000,17387.000000
23513.000000,46784.000000,13803.000000,17354.000000
23486.000000,46759.000000,13674.000000,17313.000000
23453.000000,46727.000000,13542.000000,17262.000000
23415.000000,46689.000000,13408.000000,17204.000000
23371.000000,46645.000000,13273.000000,17136.000000
23322.000000,46598.000000,13139.000000,17059.000000
23270.000000,46551.000000,13010.000000,16977.000000
23211.000000,46500.000000,12886.000000,16892.000000
23142.000000,46443.000000,12765.000000,16800.000000
23065.000000,46379.000000,12647.000000,16700.000000
22985.000000,46310.000000,12527.000000,16596.000000
22900.000000,46233.000000,12404.000000,16487.000000
22810.000000,46150.000000,12282.000000,16370.000000
22716.000000,46065.000000,12165.000000,16248.000000
22618.000000,45983.000000,12061.000000,16121.000000
22519.000000,45903.000000,11976.000000,15990.000000
22420.000000,45823.000000,11924.000000,15859.000000
22322.000000,45744.000000,11916.000000,15730.000000
22223.000000,45661.000000,11970.000000,15601.000000
22125.000000,45575.000000,12102.000000,15470.000000
22028.000000,45491.000000,12322.000000,15336.000000
21929.000000,45409.000000,12642.000000,15203.000000
21829.000000,45330.000000,13063.000000,15075.000000
21731.000000,45254.000000,13585.000000,14953.000000
21635.000000,45179.000000,14199.000000,14832.000000
21542.000000,45105.000000,14893.000000,14710.000000
21452.000000,45030.000000,15651.000000,14584.000000
21359.000000,44956.000000,16454.000000,14457.000000
21265.000000,44884.000000,17284.000000,14335.000000
21176.000000,44820.000000,18115.000000,14221.000000
21092.000000,44757.000000,18922.000000,14109.000000
21012.000000,44691.000000,19682.000000,13997.000000
20938.000000,44625.000000,20381.000000,13894.000000
20873.000000,44563.000000,21013.000000,13800.000000
20811.000000,44505.000000,21574.000000,13707.000000
20748.000000,44450.000000,22060.000000,13613.000000
20686.000000,44396.000000,22476.000000,13521.000000
20628.000000,44341.000000,22826.000000,13430.000000
20571.000000,44286.000000,23113.000000,13343.000000
20515.000000,44229.000000,23346.000000,13260.000000
20461.000000,44175.000000,23533.000000,13178.000000
20407.000000,44124.000000,23681.000000,13095.000000
20348.000000,44074.000000,23800.000000,13013.000000
20287.000000,44021.000000,23901.000000,12929.000000
20229.000000,43965.000000,23991.000000,12843.000000
20175.000000,43909.000000,24073.000000,12754.000000
20122.000000,43857.000000,24147.000000,12665.000000
20068.000000,43808.000000,24216.000000,12578.000000
20014.000000,43765.000000,24283.000000,12497.000000
19960.000000,43729.000000,24346.000000,12421.000000
19906.000000,43697.000000,24406.000000,12347.000000
19852.000000,43661.000000,24464.000000,12272.000000
19796.000000,43617.000000,24516.000000,12199.000000
19735.000000,43567.000000,24562.000000,12131.000000
19672.000000,43514.000000,24600.000000,12060.000000
19608.000000,43459.000000,24630.000000,11980.000000
19544.000000,43403.000000,24654.000000,11893.000000
19480.000000,43346.000000,24666.000000,11798.000000
19415.000000,43286.000000,24658.000000,11696.000000
19344.000000,43222.000000,24625.000000,11593.000000
19265.000000,43156.000000,24564.000000,11488.000000
19179.000000,43087.000000,24470.000000,11379.000000
19091.000000,43014.000000,24345.000000,11263.000000
19003.000000,42941.000000,24194.000000,11146.000000
18917.000000,42872.000000,24022.000000,11030.000000
18835.000000,42806.000000,23834.000000,10914.000000
18757.000000,42740.000000,23638.000000,10802.000000
18681.000000,42674.000000,23444.000000,10691.000000
18607.000000,42608.000000,23256.000000,10578.000000
18535.000000,42542.000000,23083.000000,10463.000000
18462.000000,42473.000000,22933.000000,10349.000000
18389.000000,42406.000000,22808.000000,10243.000000
18319.000000,42348.000000,22708.000000,10150.000000
18260.000000,42300.000000,22629.000000,10075.000000
18222.000000,42266.000000,22568.000000,10022.000000
18214.000000,42256.000000,22522.000000,10002.000000
18243.000000,42280.000000,22489.000000,10026.000000
18311.000000,42343.000000,22464.000000,10108.000000
18422.000000,42445.000000,22442.000000,10258.000000
18583.000000,42593.000000,22422.000000,10482.000000
18799.000000,42790.000000,22397.000000,10787.000000
19071.000000,43035.000000,22363.000000,11178.000000
19396.000000,43326.000000,22318.000000,11650.000000
19769.000000,43657.000000,22261.000000,12193.000000
20187.000000,44025.000000,22192.000000,12798.000000
20639.000000,44417.000000,22111.000000,13453.000000
21108.000000,44820.000000,22017.000000,14137.000000
21578.000000,45226.000000,21913.000000,14828.000000
22038.000000,45627.000000,21798.000000,15509.000000
22479.000000,46014.000000,21673.000000,16162.000000
22892.000000,46375.000000,21538.000000,16769.000000
23274.000000,46708.000000,21394.000000,17319.000000
23617.000000,47008.000000,21244.000000,17808.000000
23917.000000,47271.000000,21086.000000,18237.000000
24172.000000,47495.000000,20923.000000,18603.000000
24383.000000,47685.000000,20758.000000,18909.000000
24552.000000,47841.000000,20589.000000,19159.000000
24686.000000,47963.000000,20414.000000,19358.000000
24787.000000,48055.000000,20235.000000,19509.000000
24861.000000,48122.000000,20056.000000,19626.000000
24914.000000,48168.000000,19875.000000,19721.000000
24949.000000,48200.000000,19693.000000,19788.000000
24972.000000,48221.000000,19508.000000,19830.000000
24986.000000,48237.000000,19322.000000,19855.000000
24991.000000,48248.000000,19136.000000,19870.000000
24991.000000,48253.000000,18951.000000,19878.000000
24991.000000,48253.000000,18768.000000,19882.000000
24989.000000,48250.000000,18588.000000,19887.000000
24986.000000,48246.000000,18407.000000,19893.000000
24981.000000,48241.000000,18228.000000,19894.000000
24976.000000,48237.000000,18058.000000,19892.000000
24970.000000,48234.000000,17899.000000,19893.000000
24965.000000,48231.000000,17751.000000,19896.000000
24958.000000,48226.000000,17608.000000,19896.000000
24947.000000,48218.000000,17471.000000,19890.000000
24934.000000,48207.000000,17341.000000,19879.000000
24915.000000,48187.000000,17217.000000,19861.000000
24886.000000,48155.000000,17097.000000,19827.000000
24839.000000,48110.000000,16982.000000,19774.000000
24774.000000,48052.000000,16872.000000,19703.000000
24693.000000,47982.000000,16761.000000,19613.000000
24601.000000,47901.000000,16650.000000,19502.000000
24498.000000,47814.000000,16540.000000,19371.000000
24388.000000,47722.000000,16428.000000,19224.000000
24277.000000,47624.000000,16313.000000,19075.000000
24168.000000,47523.000000,16201.000000,18929.000000
24066.000000,47425.000000,16092.000000,18791.000000
23969.000000,47335.000000,15985.000000,18668.000000
23883.000000,47257.000000,15876.000000,18565.000000
23811.000000,47192.000000,15766.000000,18478.000000
23755.000000,47143.000000,15654.000000,18403.000000
23715.000000,47110.000000,15538.000000,18338.000000
23690.000000,47088.000000,15418.000000,18293.000000
23674.000000,47074.000000,15294.000000,18267.000000
23663.000000,47066.000000,15166.000000,18248.000000
23656.000000,47063.000000,15039.000000,18230.000000
23653.000000,47061.000000,14908.000000,18216.000000
23651.000000,47060.000000,14773.000000,18206.000000
23645.000000,47056.000000,14638.000000,18193.000000
23634.000000,47048.000000,14507.000000,18175.000000
23615.000000,47031.000000,14374.000000,18152.000000
23585.000000,47005.000000,14235.000000,18122.000000
23546.000000,46973.000000,14090.000000,18082.000000
23500.000000,46939.000000,13944.000000,18032.000000
23449.000000,46902.000000,13799.000000,17978.000000
23392.000000,46860.000000,13655.000000,17917.000000
23329.000000,46810.000000,13511.000000,17845.000000
23262.000000,46754.000000,13368.000000,17762.000000
23187.000000,46694.000000,13227.000000,17672.000000
23106.000000,46631.000000,13088.000000,17568.000000
23023.000000,46565.000000,12953.000000,17451.000000
22938.000000,46493.000000,12823.000000,17329.000000
22853.000000,46413.000000,12698.000000,17206.000000
22768.000000,46329.000000,12584.000000,17079.000000
22683.000000,46246.000000,12485.000000,16950.000000
22597.000000,46163.000000,12415.000000,16820.000000
22505.000000,46081.000000,12387.000000,16688.000000
22406.000000,45999.000000,12417.000000,16550.000000
22303.000000,45917.000000,12519.000000,16408.000000
22200.000000,45831.000000,12700.000000,16269.000000
22095.000000,45740.000000,12974.000000,16136.000000
21992.000000,45647.000000,13351.000000,16002.000000
21894.000000,45554.000000,13834.000000,15862.000000
21801.000000,45466.000000,14414.000000,15719.000000
21709.000000,45381.000000,15080.000000,15578.000000
21617.000000,45300.000000,15813.000000,15440.000000
21526.000000,45223.000000,16591.000000,15307.000000
21437.000000,45148.000000,17391.000000,15178.000000
21349.000000,45073.000000,18194.000000,15054.000000
21265.000000,44998.000000,18983.000000,14935.000000
21184.000000,44927.000000,19738.000000,14822.000000
21105.000000,44859.000000,20438.000000,14710.000000
21028.000000,44792.000000,21072.000000,14598.000000
20954.000000,44728.000000,21639.000000,14487.000000
20884.000000,44667.000000,22135.000000,14380.000000
20817.000000,44609.000000,22558.000000,14278.000000
20754.000000,44555.000000,22912.000000,14177.000000
20694.000000,44506.000000,23204.000000,14084.000000
20636.000000,44459.000000,23440.000000,14002.000000
20579.000000,44411.000000,23625.000000,13927.000000
20526.000000,44362.000000,23765.000000,13855.000000
20475.000000,44316.000000,23871.000000,13784.000000
20422.000000,44273.000000,23953.000000,13710.000000
20365.000000,44232.000000,24013.000000,13633.000000
20304.000000,44191.000000,24058.000000,13552.000000
20244.000000,44150.000000,24091.000000,13470.000000
20184.000000,44108.000000,24115.000000,13389.000000
20124.000000,44064.000000,24132.000000,13309.000000
20063.000000,44017.000000,24147.000000,13232.000000
19997.000000,43968.000000,24162.000000,13154.000000
19926.000000,43915.000000,24178.000000,13075.000000
19854.000000,43858.000000,24191.000000,12990.000000
19783.000000,43798.000000,24200.000000,12900.000000
19713.000000,43736.000000,24204.000000,12806.000000
19642.000000,43674.000000,24204.000000,12709.000000
19571.000000,43609.000000,24197.000000,12607.000000
19503.000000,43540.000000,24178.000000,12502.000000
19435.000000,43471.000000,24142.000000,12398.000000
19364.000000,43403.000000,24082.000000,12298.000000
19288.000000,43338.000000,23996.000000,12199.000000
19209.000000,43273.000000,23885.000000,12099.000000
19130.000000,43211.000000,23748.000000,11998.000000
19050.000000,43147.000000,23585.000000,11893.000000
18967.000000,43081.000000,23399.000000,11780.000000
18881.000000,43013.000000,23198.000000,11662.000000
18798.000000,42949.000000,22989.000000,11542.000000
18720.000000,42885.000000,22779.000000,11419.000000
18644.000000,42820.000000,22575.000000,11295.000000
18565.000000,42752.000000,22385.000000,11169.000000
18484.000000,42682.000000,22214.000000,11048.000000
18401.000000,42611.000000,22064.000000,10931.000000
18323.000000,42541.000000,21936.000000,10819.000000
18247.000000,42472.000000,21832.000000,10706.000000
18170.000000,42404.000000,21750.000000,10594.000000
18091.000000,42337.000000,21689.000000,10486.000000
18012.000000,42272.000000,21643.000000,10379.000000
17933.000000,42210.000000,21608.000000,10269.000000
17859.000000,42152.000000,21580.000000,10163.000000
17795.000000,42100.000000,21552.000000,10072.000000
17747.000000,42060.000000,21520.000000,10005.000000
17721.000000,42040.000000,21479.000000,9971.000000
17722.000000,42049.000000,21426.000000,9981.000000
17761.000000,42092.000000,21362.000000,10047.000000
17845.000000,42175.000000,21285.000000,10175.000000
17985.000000,42309.000000,21195.000000,10373.000000
18188.000000,42498.000000,21094.000000,10654.000000
18453.000000,42742.000000,20979.000000,11030.000000
18781.000000,43039.000000,20852.000000,11492.000000
19169.000000,43382.000000,20715.000000,12035.000000
19611.000000,43768.000000,20567.000000,12658.000000
20095.000000,44192.000000,20411.000000,13352.000000
20607.000000,44640.000000,20249.000000,14089.000000
21135.000000,45098.000000,20083.000000,14846.000000
21663.000000,45557.000000,19914.000000,15604.000000
22178.000000,46002.000000,19743.000000,16346.000000
22665.000000,46424.000000,19570.000000,17052.000000
23114.000000,46814.000000,19392.000000,17707.000000
23520.000000,47165.000000,19210.000000,18299.000000
23880.000000,47471.000000,19022.000000,18815.000000
24184.000000,47732.000000,18832.000000,19253.000000
24433.000000,47948.000000,18644.000000,19620.000000
24633.000000,48123.000000,18459.000000,19924.000000
24791.000000,48260.000000,18275.000000,20165.000000
24911.000000,48363.000000,18091.000000,20347.000000
24999.000000,48436.000000,17912.000000,20482.000000
25062.000000,48486.000000,17737.000000,20578.000000
25106.000000,48520.000000,17565.000000,20640.000000
25137.000000,48544.000000,17395.000000,20676.000000
25159.000000,48561.000000,17226.000000,20701.000000
25171.000000,48573.000000,17059.000000,20720.000000
25178.000000,48582.000000,16894.000000,20731.000000
25185.000000,48591.000000,16737.000000,20740.000000
25196.000000,48601.000000,16587.000000,20749.000000
25209.000000,48612.000000,16439.000000,20760.000000
25224.000000,48621.000000,16294.000000,20775.000000
25239.000000,48631.000000,16156.000000,20796.000000
25252.000000,48639.000000,16022.000000,20821.000000
25263.000000,48645.000000,15890.000000,20849.000000
25272.000000,48651.000000,15762.000000,20876.000000
25276.000000,48657.000000,15641.000000,20899.000000
25273.000000,48661.000000,15527.000000,20916.000000
25264.000000,48660.000000,15414.000000,20926.000000
25248.000000,48651.000000,15303.000000,20925.000000
25222.000000,48631.000000,15194.000000,20908.000000
25186.000000,48600.000000,15089.000000,20870.000000
25139.000000,48553.000000,14982.000000,20811.000000
25075.000000,48494.000000,14868.000000,20736.000000
24996.000000,48425.000000,14750.000000,20640.000000
24902.000000,48347.000000,14629.000000,20519.000000
24797.000000,48259.000000,14501.000000,20380.000000
24686.000000,48164.000000,14367.000000,20230.000000
24569.000000,48066.000000,14230.000000,20074.000000
24453.000000,47967.000000,14093.000000,19918.000000
24342.000000,47872.000000,13954.000000,19771.000000
24241.000000,47784.000000,13809.000000,19633.000000
24155.000000,47706.000000,13658.000000,19512.000000
24083.000000,47639.000000,13502.000000,19413.000000
24026.000000,47583.000000,13339.000000,19333.000000
23980.000000,47541.000000,13171.000000,19269.000000
23942.000000,47511.000000,13001.000000,19221.000000
23912.000000,47487.000000,12831.000000,19185.000000
23886.000000,47467.000000,12661.000000,19159.000000
23865.000000,47449.000000,12490.000000,19138.000000
23849.000000,47432.000000,12318.000000,19119.000000
23833.000000,47417.000000,12140.000000,19104.000000
23810.000000,47401.000000,11958.000000,19088.000000
23782.000000,47378.000000,11775.000000,19066.000000
23749.000000,47351.000000,11592.000000,19036.000000
23713.000000,47320.000000,11409.000000,18991.000000
23673.000000,47284.000000,11227.000000,18928.000000
23625.000000,47244.000000,11053.000000,18853.000000
23571.000000,47199.000000,10891.000000,18768.000000
23505.000000,47145.000000,10746.000000,18674.000000
23429.000000,47083.000000,10624.000000,18574.000000
23346.000000,47015.000000,10539.000000,18470.000000
23257.000000,46946.000000,10504.000000,18365.000000
23166.000000,46876.000000,10533.000000,18255.000000
23074.000000,46800.000000,10636.000000,18137.000000
22980.000000,46721.000000,10827.000000,18010.000000
22883.000000,46640.000000,11110.000000,17880.000000
22786.000000,46558.000000,11485.000000,17743.000000
22686.000000,46473.000000,11954.000000,17601.000000
22585.000000,46387.000000,12515.000000,17460.000000
22483.000000,46300.000000,13156.000000,17321.000000
22379.000000,46209.000000,13861.000000,17183.000000
22272.000000,46114.000000,14612.000000,17039.000000
22165.000000,46019.000000,15389.000000,16889.000000
22057.000000,45924.000000,16170.000000,16738.000000
21951.000000,45829.000000,16934.000000,16584.000000
21844.000000,45733.000000,17663.000000,16429.000000
21736.000000,45636.000000,18340.000000,16278.000000
21627.000000,45538.000000,18949.000000,16132.000000
21518.000000,45440.000000,19483.000000,15989.000000
21408.000000,45345.000000,19940.000000,15847.000000
21300.000000,45255.000000,20323.000000,15707.000000
21197.000000,45167.000000,20635.000000,15573.000000
21101.000000,45080.000000,20881.000000,15446.000000
21007.000000,44998.000000,21077.000000,15318.000000
20914.000000,44921.000000,21232.000000,15191.000000
20824.000000,44849.000000,21351.000000,15071.000000
20737.000000,44780.000000,21435.000000,14959.000000
20654.000000,44714.000000,21491.000000,14852.000000
20575.000000,44649.000000,21527.000000,14747.000000
20497.000000,44585.000000,21551.000000,14647.000000
20419.000000,44520.000000,21566.000000,14550.000000
20343.000000,44456.000000,21575.000000,14454.000000
20271.000000,44394.000000,21582.000000,14358.000000
20203.000000,44335.000000,21587.000000,14265.000000
20137.000000,44280.000000,21590.000000,14176.000000
20076.000000,44229.000000,21597.000000,14091.000000
20020.000000,44180.000000,21608.000000,14010.000000
19964.000000,44130.000000,21618.000000,13931.000000
19907.000000,44078.000000,21621.000000,13852.000000
19852.000000,44027.000000,21612.000000,13768.000000
19801.000000,43981.000000,21590.000000,13681.000000
19753.000000,43938.000000,21547.000000,13601.000000
19705.000000,43898.000000,21478.000000,13526.000000
19654.000000,43860.000000,21383.000000,13453.000000
19602.000000,43825.000000,21261.000000,13383.000000
19550.000000,43788.000000,21107.000000,13312.000000
19497.000000,43746.000000,20926.000000,13236.000000
19445.000000,43700.000000,20725.000000,13157.000000
19392.000000,43653.000000,20508.000000,13078.000000
19336.000000,43604.000000,20285.000000,12996.000000
19271.000000,43551.000000,20063.000000,12909.000000
19199.000000,43493.000000,19853.000000,12816.000000
19121.000000,43431.000000,19664.000000,12715.000000
19041.000000,43364.000000,19500.000000,12606.000000
18958.000000,43292.000000,19361.000000,12487.000000
18868.000000,43214.000000,19247.000000,12362.000000
18775.000000,43131.000000,19158.000000,12233.000000
18680.000000,43046.000000,19091.000000,12103.000000
18587.000000,42961.000000,19044.000000,11970.000000
18497.000000,42879.000000,19013.000000,11834.000000
18409.000000,42797.000000,18988.000000,11695.000000
18322.000000,42718.000000,18966.000000,11560.000000
18232.000000,42640.000000,18945.000000,11428.000000
18139.000000,42560.000000,18924.000000,11298.000000
18049.000000,42478.000000,18895.000000,11169.000000
17961.000000,42399.000000,18854.000000,11039.000000
17875.000000,42324.000000,18797.000000,10909.000000
17791.000000,42253.000000,18724.000000,10776.000000
17710.000000,42184.000000,18633.000000,10646.000000
17630.000000,42116.000000,18526.000000,10521.000000
17548.000000,42049.000000,18402.000000,10405.000000
17467.000000,41985.000000,18266.000000,10298.000000
17391.000000,41926.000000,18119.000000,10202.000000
17324.000000,41874.000000,17965.000000,10120.000000
17272.000000,41837.000000,17805.000000,10054.000000
17245.000000,41823.000000,17638.000000,10014.000000
17252.000000,41838.000000,17462.000000,10013.000000
17299.000000,41889.000000,17276.000000,10065.000000
17393.000000,41981.000000,17088.000000,10187.000000
17544.000000,42122.000000,16900.000000,10397.000000
17756.000000,42315.000000,16711.000000,10699.000000
18032.000000,42560.000000,16518.000000,11094.000000
18370.000000,42857.000000,16323.000000,11580.000000
18768.000000,43205.000000,16130.000000,12149.000000
19221.000000,43596.000000,15939.000000,12787.000000
19712.000000,44020.000000,15748.000000,13477.000000
20227.000000,44465.000000,15556.000000,14204.000000
20753.000000,44921.000000,15364.000000,14951.000000
21277.000000,45377.000000,15172.000000,15695.000000
21784.000000,45819.000000,14980.000000,16416.000000
22261.000000,46237.000000,14790.000000,17100.000000
22700.000000,46621.000000,14601.000000,17734.000000
23092.000000,46959.000000,14417.000000,18300.000000
23430.000000,47250.000000,14241.000000,18786.000000
23713.000000,47496.000000,14076.000000,19190.000000
23945.000000,47700.000000,13919.000000,19518.000000
24126.000000,47863.000000,13768.000000,19777.000000
24260.000000,47985.000000,13621.000000,19975.000000
24353.000000,48072.000000,13475.000000,20125.000000
24412.000000,48130.000000,13330.000000,20233.000000
24445.000000,48165.000000,13187.000000,20305.000000
24460.000000,48182.000000,13049.000000,20346.000000
24461.000000,48184.000000,12915.000000,20359.000000
24452.000000,48173.000000,12785.000000,20351.000000
24435.000000,48158.000000,12657.000000,20335.000000
24418.000000,48145.000000,12531.000000,20315.000000
24401.000000,48132.000000,12409.000000,20295.000000
24384.000000,48118.000000,12288.000000,20276.000000
24366.000000,48104.000000,12168.000000,20256.000000
24350.000000,48093.000000,12049.000000,20242.000000
24336.000000,48085.000000,11932.000000,20233.000000
24323.000000,48079.000000,11818.000000,20227.000000
24308.000000,48072.000000,11706.000000,20223.000000
24294.000000,48062.000000,11590.000000,20221.000000
24281.000000,48052.000000,11474.000000,20216.000000
24269.000000,48039.000000,11356.000000,20208.000000
24256.000000,48019.000000,11238.000000,20196.000000
24233.000000,47991.000000,11119.000000,20174.000000
24195.000000,47953.000000,10996.000000,20136.000000
24141.000000,47905.000000,10869.000000,20081.000000
24069.000000,47842.000000,10735.000000,20004.000000
23981.000000,47767.000000,10598.000000,19901.000000
23883.000000,47681.000000,10458.000000,19776.000000
23781.000000,47588.000000,10314.000000,19633.000000
23673.000000,47489.000000,10165.000000,19477.000000
23559.000000,47388.000000,10012.000000,19316.000000
23437.000000,47287.000000,9857.000000,19154.000000
23313.000000,47187.000000,9700.000000,18992.000000
23195.000000,47089.000000,9539.000000,18830.000000
23093.000000,46998.000000,9375.000000,18676.000000
23006.000000,46917.000000,9211.000000,18543.000000
22932.000000,46846.000000,9054.000000,18437.000000
22870.000000,46788.000000,8915.000000,18356.000000
22822.000000,46745.000000,8804.000000,18294.000000
22786.000000,46716.000000,8731.000000,18252.000000
22758.000000,46697.000000,8707.000000,18229.000000
22738.000000,46683.000000,8747.000000,18217.000000
22724.000000,46674.000000,8862.000000,18211.000000
22713.000000,46667.000000,9062.000000,18204.000000
22698.000000,46655.000000,9354.000000,18189.000000
22675.000000,46636.000000,9740.000000,18162.000000
22642.000000,46611.000000,10222.000000,18122.000000
22601.000000,46581.000000,10794.000000,18067.000000
22552.000000,46543.000000,11444.000000,17997.000000
22494.000000,46497.000000,12156.000000,17915.000000
22430.000000,46442.000000,12916.000000,17829.000000
22362.000000,46381.000000,13701.000000,17738.000000
22286.000000,46313.000000,14485.000000,17639.000000
22204.000000,46238.000000,15246.000000,17529.000000
22118.000000,46158.000000,15967.000000,17411.000000
22030.000000,46076.000000,16630.000000,17283.000000
21940.000000,45990.000000,17227.000000,17153.000000
21845.000000,45901.000000,17755.000000,17021.000000
21745.000000,45813.000000,18207.000000,16885.000000
21640.000000,45725.000000,18585.000000,16743.000000
21530.000000,45633.000000,18892.000000,16598.000000
21416.000000,45535.000000,19135.000000,16445.000000
21298.000000,45433.000000,19321.000000,16283.000000
21176.000000,45329.000000,19456.000000,16120.000000
21052.000000,45223.000000,19548.000000,15959.000000
20929.000000,45119.000000,19607.000000,15792.000000
20804.000000,45018.000000,19643.000000,15618.000000
20679.000000,44916.000000,19664.000000,15442.000000
20558.000000,44813.000000,19675.000000,15270.000000
20436.000000,44711.000000,19680.000000,15103.000000
20311.000000,44612.000000,19685.000000,14939.000000
20185.000000,44512.000000,19692.000000,14780.000000
20064.000000,44413.000000,19701.000000,14626.000000
19945.000000,44319.000000,19709.000000,14470.000000
19828.000000,44227.000000,19717.000000,14314.000000
19714.000000,44135.000000,19725.000000,14163.000000
19602.000000,44042.000000,19729.000000,14018.000000
19492.000000,43948.000000,19725.000000,13873.000000
19385.000000,43857.000000,19707.000000,13726.000000
19281.000000,43767.000000,19670.000000,13580.000000
19181.000000,43678.000000,19609.000000,13439.000000
19085.000000,43591.000000,19523.000000,13306.000000
18993.000000,43510.000000,19409.000000,13179.000000
18903.000000,43430.000000,19261.000000,13057.000000
18814.000000,43351.000000,19084.000000,12935.000000
18726.000000,43274.000000,18885.000000,12815.000000
18641.000000,43199.000000,18671.000000,12695.000000
18560.000000,43127.000000,18448.000000,12577.000000
18482.000000,43056.000000,18224.000000,12461.000000
18404.000000,42987.000000,18007.000000,12351.000000
18327.000000,42920.000000,17806.000000,12250.000000
18250.000000,42854.000000,17625.000000,12153.000000
18173.000000,42791.000000,17469.000000,12056.000000
18097.000000,42732.000000,17339.000000,11958.000000
18024.000000,42677.000000,17236.000000,11858.000000
17951.000000,42621.000000,17155.000000,11755.000000
17875.000000,42564.000000,17096.000000,11649.000000
17795.000000,42506.000000,17054.000000,11541.000000
17712.000000,42443.000000,17027.000000,11434.000000
17625.000000,42373.000000,17011.000000,11323.000000
17536.000000,42297.000000,17003.000000,11205.000000
17447.000000,42221.000000,16994.000000,11085.000000
17357.000000,42146.000000,16979.000000,10966.000000
17264.000000,42066.000000,16955.000000,10843.000000
17169.000000,41984.000000,16920.000000,10714.000000
17074.000000,41902.000000,16872.000000,10583.000000
16976.000000,41819.000000,16810.000000,10451.000000
16873.000000,41736.000000,16737.000000,10319.000000
16769.000000,41654.000000,16651.000000,10185.000000
16665.000000,41573.000000,16553.000000,10045.000000
16562.000000,41491.000000,16443.000000,9900.000000
16460.000000,41406.000000,16323.000000,9750.000000
16358.000000,41318.000000,16196.000000,9597.000000
16257.000000,41231.000000,16060.000000,9444.000000
16156.000000,41145.000000,15914.000000,9297.000000
16051.000000,41058.000000,15759.000000,9154.000000
15941.000000,40973.000000,15598.000000,9011.000000
15831.000000,40889.000000,15431.000000,8871.000000
15725.000000,40807.000000,15258.000000,8737.000000
15626.000000,40727.000000,15080.000000,8610.000000
15539.000000,40657.000000,14899.000000,8491.000000
15467.000000,40601.000000,14716.000000,8390.000000
15416.000000,40564.000000,14530.000000,8319.000000
15392.000000,40548.000000,14340.000000,8286.000000
15404.000000,40564.000000,14152.000000,8305.000000
15460.000000,40618.000000,13962.000000,8387.000000
15568.000000,40715.000000,13770.000000,8539.000000
15728.000000,40854.000000,13580.000000,8767.000000
15945.000000,41040.000000,13397.000000,9081.000000
16221.000000,41280.000000,13217.000000,9486.000000
16558.000000,41574.000000,13041.000000,9980.000000
16952.000000,41915.000000,12868.000000,10552.000000
17394.000000,42296.000000,12697.000000,11187.000000
17868.000000,42704.000000,12528.000000,11873.000000
18361.000000,43127.000000,12363.000000,12588.000000
18859.000000,43555.000000,12202.000000,13308.000000
19345.000000,43979.000000,12045.000000,14014.000000
19805.000000,44384.000000,11891.000000,14687.000000
20229.000000,44760.000000,11740.000000,15314.000000
20610.000000,45099.000000,11591.000000,15886.000000
20949.000000,45397.000000,11446.000000,16393.000000
21243.000000,45651.000000,11305.000000,16832.000000
21489.000000,45862.000000,11169.000000,17203.000000
21687.000000,46032.000000,11039.000000,17503.000000
21840.000000,46164.000000,10916.000000,17733.000000
21953.000000,46260.000000,10798.000000,17905.000000
22029.000000,46324.000000,10684.000000,18029.000000
22073.000000,46359.000000,10570.000000,18110.000000
22094.000000,46374.000000,10456.000000,18154.000000
22097.000000,46376.000000,10340.000000,18172.000000
22087.000000,46368.000000,10222.000000,18172.000000
22067.000000,46356.000000,10104.000000,18156.000000
22042.000000,46345.000000,9984.000000,18128.000000
22017.000000,46334.000000,9860.000000,18099.000000
21992.000000,46322.000000,9733.000000,18071.000000
21970.000000,46307.000000,9604.000000,18047.000000
21953.000000,46288.000000,9471.000000,18026.000000
21938.000000,46266.000000,9333.000000,18005.000000
21921.000000,46245.000000,9190.000000,17984.000000
21905.000000,46223.000000,9042.000000,17965.000000
21888.000000,46199.000000,8894.000000,17949.000000
21868.000000,46170.000000,8745.000000,17927.000000
21841.000000,46136.000000,8596.000000,17893.000000
21804.000000,46098.000000,8447.000000,17848.000000
21755.000000,46056.000000,8300.000000,17795.000000
21692.000000,46004.000000,8154.000000,17728.000000
21613.000000,45937.000000,8019.000000,17635.000000
21516.000000,45854.000000,7905.000000,17517.000000
21406.000000,45761.000000,7825.000000,17380.000000
21285.000000,45659.000000,7791.000000,17229.000000
21156.000000,45550.000000,7808.000000,17061.000000
21025.000000,45440.000000,7892.000000,16884.000000
20894.000000,45332.000000,8054.000000,16709.000000
20768.000000,45225.000000,8305.000000,16543.000000
20654.000000,45126.000000,8653.000000,16391.000000
20555.000000,45040.000000,9098.000000,16255.000000
20470.000000,44967.000000,9638.000000,16138.000000
20399.000000,44907.000000,10265.000000,16042.000000
20346.000000,44862.000000,10970.000000,15971.000000
20308.000000,44831.000000,11733.000000,15924.000000
20282.000000,44810.000000,12535.000000,15891.000000
20267.000000,44798.000000,13354.000000,15872.000000
20260.000000,44794.000000,14168.000000,15860.000000
20258.000000,44795.000000,14956.000000,15845.000000
20256.000000,44800.000000,15699.000000,15835.000000
20251.000000,44804.000000,16380.000000,15831.000000
20239.000000,44801.000000,16989.000000,15826.000000
20222.000000,44791.000000,17523.000000,15812.000000
20198.000000,44770.000000,17978.000000,15789.000000
20167.000000,44739.000000,18357.000000,15759.000000
20129.000000,44699.000000,18666.000000,15718.000000
20085.000000,44658.000000,18914.000000,15663.000000
20035.000000,44613.000000,19109.000000,15599.000000
19979.000000,44564.000000,19260.000000,15529.000000
19917.000000,44507.000000,19375.000000,15451.000000
19852.000000,44446.000000,19461.000000,15364.000000
19783.000000,44384.000000,19526.000000,15270.000000
19712.000000,44319.000000,19576.000000,15165.000000
19637.000000,44253.000000,19617.000000,15051.000000
19558.000000,44186.000000,19656.000000,14931.000000
19473.000000,44115.000000,19692.000000,14804.000000
19381.000000,44038.000000,19728.000000,14666.000000
19283.000000,43957.000000,19762.000000,14519.000000
19181.000000,43872.000000,19793.000000,14369.000000
19077.000000,43784.000000,19817.000000,14219.000000
18968.000000,43691.000000,19833.000000,14067.000000
18859.000000,43598.000000,19843.000000,13912.000000
18750.000000,43506.000000,19846.000000,13758.000000
18640.000000,43410.000000,19838.000000,13605.000000
18532.000000,43313.000000,19812.000000,13451.000000
18425.000000,43218.000000,19768.000000,13299.000000
18318.000000,43128.000000,19697.000000,13147.000000
18215.000000,43040.000000,19593.000000,12997.000000
18112.000000,42955.000000,19456.000000,12850.000000
18011.000000,42874.000000,19293.000000,12709.000000
17911.000000,42798.000000,19109.000000,12575.000000
17815.000000,42724.000000,18906.000000,12447.000000
17723.000000,42654.000000,18694.000000,12324.000000
17634.000000,42587.000000,18481.000000,12203.000000
17547.000000,42524.000000,18277.000000,12086.000000
17463.000000,42463.000000,18088.000000,11974.000000
17385.000000,42403.000000,17921.000000,11869.000000
17312.000000,42343.000000,17781.000000,11767.000000
17243.000000,42282.000000,17669.000000,11664.000000
17175.000000,42217.000000,17583.000000,11559.000000
17105.000000,42153.000000,17519.000000,11453.000000
17037.000000,42091.000000,17476.000000,11350.000000
16971.000000,42030.000000,17451.000000,11249.000000
16906.000000,41972.000000,17434.000000,11152.000000
16841.000000,41917.000000,17422.000000,11057.000000
16776.000000,41865.000000,17412.000000,10961.000000
16710.000000,41813.000000,17403.000000,10866.000000
16645.000000,41760.000000,17390.000000,10768.000000
16584.000000,41706.000000,17371.000000,10665.000000
16527.000000,41654.000000,17339.000000,10563.000000
16473.000000,41605.000000,17296.000000,10469.000000
16417.000000,41556.000000,17242.000000,10386.000000
16358.000000,41506.000000,17179.000000,10306.000000
16298.000000,41458.000000,17103.000000,10225.000000
16237.000000,41410.000000,17014.000000,10144.000000
16174.000000,41362.000000,16909.000000,10061.000000
16107.000000,41311.000000,16788.000000,9973.000000
16039.000000,41253.000000,16654.000000,9879.000000
15971.000000,41190.000000,16509.000000,9784.000000
15899.000000,41126.000000,16355.000000,9688.000000
15821.000000,41061.000000,16193.000000,9584.000000
15739.000000,40994.000000,16025.000000,9473.000000
15656.000000,40923.000000,15851.000000,9360.000000
15567.000000,40849.000000,15674.000000,9249.000000
15474.000000,40773.000000,15494.000000,9139.000000
15381.000000,40697.000000,15308.000000,9025.000000
15292.000000,40623.000000,15121.000000,8909.000000
15206.000000,40550.000000,14935.000000,8793.000000
15124.000000,40480.000000,14748.000000,8675.000000
15043.000000,40413.000000,14559.000000,8558.000000
14958.000000,40349.000000,14368.000000,8440.000000
14873.000000,40285.000000,14175.000000,8320.000000
14793.000000,40223.000000,13988.000000,8200.000000
14722.000000,40168.000000,13812.000000,8092.000000
14661.000000,40122.000000,13646.000000,8002.000000
14616.000000,40090.000000,13487.000000,7936.000000
14596.000000,40081.000000,13332.000000,7907.000000
14616.000000,40104.000000,13176.000000,7930.000000
14681.000000,40162.000000,13020.000000,8019.000000
14796.000000,40260.000000,12871.000000,8177.000000
14967.000000,40405.000000,12731.000000,8413.000000
15200.000000,40598.000000,12592.000000,8734.000000
15495.000000,40845.000000,12453.000000,9146.000000
15852.000000,41147.000000,12318.000000,9649.000000
16265.000000,41504.000000,12186.000000,10242.000000
16726.000000,41905.000000,12056.000000,10909.000000
17225.000000,42338.000000,11928.000000,11631.000000
17749.000000,42793.000000,11805.000000,12388.000000
18282.000000,43258.000000,11689.000000,13161.000000
18815.000000,43719.000000,11577.000000,13928.000000
19331.000000,44165.000000,11465.000000,14665.000000
19814.000000,44585.000000,11354.000000,15359.000000
20256.000000,44969.000000,11244.000000,16000.000000
20653.000000,45312.000000,11133.000000,16573.000000
20999.000000,45607.000000,11020.000000,17071.000000
21291.000000,45857.000000,10908.000000,17491.000000
21531.000000,46061.000000,10799.000000,17835.000000
21725.000000,46222.000000,10692.000000,18107.000000
21875.000000,46342.000000,10585.000000,18316.000000
21986.000000,46429.000000,10474.000000,18475.000000
22062.000000,46491.000000,10358.000000,18592.000000
22111.000000,46534.000000,10237.000000,18677.000000
22137.000000,46560.000000,10109.000000,18736.000000
22150.000000,46573.000000,9977.000000,18773.000000
22154.000000,46577.000000,9840.000000,18791.000000
22151.000000,46577.000000,9698.000000,18798.000000
22147.000000,46577.000000,9555.000000,18802.000000
22144.000000,46579.000000,9409.000000,18804.000000
22143.000000,46583.000000,9259.000000,18805.000000
22144.000000,46586.000000,9106.000000,18806.000000
22145.000000,46588.000000,8951.000000,18811.000000
22149.000000,46591.000000,8801.000000,18819.000000
22155.000000,46595.000000,8664.000000,18830.000000
22160.000000,46596.000000,8548.000000,18842.000000
22164.000000,46592.000000,8458.000000,18853.000000
22162.000000,46586.000000,8406.000000,18855.000000
22152.000000,46576.000000,8407.000000,18845.000000
22133.000000,46556.000000,8474.000000,18822.000000
22098.000000,46526.000000,8618.000000,18780.000000
22050.000000,46485.000000,8849.000000,18715.000000
21990.000000,46433.000000,9173.000000,18629.000000
21917.000000,46369.000000,9596.000000,18527.000000
21828.000000,46292.000000,10119.000000,18408.000000
21725.000000,46206.000000,10734.000000,18273.000000
21614.000000,46113.000000,11432.000000,18130.000000
21500.000000,46016.000000,12196.000000,17984.000000
21388.000000,45915.000000,13008.000000,17833.000000
21280.000000,45819.000000,13846.000000,17685.000000
21183.000000,45730.000000,14688.000000,17550.000000
21098.000000,45651.000000,15510.000000,17432.000000
21031.000000,45585.000000,16290.000000,17333.000000
20985.000000,45540.000000,17012.000000,17255.000000
20956.000000,45513.000000,17664.000000,17201.000000
20937.000000,45502.000000,18239.000000,17169.000000
20926.000000,45504.000000,18735.000000,17154.000000
20922.000000,45513.000000,19154.000000,17152.000000
20923.000000,45524.000000,19499.000000,17163.000000
20927.000000,45535.000000,19776.000000,17185.000000
20935.000000,45545.000000,19997.000000,17207.000000
20942.000000,45554.000000,20170.000000,17219.000000
20944.000000,45555.000000,20304.000000,17219.000000
20936.000000,45542.000000,20406.000000,17208.000000
20917.000000,45519.000000,20481.000000,17186.000000
20889.000000,45490.000000,20537.000000,17151.000000
20851.000000,45453.000000,20581.000000,17105.000000
20802.000000,45409.000000,20615.000000,17045.000000
20746.000000,45361.000000,20644.000000,16971.000000
20685.000000,45312.000000,20672.000000,16887.000000
20619.000000,45260.000000,20702.000000,16798.000000
20545.000000,45202.000000,20734.000000,16701.000000
20465.000000,45140.000000,20768.000000,16596.000000
20384.000000,45074.000000,20804.000000,16485.000000
20299.000000,45005.000000,20840.000000,16372.000000
20209.000000,44931.000000,20876.000000,16255.000000
20117.000000,44853.000000,20905.000000,16135.000000
20024.000000,44773.000000,20921.000000,16010.000000
19930.000000,44689.000000,20918.000000,15877.000000
19833.000000,44603.000000,20893.000000,15738.000000
19732.000000,44515.000000,20843.000000,15596.000000
19628.000000,44425.000000,20766.000000,15453.000000
19524.000000,44333.000000,20657.000000,15311.000000
19417.000000,44242.000000,20522.000000,15166.000000
19308.000000,44151.000000,20368.000000,15022.000000
19200.000000,44058.000000,20197.000000,14881.000000
19093.000000,43965.000000,20012.000000,14739.000000
18989.000000,43874.000000,19824.000000,14597.000000
18886.000000,43787.000000,19643.000000,14455.000000
18783.000000,43701.000000,19473.000000,14317.000000
18682.000000,43617.000000,19319.000000,14183.000000
18586.000000,43537.000000,19185.000000,14054.000000
18495.000000,43460.000000,19075.000000,13928.000000
18408.000000,43388.000000,18990.000000,13810.000000
18326.000000,43318.000000,18928.000000,13698.000000
18246.000000,43248.000000,18888.000000,13587.000000
18170.000000,43178.000000,18863.000000,13471.000000
18098.000000,43112.000000,18847.000000,13354.000000
18031.000000,43051.000000,18836.000000,13244.000000
17965.000000,42994.000000,18826.000000,13142.000000
17896.000000,42936.000000,18814.000000,13045.000000
17828.000000,42878.000000,18796.000000,12953.000000
17762.000000,42820.000000,18767.000000,12869.000000
17698.000000,42765.000000,18726.000000,12790.000000
17636.000000,42713.000000,18673.000000,12714.000000
17576.000000,42661.000000,18605.000000,12640.000000
17517.000000,42610.000000,18523.000000,12565.000000
17459.000000,42561.000000,18430.000000,12489.000000
17403.000000,42516.000000,18325.000000,12415.000000
17348.000000,42473.000000,18207.000000,12342.000000
17294.000000,42431.000000,18080.000000,12265.000000
17241.000000,42389.000000,17945.000000,12185.000000
17190.000000,42348.000000,17804.000000,12105.000000
17137.000000,42301.000000,17657.000000,12023.000000
17078.000000,42247.000000,17501.000000,11935.000000
17017.000000,42192.000000,17337.000000,11843.000000
16953.000000,42141.000000,17167.000000,11751.000000
16890.000000,42093.000000,16990.000000,11654.000000
16829.000000,42044.000000,16809.000000,11552.000000
16766.000000,41993.000000,16628.000000,11454.000000
16702.000000,41943.000000,16447.000000,11365.000000
16634.000000,41893.000000,16261.000000,11280.000000
16565.000000,41842.000000,16073.000000,11190.000000
16496.000000,41789.000000,15889.000000,11100.000000
16428.000000,41734.000000,15708.000000,11011.000000
16361.000000,41676.000000,15530.000000,10921.000000
16294.000000,41616.000000,15358.000000,10826.000000
16224.000000,41553.000000,15192.000000,10728.000000
16154.000000,41488.000000,15030.000000,10627.000000
16083.000000,41424.000000,14871.000000,10524.000000
16014.000000,41361.000000,14711.000000,10423.000000
15943.000000,41299.000000,14556.000000,10322.000000
15870.000000,41236.000000,14403.000000,10221.000000
15800.000000,41174.000000,14251.000000,10123.000000
15735.000000,41115.000000,14102.000000,10033.000000
15675.000000,41060.000000,13957.000000,9953.000000
15627.000000,41016.000000,13815.000000,9888.000000
15597.000000,40990.000000,13676.000000,9842.000000
15592.000000,40988.000000,13544.000000,9824.000000
15622.000000,41020.000000,13418.000000,9852.000000
15698.000000,41091.000000,13299.000000,9944.000000
15829.000000,41206.000000,13184.000000,10115.000000
16019.000000,41373.000000,13071.000000,10371.000000
16270.000000,41594.000000,12961.000000,10719.000000
16585.000000,41871.000000,12855.000000,11163.000000
16965.000000,42203.000000,12752.000000,11703.000000
17406.000000,42588.000000,12650.000000,12329.000000
17900.000000,43018.000000,12549.000000,13029.000000
18433.000000,43483.000000,12443.000000,13789.000000
18987.000000,43968.000000,12332.000000,14589.000000
19545.000000,44457.000000,12217.000000,15403.000000
20091.000000,44937.000000,12103.000000,16206.000000
20615.000000,45396.000000,11992.000000,16975.000000
21103.000000,45825.000000,11880.000000,17686.000000
21546.000000,46214.000000,11763.000000,18326.000000
21939.000000,46556.000000,11640.000000,18890.000000
22276.000000,46845.000000,11510.000000,19375.000000
22555.000000,47081.000000,11374.000000,19778.000000
22776.000000,47269.000000,11233.000000,20100.000000
22943.000000,47414.000000,11088.000000,20350.000000
23062.000000,47521.000000,10939.000000,20538.000000
23145.000000,47597.000000,10788.000000,20677.000000
23201.000000,47649.000000,10639.000000,20770.000000
23237.000000,47684.000000,10491.000000,20829.000000
23262.000000,47705.000000,10344.000000,20871.000000
23276.000000,47716.000000,10200.000000,20897.000000
23283.000000,47723.000000,10060.000000,20908.000000
23286.000000,47726.000000,9923.000000,20916.000000
23287.000000,47726.000000,9789.000000,20929.000000
23286.000000,47726.000000,9659.000000,20942.000000
23285.000000,47727.000000,9542.000000,20953.000000
23286.000000,47730.000000,9444.000000,20968.000000
23292.000000,47734.000000,9375.000000,20988.000000
23299.000000,47740.000000,9352.000000,21009.000000
23307.000000,47748.000000,9392.000000,21029.000000
23319.000000,47759.000000,9507.000000,21047.000000
23333.000000,47767.000000,9712.000000,21060.000000
23343.000000,47769.000000,10020.000000,21067.000000
23350.000000,47766.000000,10433.000000,21066.000000
23349.000000,47757.000000,10949.000000,21059.000000
23335.000000,47738.000000,11562.000000,21042.000000
23303.000000,47707.000000,12265.000000,21006.000000
23255.000000,47664.000000,13041.000000,20948.000000
23191.000000,47609.000000,13874.000000,20870.000000
23109.000000,47538.000000,14742.000000,20766.000000
23008.000000,47453.000000,15624.000000,20637.000000
22897.000000,47359.000000,16494.000000,20486.000000
22781.000000,47258.000000,17324.000000,20326.000000
22661.000000,47156.000000,18094.000000,20162.000000
22543.000000,47056.000000,18792.000000,20002.000000
22434.000000,46962.000000,19411.000000,19853.000000
22337.000000,46875.000000,19946.000000,19716.000000
22253.000000,46798.000000,20399.000000,19591.000000
22183.000000,46734.000000,20776.000000,19482.000000
22127.000000,46685.000000,21083.000000,19392.000000
22082.000000,46649.000000,21325.000000,19323.000000
22047.000000,46623.000000,21513.000000,19277.000000
22025.000000,46608.000000,21661.000000,19250.000000
22011.000000,46602.000000,21777.000000,19238.000000
22002.000000,46598.000000,21870.000000,19237.000000
21997.000000,46594.000000,21947.000000,19242.000000
21991.000000,46591.000000,22015.000000,19245.000000
21981.000000,46588.000000,22076.000000,19242.000000
21967.000000,46580.000000,22131.000000,19231.000000
21948.000000,46565.000000,22182.000000,19211.000000
21926.000000,46542.000000,22232.000000,19179.000000
21897.000000,46512.000000,22281.000000,19132.000000
21860.000000,46474.000000,22329.000000,19075.000000
21813.000000,46429.000000,22374.000000,19007.000000
21756.000000,46379.000000,22413.000000,18925.000000
21690.000000,46323.000000,22447.000000,18832.000000
21618.000000,46263.000000,22474.000000,18733.000000
21540.000000,46197.000000,22493.000000,18630.000000
21458.000000,46127.000000,22501.000000,18522.000000
21374.000000,46052.000000,22491.000000,18409.000000
21287.000000,45969.000000,22455.000000,18292.000000
21196.000000,45883.000000,22391.000000,18172.000000
21102.000000,45796.000000,22294.000000,18046.000000
21005.000000,45711.000000,22162.000000,17918.000000
20905.000000,45623.000000,22001.000000,17792.000000
20803.000000,45536.000000,21817.000000,17663.000000
20702.000000,45451.000000,21615.000000,17528.000000
20603.000000,45368.000000,21405.000000,17390.000000
20502.000000,45281.000000,21195.000000,17251.000000
20398.000000,45194.000000,20991.000000,17113.000000
20294.000000,45108.000000,20796.000000,16973.000000
20193.000000,45026.000000,20618.000000,16835.000000
20095.000000,44945.000000,20460.000000,16699.000000
19997.000000,44859.000000,20326.000000,16557.000000
19904.000000,44772.000000,20216.000000,16413.000000
19813.000000,44685.000000,20127.000000,16271.000000
19718.000000,44598.000000,20056.000000,16129.000000
19622.000000,44514.000000,19997.000000,15991.000000
19528.000000,44434.000000,19946.000000,15858.000000
19437.000000,44355.000000,19901.000000,15733.000000
19346.000000,44277.000000,19855.000000,15616.000000
19257.000000,44200.000000,19809.000000,15504.000000
19171.000000,44128.000000,19759.000000,15399.000000
19089.000000,44060.000000,19702.000000,15300.000000
19011.000000,43993.000000,19635.000000,15199.000000
18939.000000,43929.000000,19560.000000,15095.000000
18872.000000,43869.000000,19472.000000,14996.000000
18809.000000,43814.000000,19372.000000,14904.000000
18748.000000,43763.000000,19260.000000,14817.000000
18687.000000,43718.000000,19136.000000,14739.000000
18627.000000,43676.000000,18996.000000,14667.000000
18568.000000,43636.000000,18839.000000,14599.000000
18512.000000,43594.000000,18667.000000,14532.000000
18459.000000,43552.000000,18487.000000,14464.000000
18408.000000,43508.000000,18300.000000,14390.000000
18358.000000,43462.000000,18110.000000,14313.000000
18308.000000,43417.000000,17917.000000,14238.000000
18257.000000,43374.000000,17724.000000,14168.000000
18206.000000,43334.000000,17528.000000,14099.000000
18153.000000,43295.000000,17328.000000,14027.000000
18098.000000,43255.000000,17127.000000,13951.000000
18041.000000,43212.000000,16929.000000,13874.000000
17983.000000,43166.000000,16734.000000,13790.000000
17925.000000,43117.000000,16537.000000,13700.000000
17864.000000,43063.000000,16336.000000,13608.000000
17798.000000,43003.000000,16133.000000,13513.000000
17733.000000,42943.000000,15930.000000,13416.000000
17668.000000,42882.000000,15726.000000,13318.000000
17600.000000,42824.000000,15523.000000,13221.000000
17531.000000,42766.000000,15321.000000,13123.000000
17463.000000,42709.000000,15124.000000,13024.000000
17392.000000,42648.000000,14933.000000,12924.000000
17320.000000,42588.000000,14748.000000,12821.000000
17248.000000,42532.000000,14571.000000,12719.000000
17176.000000,42474.000000,14401.000000,12617.000000
17100.000000,42412.000000,14236.000000,12514.000000
17022.000000,42346.000000,14080.000000,12412.000000
16941.000000,42278.000000,13934.000000,12309.000000
16856.000000,42207.000000,13797.000000,12204.000000
16767.000000,42134.000000,13667.000000,12095.000000
16677.000000,42059.000000,13543.000000,11982.000000
16591.000000,41986.000000,13423.000000,11866.000000
16509.000000,41912.000000,13303.000000,11750.000000
16429.000000,41838.000000,13179.000000,11634.000000
16355.000000,41772.000000,13052.000000,11525.000000
16291.000000,41715.000000,12926.000000,11427.000000
16238.000000,41670.000000,12802.000000,11346.000000
16202.000000,41640.000000,12679.000000,11290.000000
16196.000000,41636.000000,12556.000000,11270.000000
16232.000000,41667.000000,12431.000000,11304.000000
16317.000000,41741.000000,12303.000000,11400.000000
16459.000000,41866.000000,12174.000000,11573.000000
16664.000000,42046.000000,12047.000000,11837.000000
16936.000000,42284.000000,11919.000000,12198.000000
17275.000000,42579.000000,11782.000000,12657.000000
17676.000000,42929.000000,11640.000000,13212.000000
18136.000000,43329.000000,11498.000000,13859.000000
18640.000000,43770.000000,11354.000000,14580.000000
19177.000000,44242.000000,11208.000000,15354.000000
19737.000000,44736.000000,11060.000000,16162.000000
20303.000000,45238.000000,10911.000000,16976.000000
20861.000000,45732.000000,10756.000000,17775.000000
21394.000000,46203.000000,10599.000000,18540.000000
21886.000000,46637.000000,10443.000000,19249.000000
22327.000000,47025.000000,10288.000000,19888.000000
22713.000000,47364.000000,10131.000000,20451.000000
23043.000000,47651.000000,9968.000000,20936.000000
23318.000000,47889.000000,9801.000000,21341.000000
23540.000000,48084.000000,9631.000000,21667.000000
23715.000000,48239.000000,9458.000000,21922.000000
23846.000000,48355.000000,9282.000000,22113.000000
23939.000000,48437.000000,9106.000000,22249.000000
24000.000000,48494.000000,8934.000000,22339.000000
24036.000000,48530.000000,8770.000000,22399.000000
24056.000000,48549.000000,8621.000000,22438.000000
24065.000000,48557.000000,8497.000000,22461.000000
24068.000000,48560.000000,8407.000000,22470.000000
24067.000000,48560.000000,8359.000000,22473.000000
24064.000000,48554.000000,8366.000000,22475.000000
24062.000000,48548.000000,8441.000000,22476.000000
24060.000000,48546.000000,8600.000000,22474.000000
24062.000000,48548.000000,8854.000000,22477.000000
24067.000000,48553.000000,9213.000000,22487.000000
24073.000000,48562.000000,9677.000000,22501.000000
24076.000000,48572.000000,10241.000000,22517.000000
24081.000000,48581.000000,10891.000000,22535.000000
24087.000000,48588.000000,11614.000000,22551.000000
24099.000000,48594.000000,12397.000000,22564.000000
24112.000000,48600.000000,13221.000000,22574.000000
24119.000000,48602.000000,14064.000000,22580.000000
24114.000000,48595.000000,14904.000000,22573.000000
24099.000000,48580.000000,15719.000000,22547.000000
24072.000000,48555.000000,16488.000000,22500.000000
24027.000000,48513.000000,17193.000000,22432.000000
23960.000000,48451.000000,17821.000000,22340.000000
23875.000000,48371.000000,18368.000000,22227.000000
23777.000000,48281.000000,18836.000000,22099.000000
23668.000000,48183.000000,19229.000000,21957.000000
23549.000000,48076.000000,19553.000000,21801.000000
23425.000000,47966.000000,19818.000000,21642.000000
23304.000000,47858.000000,20031.000000,21486.000000
23189.000000,47759.000000,20199.000000,21341.000000
23085.000000,47671.000000,20329.000000,21210.000000
22996.000000,47594.000000,20429.000000,21096.000000
22924.000000,47531.000000,20506.000000,21000.000000
22867.000000,47480.000000,20570.000000,20921.000000
22821.000000,47439.000000,20625.000000,20864.000000
22786.000000,47413.000000,20674.000000,20830.000000
22760.000000,47397.000000,20722.000000,20811.000000
22739.000000,47385.000000,20769.000000,20801.000000
22722.000000,47374.000000,20814.000000,20793.000000
22709.000000,47366.000000,20858.000000,20779.000000
22697.000000,47358.000000,20902.000000,20760.000000
22683.000000,47345.000000,20941.000000,20735.000000
22662.000000,47327.000000,20977.000000,20702.000000
22631.000000,47301.000000,21008.000000,20663.000000
22591.000000,47267.000000,21028.000000,20614.000000
22542.000000,47224.000000,21033.000000,20550.000000
22485.000000,47176.000000,21021.000000,20473.000000
22420.000000,47119.000000,20987.000000,20385.000000
22350.000000,47054.000000,20926.000000,20285.000000
22274.000000,46981.000000,20836.000000,20172.000000
22187.000000,46900.000000,20715.000000,20050.000000
22088.000000,46813.000000,20565.000000,19925.000000
21982.000000,46723.000000,20388.000000,19790.000000
21871.000000,46632.000000,20189.000000,19645.000000
21759.000000,46537.000000,19978.000000,19497.000000
21649.000000,46439.000000,19762.000000,19353.000000
21537.000000,46341.000000,19546.000000,19213.000000
21427.000000,46244.000000,19336.000000,19070.000000
21318.000000,46147.000000,19143.000000,18921.000000
21207.000000,46049.000000,18970.000000,18765.000000
21096.000000,45952.000000,18820.000000,18607.000000
20984.000000,45856.000000,18697.000000,18451.000000
20872.000000,45761.000000,18600.000000,18299.000000
20761.000000,45665.000000,18523.000000,18149.000000
20654.000000,45569.000000,18461.000000,18004.000000
20548.000000,45477.000000,18411.000000,17863.000000
20443.000000,45387.000000,18371.000000,17726.000000
20338.000000,45297.000000,18336.000000,17590.000000
20233.000000,45209.000000,18297.000000,17453.000000
20129.000000,45122.000000,18250.000000,17319.000000
20024.000000,45035.000000,18193.000000,17187.000000
19922.000000,44949.000000,18125.000000,17057.000000
19821.000000,44866.000000,18041.000000,16931.000000
19724.000000,44788.000000,17945.000000,16810.000000
19633.000000,44717.000000,17841.000000,16691.000000
19550.000000,44650.000000,17727.000000,16574.000000
19472.000000,44585.000000,17605.000000,16462.000000
19395.000000,44520.000000,17476.000000,16352.000000
19320.000000,44455.000000,17339.000000,16242.000000
19249.000000,44393.000000,17192.000000,16135.000000
19183.000000,44335.000000,17031.000000,16031.000000
19119.000000,44280.000000,16859.000000,15932.000000
19059.000000,44225.000000,16680.000000,15839.000000
19001.000000,44170.000000,16498.000000,15750.000000
18941.000000,44114.000000,16313.000000,15666.000000
18880.000000,44058.000000,16126.000000,15582.000000
18819.000000,44003.000000,15936.000000,15499.000000
18759.000000,43951.000000,15740.000000,15419.000000
18698.000000,43902.000000,15540.000000,15339.000000
18636.000000,43854.000000,15339.000000,15259.000000
18571.000000,43803.000000,15136.000000,15177.000000
18505.000000,43749.000000,14932.000000,15094.000000
18438.000000,43690.000000,14725.000000,15007.000000
18369.000000,43629.000000,14519.000000,14915.000000
18302.000000,43568.000000,14316.000000,14819.000000
18233.000000,43506.000000,14118.000000,14716.000000
18157.000000,43440.000000,13924.000000,14604.000000
18073.000000,43370.000000,13735.000000,14487.000000
17985.000000,43298.000000,13552.000000,14371.000000
17896.000000,43226.000000,13372.000000,14255.000000
17806.000000,43152.000000,13195.000000,14136.000000
17712.000000,43076.000000,13024.000000,14019.000000
17617.000000,43000.000000,12858.000000,13904.000000
17524.000000,42925.000000,12694.000000,13785.000000
17433.000000,42850.000000,12535.000000,13663.000000
17344.000000,42774.000000,12385.000000,13539.000000
17255.000000,42695.000000,12244.000000,13412.000000
17164.000000,42611.000000,12109.000000,13284.000000
17074.000000,42526.000000,11979.000000,13158.000000
16983.000000,42443.000000,11855.000000,13028.000000
16888.000000,42362.000000,11736.000000,12895.000000
16789.000000,42282.000000,11617.000000,12763.000000
16690.000000,42202.000000,11499.000000,12632.000000
16592.000000,42124.000000,11385.000000,12500.000000
16498.000000,42050.000000,11277.000000,12365.000000
16404.000000,41976.000000,11171.000000,12229.000000
16311.000000,41901.000000,11067.000000,12092.000000
16222.000000,41826.000000,10960.000000,11961.000000
16139.000000,41756.000000,10848.000000,11841.000000
16063.000000,41688.000000,10731.000000,11733.000000
15993.000000,41626.000000,10609.000000,11632.000000
15936.000000,41575.000000,10482.000000,11541.000000
15897.000000,41545.000000,10352.000000,11472.000000
15888.000000,41540.000000,10220.000000,11444.000000
15919.000000,41570.000000,10085.000000,11475.000000
15996.000000,41644.000000,9947.000000,11576.000000
16125.000000,41765.000000,9806.000000,11755.000000
16313.000000,41934.000000,9661.000000,12019.000000
16564.000000,42160.000000,9516.000000,12371.000000
16879.000000,42441.000000,9374.000000,12816.000000
17256.000000,42774.000000,9227.000000,13350.000000
17689.000000,43151.000000,9076.000000,13961.000000
18167.000000,43564.000000,8923.000000,14639.000000
18679.000000,44006.000000,8770.000000,15369.000000
19208.000000,44463.000000,8618.000000,16126.000000
19734.000000,44922.000000,8467.000000,16883.000000
20247.000000,45371.000000,8314.000000,17622.000000
20736.000000,45798.000000,8158.000000,18325.000000
21189.000000,46192.000000,7999.000000,18971.000000
21595.000000,46544.000000,7836.000000,19545.000000
21948.000000,46850.000000,7668.000000,20045.000000
22245.000000,47108.000000,7499.000000,20475.000000
22488.000000,47320.000000,7332.000000,20833.000000
22679.000000,47487.000000,7174.000000,21114.000000
22822.000000,47612.000000,7025.000000,21324.000000
22924.000000,47700.000000,6891.000000,21476.000000
22991.000000,47758.000000,6781.000000,21580.000000
23030.000000,47790.000000,6708.000000,21647.000000
23044.000000,47802.000000,6688.000000,21685.000000
23038.000000,47800.000000,6736.000000,21698.000000
23019.000000,47786.000000,6869.000000,21693.000000
22993.000000,47766.000000,7094.000000,21675.000000
22963.000000,47744.000000,7412.000000,21650.000000
22934.000000,47721.000000,7824.000000,21623.000000
22908.000000,47703.000000,8329.000000,21599.000000
22888.000000,47689.000000,8923.000000,21579.000000
22873.000000,47677.000000,9597.000000,21562.000000
22862.000000,47667.000000,10334.000000,21549.000000
22852.000000,47657.000000,11112.000000,21543.000000
22843.000000,47649.000000,11913.000000,21541.000000
22836.000000,47646.000000,12722.000000,21537.000000
22831.000000,47643.000000,13515.000000,21531.000000
22824.000000,47636.000000,14271.000000,21523.000000
22808.000000,47622.000000,14974.000000,21508.000000
22784.000000,47598.000000,15614.000000,21480.000000
22751.000000,47565.000000,16185.000000,21436.000000
22702.000000,47517.000000,16685.000000,21373.000000
22635.000000,47454.000000,17117.000000,21286.000000
22550.000000,47378.000000,17479.000000,21175.000000
22450.000000,47288.000000,17778.000000,21043.000000
22336.000000,47182.000000,18021.000000,20893.000000
22208.000000,47064.000000,18218.000000,20729.000000
22075.000000,46940.000000,18377.000000,20557.000000
21942.000000,46819.000000,18504.000000,20385.000000
21812.000000,46705.000000,18609.000000,20221.000000
21693.000000,46598.000000,18699.000000,20071.000000
21593.000000,46502.000000,18776.000000,19935.000000
21512.000000,46416.000000,18841.000000,19819.000000
21446.000000,46342.000000,18896.000000,19725.000000
21394.000000,46284.000000,18943.000000,19651.000000
21356.000000,46246.000000,18984.000000,19599.000000
21332.000000,46223.000000,19022.000000,19563.000000
21322.000000,46210.000000,19057.000000,19535.000000
21319.000000,46205.000000,19093.000000,19517.000000
21317.000000,46206.000000,19126.000000,19512.000000
21316.000000,46207.000000,19155.000000,19511.000000
21313.000000,46199.000000,19174.000000,19506.000000
21304.000000,46183.000000,19183.000000,19495.000000
21284.000000,46160.000000,19175.000000,19473.000000
21252.000000,46126.000000,19144.000000,19435.000000
21208.000000,46082.000000,19090.000000,19380.000000
21156.000000,46030.000000,19007.000000,19312.000000
21099.000000,45969.000000,18895.000000,19234.000000
21035.000000,45901.000000,18756.000000,19146.000000
20962.000000,45828.000000,18592.000000,19049.000000
20881.000000,45751.000000,18409.000000,18945.000000
20795.000000,45672.000000,18213.000000,18832.000000
20706.000000,45591.000000,18011.000000,18712.000000
20612.000000,45508.000000,17810.000000,18588.000000
20516.000000,45424.000000,17617.000000,18458.000000
20419.000000,45338.000000,17439.000000,18324.000000
20320.000000,45251.000000,17284.000000,18190.000000
20219.000000,45163.000000,17152.000000,18053.000000
20115.000000,45074.000000,17045.000000,17914.000000
20007.000000,44983.000000,16962.000000,17774.000000
19896.000000,44891.000000,16896.000000,17631.000000
19785.000000,44799.000000,16841.000000,17483.000000
19675.000000,44708.000000,16795.000000,17330.000000
19567.000000,44615.000000,16757.000000,17176.000000
19459.000000,44518.000000,16723.000000,17020.000000
19349.000000,44417.000000,16685.000000,16857.000000
19236.000000,44311.000000,16638.000000,16688.000000
19117.000000,44205.000000,16582.000000,16524.000000
18998.000000,44102.000000,16514.000000,16364.000000
18882.000000,44003.000000,16436.000000,16205.000000
18770.000000,43912.000000,16346.000000,16045.000000
18663.000000,43829.000000,16242.000000,15891.000000
18561.000000,43747.000000,16127.000000,15747.000000
18461.000000,43668.000000,16000.000000,15612.000000
18368.000000,43594.000000,15863.000000,15486.000000
18283.000000,43521.000000,15718.000000,15367.000000
18202.000000,43449.000000,15566.000000,15253.000000
18124.000000,43380.000000,15404.000000,15138.000000
18049.000000,43313.000000,15232.000000,15022.000000
17973.000000,43247.000000,15054.000000,14908.000000
17896.000000,43179.000000,14868.000000,14795.000000
17817.000000,43109.000000,14678.000000,14685.000000
17735.000000,43039.000000,14486.000000,14584.000000
17651.000000,42965.000000,14290.000000,14487.000000
17568.000000,42888.000000,14091.000000,14389.000000
17485.000000,42813.000000,13889.000000,14287.000000
17405.000000,42740.000000,13684.000000,14184.000000
17328.000000,42671.000000,13476.000000,14081.000000
17248.000000,42606.000000,13266.000000,13982.000000
17168.000000,42546.000000,13056.000000,13888.000000
17091.000000,42489.000000,12849.000000,13798.000000
17018.000000,42434.000000,12642.000000,13705.000000
16947.000000,42380.000000,12438.000000,13609.000000
16877.000000,42326.000000,12240.000000,13515.000000
16805.000000,42271.000000,12045.000000,13423.000000
16730.000000,42215.000000,11853.000000,13328.000000
16654.000000,42155.000000,11662.000000,13232.000000
16575.000000,42091.000000,11475.000000,13133.000000
16495.000000,42024.000000,11294.000000,13027.000000
16413.000000,41954.000000,11120.000000,12917.000000
16330.000000,41883.000000,10950.000000,12800.000000
16245.000000,41811.000000,10783.000000,12675.000000
16155.000000,41739.000000,10622.000000,12545.000000
16060.000000,41664.000000,10468.000000,12410.000000
15963.000000,41590.000000,10318.000000,12276.000000
15870.000000,41520.000000,10172.000000,12145.000000
15782.000000,41452.000000,10031.000000,12018.000000
15699.000000,41378.000000,9893.000000,11893.000000
15614.000000,41302.000000,9762.000000,11769.000000
15528.000000,41226.000000,9636.000000,11646.000000
15445.000000,41149.000000,9512.000000,11527.000000
15364.000000,41068.000000,9387.000000,11409.000000
15284.000000,40989.000000,9263.000000,11289.000000
15203.000000,40914.000000,9144.000000,11166.000000
15125.000000,40845.000000,9026.000000,11050.000000
15051.000000,40783.000000,8902.000000,10947.000000
14984.000000,40731.000000,8775.000000,10859.000000
14932.000000,40694.000000,8649.000000,10790.000000
14902.000000,40673.000000,8522.000000,10750.000000
14904.000000,40675.000000,8391.000000,10750.000000
14943.000000,40710.000000,8262.000000,10799.000000
15025.000000,40785.000000,8137.000000,10912.000000
15160.000000,40904.000000,8009.000000,11100.000000
15354.000000,41071.000000,7876.000000,11369.000000
15610.000000,41295.000000,7739.000000,11725.000000
15931.000000,41578.000000,7597.000000,12169.000000
16313.000000,41916.000000,7453.000000,12697.000000
16751.000000,42296.000000,7306.000000,13303.000000
17235.000000,42714.000000,7159.000000,13975.000000
17750.000000,43157.000000,7010.000000,14699.000000
18285.000000,43617.000000,6859.000000,15457.000000
18826.000000,44082.000000,6702.000000,16227.000000
19355.000000,44540.000000,6541.000000,16981.000000
19858.000000,44977.000000,6380.000000,17699.000000
20321.000000,45383.000000,6217.000000,18363.000000
20734.000000,45746.000000,6054.000000,18962.000000
21093.000000,46062.000000,5887.000000,19489.000000
21398.000000,46330.000000,5715.000000,19941.000000
21653.000000,46549.000000,5545.000000,20316.000000
21861.000000,46723.000000,5381.000000,20612.000000
22022.000000,46859.000000,5228.000000,20834.000000
22142.000000,46960.000000,5087.000000,20997.000000
22226.000000,47028.000000,4966.000000,21110.000000
22278.000000,47069.000000,4876.000000,21179.000000
22307.000000,47092.000000,4830.000000,21217.000000
22318.000000,47102.000000,4837.000000,21234.000000
22317.000000,47102.000000,4909.000000,21239.000000
22309.000000,47094.000000,5064.000000,21235.000000
22296.000000,47083.000000,5306.000000,21226.000000
22283.000000,47071.000000,5636.000000,21217.000000
22271.000000,47059.000000,6050.000000,21206.000000
22263.000000,47048.000000,6543.000000,21195.000000
22258.000000,47040.000000,7109.000000,21186.000000
22252.000000,47033.000000,7737.000000,21179.000000
22246.000000,47023.000000,8418.000000,21175.000000
