660nm,730nm,850nm,940nm
37742.000000,24056.000000,14926.000000,2090.000000
37654.000000,24146.000000,14843.000000,2234.000000
37575.000000,24270.000000,14770.000000,2423.000000
37517.000000,24429.000000,14719.000000,2659.000000
37488.000000,24616.000000,14695.000000,2946.000000
37499.000000,24826.000000,14707.000000,3291.000000
37556.000000,25062.000000,14764.000000,3697.000000
37667.000000,25320.000000,14876.000000,4163.000000
37836.000000,25597.000000,15044.000000,4676.000000
38062.000000,25890.000000,15268.000000,5224.000000
38344.000000,26197.000000,15546.000000,5810.000000
38676.000000,26513.000000,15876.000000,6426.000000
39052.000000,26828.000000,16251.000000,7052.000000
39465.000000,27137.000000,16668.000000,7678.000000
39900.000000,27438.000000,17124.000000,8294.000000
40351.000000,27721.000000,17610.000000,8886.000000
40815.000000,27975.000000,18115.000000,9441.000000
41286.000000,28202.000000,18630.000000,9946.000000
41753.000000,28407.000000,19146.000000,10410.000000
42207.000000,28590.000000,19649.000000,10833.000000
42643.000000,28741.000000,20128.000000,11200.000000
43055.000000,28865.000000,20578.000000,11508.000000
43437.000000,28968.000000,20992.000000,11777.000000
43776.000000,29050.000000,21361.000000,12013.000000
44069.000000,29111.000000,21686.000000,12201.000000
44320.000000,29153.000000,21971.000000,12334.000000
44534.000000,29186.000000,22218.000000,12430.000000
44709.000000,29215.000000,22423.000000,12505.000000
44849.000000,29235.000000,22592.000000,12556.000000
44970.000000,29241.000000,22732.000000,12580.000000
45079.000000,29233.000000,22847.000000,12585.000000
45176.000000,29222.000000,22936.000000,12583.000000
45262.000000,29211.000000,23004.000000,12576.000000
45337.000000,29202.000000,23058.000000,12564.000000
45397.000000,29198.000000,23098.000000,12552.000000
45437.000000,29196.000000,23127.000000,12538.000000
45465.000000,29196.000000,23147.000000,12525.000000
45485.000000,29203.000000,23157.000000,12512.000000
45497.000000,29221.000000,23155.000000,12502.000000
45503.000000,29245.000000,23147.000000,12498.000000
45510.000000,29271.000000,23139.000000,12507.000000
45528.000000,29293.000000,23137.000000,12541.000000
45561.000000,29309.000000,23141.000000,12601.000000
45604.000000,29318.000000,23152.000000,12676.000000
45653.000000,29322.000000,23171.000000,12747.000000
45714.000000,29319.000000,23198.000000,12796.000000
45790.000000,29302.000000,23235.000000,12828.000000
45871.000000,29271.000000,23278.000000,12852.000000
45944.000000,29236.000000,23323.000000,12864.000000
46004.000000,29206.000000,23367.000000,12859.000000
46045.000000,29179.000000,23406.000000,12829.000000
46061.000000,29153.000000,23438.000000,12762.000000
46049.000000,29129.000000,23456.000000,12658.000000
46011.000000,29108.000000,23457.000000,12532.000000
45953.000000,29085.000000,23444.000000,12393.000000
45884.000000,29065.000000,23418.000000,12243.000000
45811.000000,29057.000000,23379.000000,12087.000000
45741.000000,29066.000000,23328.000000,11934.000000
45675.000000,29080.000000,23269.000000,11804.000000
45615.000000,29092.000000,23203.000000,11693.000000
45563.000000,29108.000000,23131.000000,11589.000000
45518.000000,29132.000000,23056.000000,11496.000000
45479.000000,29162.000000,22987.000000,11414.000000
45452.000000,29191.000000,22928.000000,11336.000000
45443.000000,29220.000000,22881.000000,11267.000000
45450.000000,29247.000000,22842.000000,11218.000000
45459.000000,29272.000000,22806.000000,11190.000000
45461.000000,29290.000000,22769.000000,11170.000000
45459.000000,29305.000000,22736.000000,11147.000000
45459.000000,29318.000000,22712.000000,11127.000000
45461.000000,29324.000000,22696.000000,11113.000000
45461.000000,29320.000000,22683.000000,11107.000000
45457.000000,29310.000000,22672.000000,11105.000000
45454.000000,29292.000000,22669.000000,11102.000000
45455.000000,29264.000000,22681.000000,11094.000000
45465.000000,29234.000000,22705.000000,11081.000000
45485.000000,29211.000000,22740.000000,11063.000000
45511.000000,29196.000000,22783.000000,11034.000000
45539.000000,29185.000000,22832.000000,10995.000000
45573.000000,29176.000000,22879.000000,10953.000000
45619.000000,29169.000000,22923.000000,10913.000000
45672.000000,29164.000000,22964.000000,10869.000000
45724.000000,29158.000000,22994.000000,10812.000000
45772.000000,29150.000000,23010.000000,10745.000000
45816.000000,29134.000000,23016.000000,10673.000000
45853.000000,29110.000000,23016.000000,10596.000000
45878.000000,29077.000000,23011.000000,10515.000000
45888.000000,29044.000000,22999.000000,10426.000000
45883.000000,29012.000000,22978.000000,10333.000000
45864.000000,28975.000000,22951.000000,10239.000000
45829.000000,28927.000000,22913.000000,10142.000000
45775.000000,28873.000000,22858.000000,10038.000000
45703.000000,28817.000000,22785.000000,9932.000000
45613.000000,28756.000000,22698.000000,9829.000000
45503.000000,28688.000000,22602.000000,9725.000000
45376.000000,28610.000000,22499.000000,9629.000000
45239.000000,28527.000000,22390.000000,9538.000000
45099.000000,28443.000000,22273.000000,9431.000000
44959.000000,28358.000000,22147.000000,9297.000000
44827.000000,28272.000000,22019.000000,9146.000000
44705.000000,28191.000000,21893.000000,8996.000000
44588.000000,28116.000000,21771.000000,8856.000000
44475.000000,28041.000000,21652.000000,8725.000000
44367.000000,27963.000000,21538.000000,8603.000000
44266.000000,27882.000000,21428.000000,8481.000000
44173.000000,27801.000000,21322.000000,8350.000000
44085.000000,27722.000000,21223.000000,8216.000000
44000.000000,27649.000000,21131.000000,8091.000000
43917.000000,27582.000000,21041.000000,7977.000000
43835.000000,27514.000000,20955.000000,7868.000000
43752.000000,27443.000000,20868.000000,7769.000000
43671.000000,27372.000000,20779.000000,7679.000000
43592.000000,27308.000000,20689.000000,7587.000000
43514.000000,27248.000000,20597.000000,7490.000000
43441.000000,27196.000000,20504.000000,7392.000000
43373.000000,27155.000000,20416.000000,7290.000000
43304.000000,27124.000000,20333.000000,7190.000000
43227.000000,27098.000000,20252.000000,7088.000000
43142.000000,27070.000000,20169.000000,6979.000000
43050.000000,27034.000000,20082.000000,6876.000000
42952.000000,26990.000000,19993.000000,6791.000000
42853.000000,26944.000000,19900.000000,6711.000000
42749.000000,26899.000000,19803.000000,6625.000000
42634.000000,26860.000000,19705.000000,6541.000000
42516.000000,26824.000000,19609.000000,6461.000000
42403.000000,26783.000000,19520.000000,6381.000000
42297.000000,26739.000000,19434.000000,6298.000000
42203.000000,26694.000000,19350.000000,6223.000000
42121.000000,26650.000000,19275.000000,6161.000000
42049.000000,26605.000000,19205.000000,6100.000000
41986.000000,26560.000000,19138.000000,6033.000000
41938.000000,26518.000000,19073.000000,5972.000000
41900.000000,26480.000000,19012.000000,5911.000000
41859.000000,26440.000000,18950.000000,5842.000000
41814.000000,26403.000000,18886.000000,5767.000000
41770.000000,26369.000000,18820.000000,5694.000000
41726.000000,26334.000000,18748.000000,5626.000000
41675.000000,26295.000000,18676.000000,5555.000000
41612.000000,26261.000000,18602.000000,5480.000000
41537.000000,26235.000000,18526.000000,5407.000000
41453.000000,26207.000000,18449.000000,5340.000000
41358.000000,26171.000000,18367.000000,5266.000000
41257.000000,26133.000000,18280.000000,5179.000000
41158.000000,26096.000000,18200.000000,5093.000000
41063.000000,26053.000000,18126.000000,5015.000000
40971.000000,26001.000000,18054.000000,4930.000000
40880.000000,25948.000000,17977.000000,4845.000000
40788.000000,25899.000000,17894.000000,4764.000000
40697.000000,25854.000000,17808.000000,4684.000000
40607.000000,25811.000000,17720.000000,4610.000000
40524.000000,25768.000000,17634.000000,4542.000000
40448.000000,25726.000000,17550.000000,4483.000000
40372.000000,25684.000000,17467.000000,4434.000000
40296.000000,25645.000000,17384.000000,4386.000000
40222.000000,25610.000000,17302.000000,4343.000000
40145.000000,25578.000000,17225.000000,4304.000000
40059.000000,25541.000000,17152.000000,4252.000000
39967.000000,25494.000000,17081.000000,4184.000000
39878.000000,25445.000000,17013.000000,4105.000000
39794.000000,25401.000000,16946.000000,4018.000000
39709.000000,25357.000000,16874.000000,3927.000000
39620.000000,25309.000000,16798.000000,3837.000000
39530.000000,25258.000000,16717.000000,3752.000000
39441.000000,25202.000000,16636.000000,3668.000000
39356.000000,25134.000000,16555.000000,3577.000000
39278.000000,25059.000000,16470.000000,3481.000000
39208.000000,24987.000000,16383.000000,3381.000000
39151.000000,24920.000000,16299.000000,3285.000000
39106.000000,24851.000000,16221.000000,3191.000000
39070.000000,24782.000000,16145.000000,3096.000000
39037.000000,24721.000000,16069.000000,3003.000000
39005.000000,24673.000000,15992.000000,2911.000000
38969.000000,24636.000000,15912.000000,2831.000000
38921.000000,24611.000000,15833.000000,2773.000000
38858.000000,24605.000000,15753.000000,2730.000000
38779.000000,24624.000000,15667.000000,2698.000000
38684.000000,24665.000000,15574.000000,2682.000000
38578.000000,24737.000000,15475.000000,2682.000000
38474.000000,24845.000000,15377.000000,2705.000000
38373.000000,24985.000000,15281.000000,2781.000000
38275.000000,25152.000000,15189.000000,2929.000000
38186.000000,25351.000000,15104.000000,3137.000000
38118.000000,25581.000000,15039.000000,3400.000000
38082.000000,25839.000000,15004.000000,3722.000000
38079.000000,26120.000000,15006.000000,4101.000000
38113.000000,26423.000000,15049.000000,4521.000000
38191.000000,26746.000000,15136.000000,4975.000000
38309.000000,27081.000000,15261.000000,5466.000000
38466.000000,27419.000000,15425.000000,5999.000000
38666.000000,27758.000000,15629.000000,6566.000000
38906.000000,28098.000000,15875.000000,7142.000000
39185.000000,28431.000000,16166.000000,7703.000000
39493.000000,28749.000000,16496.000000,8240.000000
39818.000000,29049.000000,16853.000000,8746.000000
40161.000000,29327.000000,17235.000000,9221.000000
40517.000000,29581.000000,17636.000000,9656.000000
40880.000000,29807.000000,18047.000000,10054.000000
41247.000000,30006.000000,18458.000000,10420.000000
41610.000000,30177.000000,18861.000000,10741.000000
41961.000000,30313.000000,19250.000000,11008.000000
42297.000000,30417.000000,19624.000000,11228.000000
42613.000000,30498.000000,19979.000000,11411.000000
42906.000000,30566.000000,20308.000000,11555.000000
43171.000000,30624.000000,20604.000000,11659.000000
43406.000000,30672.000000,20863.000000,11729.000000
43614.000000,30711.000000,21089.000000,11771.000000
43793.000000,30742.000000,21283.000000,11794.000000
43948.000000,30760.000000,21445.000000,11800.000000
44077.000000,30764.000000,21577.000000,11784.000000
44176.000000,30760.000000,21685.000000,11760.000000
44240.000000,30754.000000,21773.000000,11737.000000
44273.000000,30749.000000,21841.000000,11710.000000
44279.000000,30746.000000,21886.000000,11675.000000
44262.000000,30751.000000,21909.000000,11638.000000
44227.000000,30764.000000,21915.000000,11605.000000
44174.000000,30784.000000,21905.000000,11579.000000
44110.000000,30814.000000,21882.000000,11558.000000
44042.000000,30852.000000,21846.000000,11547.000000
43976.000000,30891.000000,21802.000000,11555.000000
43914.000000,30929.000000,21758.000000,11576.000000
43862.000000,30962.000000,21721.000000,11600.000000
43825.000000,30989.000000,21694.000000,11627.000000
43805.000000,31008.000000,21682.000000,11642.000000
43801.000000,31019.000000,21684.000000,11623.000000
43816.000000,31022.000000,21697.000000,11573.000000
43847.000000,31023.000000,21715.000000,11524.000000
43886.000000,31022.000000,21737.000000,11489.000000
43929.000000,31014.000000,21762.000000,11449.000000
43978.000000,30999.000000,21788.000000,11380.000000
44034.000000,30979.000000,21811.000000,11280.000000
44083.000000,30956.000000,21826.000000,11167.000000
44117.000000,30926.000000,21829.000000,11062.000000
44136.000000,30893.000000,21823.000000,10972.000000
44135.000000,30861.000000,21803.000000,10899.000000
44117.000000,30826.000000,21769.000000,10842.000000
44087.000000,30785.000000,21721.000000,10784.000000
44046.000000,30745.000000,21663.000000,10710.000000
43996.000000,30714.000000,21595.000000,10638.000000
43942.000000,30688.000000,21522.000000,10563.000000
43886.000000,30662.000000,21452.000000,10475.000000
43827.000000,30643.000000,21387.000000,10404.000000
43766.000000,30639.000000,21326.000000,10363.000000
43701.000000,30646.000000,21266.000000,10341.000000
43631.000000,30657.000000,21204.000000,10330.000000
43568.000000,30675.000000,21144.000000,10329.000000
43523.000000,30707.000000,21098.000000,10345.000000
43494.000000,30752.000000,21064.000000,10369.000000
43475.000000,30801.000000,21035.000000,10377.000000
43464.000000,30852.000000,21013.000000,10388.000000
43463.000000,30899.000000,20999.000000,10410.000000
43471.000000,30940.000000,20993.000000,10420.000000
43491.000000,30969.000000,20998.000000,10420.000000
43517.000000,30990.000000,21012.000000,10440.000000
43548.000000,31005.000000,21036.000000,10468.000000
43582.000000,31009.000000,21071.000000,10487.000000
43614.000000,31002.000000,21109.000000,10506.000000
43648.000000,30984.000000,21148.000000,10519.000000
43680.000000,30955.000000,21187.000000,10510.000000
43702.000000,30915.000000,21220.000000,10491.000000
43713.000000,30865.000000,21235.000000,10474.000000
43713.000000,30808.000000,21234.000000,10462.000000
43706.000000,30748.000000,21228.000000,10443.000000
43691.000000,30687.000000,21217.000000,10386.000000
43671.000000,30626.000000,21199.000000,10295.000000
43651.000000,30569.000000,21181.000000,10201.000000
43629.000000,30514.000000,21165.000000,10106.000000
43602.000000,30458.000000,21144.000000,10000.000000
43569.000000,30400.000000,21115.000000,9878.000000
43532.000000,30346.000000,21074.000000,9756.000000
43488.000000,30293.000000,21021.000000,9642.000000
43439.000000,30237.000000,20960.000000,9527.000000
43394.000000,30175.000000,20901.000000,9415.000000
43349.000000,30111.000000,20842.000000,9313.000000
43299.000000,30047.000000,20773.000000,9207.000000
43244.000000,29988.000000,20696.000000,9102.000000
43188.000000,29932.000000,20621.000000,9010.000000
43128.000000,29877.000000,20550.000000,8928.000000
43054.000000,29819.000000,20473.000000,8850.000000
42962.000000,29759.000000,20388.000000,8761.000000
42855.000000,29699.000000,20298.000000,8656.000000
42739.000000,29637.000000,20206.000000,8543.000000
42621.000000,29570.000000,20109.000000,8424.000000
42505.000000,29499.000000,20010.000000,8303.000000
42393.000000,29431.000000,19915.000000,8181.000000
42289.000000,29369.000000,19825.000000,8069.000000
42194.000000,29313.000000,19735.000000,7979.000000
42105.000000,29255.000000,19642.000000,7891.000000
42022.000000,29199.000000,19545.000000,7791.000000
41947.000000,29149.000000,19448.000000,7691.000000
41879.000000,29096.000000,19353.000000,7603.000000
41818.000000,29044.000000,19264.000000,7531.000000
41763.000000,29001.000000,19184.000000,7469.000000
41707.000000,28967.000000,19109.000000,7397.000000
41647.000000,28940.000000,19035.000000,7313.000000
41581.000000,28917.000000,18960.000000,7229.000000
41512.000000,28896.000000,18884.000000,7159.000000
41442.000000,28871.000000,18807.000000,7099.000000
41369.000000,28842.000000,18727.000000,7024.000000
41297.000000,28814.000000,18648.000000,6935.000000
41229.000000,28790.000000,18573.000000,6854.000000
41160.000000,28769.000000,18502.000000,6774.000000
41086.000000,28744.000000,18433.000000,6684.000000
41009.000000,28708.000000,18364.000000,6592.000000
40932.000000,28664.000000,18299.000000,6511.000000
40857.000000,28613.000000,18235.000000,6453.000000
40779.000000,28560.000000,18164.000000,6419.000000
40700.000000,28506.000000,18092.000000,6387.000000
40626.000000,28450.000000,18025.000000,6347.000000
40563.000000,28392.000000,17965.000000,6308.000000
40505.000000,28332.000000,17907.000000,6262.000000
40448.000000,28272.000000,17849.000000,6204.000000
40397.000000,28216.000000,17798.000000,6144.000000
40351.000000,28164.000000,17754.000000,6075.000000
40305.000000,28115.000000,17707.000000,5994.000000
40261.000000,28067.000000,17656.000000,5918.000000
40224.000000,28022.000000,17604.000000,5860.000000
40193.000000,27979.000000,17550.000000,5822.000000
40161.000000,27937.000000,17495.000000,5792.000000
40125.000000,27896.000000,17440.000000,5757.000000
40085.000000,27856.000000,17382.000000,5707.000000
40037.000000,27814.000000,17318.000000,5646.000000
39982.000000,27772.000000,17252.000000,5580.000000
39931.000000,27733.000000,17189.000000,5501.000000
39883.000000,27695.000000,17132.000000,5405.000000
39834.000000,27647.000000,17079.000000,5299.000000
39784.000000,27589.000000,17024.000000,5194.000000
39732.000000,27530.000000,16966.000000,5097.000000
39680.000000,27477.000000,16906.000000,5015.000000
39624.000000,27428.000000,16843.000000,4942.000000
39560.000000,27374.000000,16778.000000,4871.000000
39495.000000,27316.000000,16713.000000,4804.000000
39436.000000,27260.000000,16654.000000,4749.000000
39379.000000,27208.000000,16594.000000,4712.000000
39320.000000,27160.000000,16526.000000,4686.000000
39262.000000,27114.000000,16450.000000,4677.000000
39209.000000,27071.000000,16374.000000,4704.000000
39163.000000,27031.000000,16300.000000,4766.000000
39121.000000,26986.000000,16224.000000,4857.000000
39082.000000,26938.000000,16148.000000,4989.000000
39043.000000,26882.000000,16071.000000,5165.000000
39001.000000,26818.000000,15993.000000,5387.000000
38953.000000,26754.000000,15914.000000,5666.000000
38899.000000,26696.000000,15836.000000,6010.000000
38844.000000,26641.000000,15759.000000,6402.000000
38788.000000,26575.000000,15685.000000,6814.000000
38729.000000,26501.000000,15612.000000,7254.000000
38666.000000,26428.000000,15540.000000,7747.000000
38594.000000,26360.000000,15465.000000,8276.000000
38514.000000,26290.000000,15385.000000,8803.000000
38433.000000,26217.000000,15305.000000,9313.000000
38363.000000,26143.000000,15235.000000,9808.000000
38313.000000,26073.000000,15181.000000,10281.000000
38289.000000,26010.000000,15147.000000,10722.000000
38296.000000,25964.000000,15135.000000,11121.000000
38341.000000,25943.000000,15152.000000,11463.000000
38428.000000,25952.000000,15207.000000,11750.000000
38557.000000,25992.000000,15303.000000,11998.000000
38724.000000,26063.000000,15444.000000,12215.000000
38924.000000,26172.000000,15628.000000,12406.000000
39151.000000,26319.000000,15849.000000,12568.000000
39406.000000,26503.000000,16102.000000,12684.000000
39687.000000,26724.000000,16387.000000,12752.000000
39989.000000,26986.000000,16701.000000,12794.000000
40304.000000,27284.000000,17035.000000,12824.000000
40624.000000,27601.000000,17379.000000,12837.000000
40944.000000,27932.000000,17729.000000,12833.000000
41263.000000,28277.000000,18077.000000,12817.000000
41574.000000,28629.000000,18412.000000,12795.000000
41873.000000,28972.000000,18726.000000,12764.000000
42158.000000,29304.000000,19023.000000,12722.000000
42425.000000,29626.000000,19302.000000,12688.000000
42667.000000,29931.000000,19554.000000,12682.000000
42880.000000,30208.000000,19773.000000,12690.000000
43069.000000,30460.000000,19965.000000,12695.000000
43236.000000,30692.000000,20137.000000,12707.000000
43378.000000,30901.000000,20285.000000,12726.000000
43493.000000,31083.000000,20411.000000,12742.000000
43586.000000,31242.000000,20519.000000,12758.000000
43662.000000,31378.000000,20606.000000,12778.000000
43721.000000,31492.000000,20670.000000,12792.000000
43763.000000,31589.000000,20713.000000,12779.000000
43787.000000,31672.000000,20742.000000,12736.000000
43794.000000,31736.000000,20761.000000,12660.000000
43785.000000,31777.000000,20766.000000,12557.000000
43762.000000,31799.000000,20757.000000,12446.000000
43735.000000,31808.000000,20738.000000,12342.000000
43709.000000,31808.000000,20714.000000,12249.000000
43684.000000,31793.000000,20687.000000,12157.000000
43661.000000,31768.000000,20664.000000,12058.000000
43647.000000,31744.000000,20650.000000,11956.000000
43644.000000,31720.000000,20641.000000,11845.000000
43652.000000,31693.000000,20633.000000,11722.000000
43673.000000,31671.000000,20628.000000,11595.000000
43704.000000,31666.000000,20631.000000,11474.000000
43741.000000,31670.000000,20639.000000,11374.000000
43781.000000,31676.000000,20647.000000,11293.000000
43819.000000,31684.000000,20650.000000,11228.000000
43853.000000,31698.000000,20646.000000,11178.000000
43880.000000,31712.000000,20631.000000,11139.000000
43897.000000,31723.000000,20605.000000,11111.000000
43908.000000,31731.000000,20573.000000,11097.000000
43916.000000,31740.000000,20544.000000,11108.000000
43914.000000,31750.000000,20514.000000,11137.000000
43898.000000,31753.000000,20477.000000,11161.000000
43870.000000,31745.000000,20431.000000,11172.000000
43834.000000,31724.000000,20382.000000,11187.000000
43792.000000,31689.000000,20327.000000,11217.000000
43745.000000,31635.000000,20266.000000,11254.000000
43699.000000,31566.000000,20205.000000,11278.000000
43662.000000,31490.000000,20148.000000,11282.000000
43634.000000,31405.000000,20099.000000,11278.000000
43609.000000,31311.000000,20060.000000,11279.000000
43590.000000,31216.000000,20031.000000,11287.000000
43577.000000,31127.000000,20012.000000,11302.000000
43569.000000,31045.000000,20000.000000,11312.000000
43565.000000,30974.000000,19990.000000,11312.000000
43561.000000,30923.000000,19982.000000,11294.000000
43558.000000,30893.000000,19985.000000,11253.000000
43565.000000,30885.000000,19994.000000,11199.000000
43585.000000,30892.000000,20003.000000,11142.000000
43614.000000,30911.000000,20017.000000,11083.000000
43646.000000,30944.000000,20037.000000,11014.000000
43679.000000,30985.000000,20057.000000,10932.000000
43711.000000,31032.000000,20074.000000,10841.000000
43739.000000,31085.000000,20095.000000,10752.000000
43763.000000,31139.000000,20118.000000,10668.000000
43781.000000,31185.000000,20139.000000,10570.000000
43791.000000,31222.000000,20153.000000,10437.000000
43794.000000,31250.000000,20164.000000,10283.000000
43791.000000,31266.000000,20173.000000,10128.000000
43784.000000,31271.000000,20181.000000,9986.000000
43774.000000,31265.000000,20190.000000,9861.000000
43759.000000,31256.000000,20194.000000,9741.000000
43732.000000,31243.000000,20184.000000,9627.000000
43694.000000,31223.000000,20156.000000,9520.000000
43648.000000,31197.000000,20119.000000,9413.000000
43598.000000,31166.000000,20077.000000,9302.000000
43543.000000,31131.000000,20029.000000,9189.000000
43487.000000,31085.000000,19975.000000,9074.000000
43430.000000,31032.000000,19919.000000,8957.000000
43370.000000,30979.000000,19859.000000,8842.000000
43304.000000,30923.000000,19791.000000,8723.000000
43234.000000,30855.000000,19717.000000,8606.000000
43164.000000,30778.000000,19645.000000,8498.000000
43092.000000,30699.000000,19578.000000,8392.000000
43018.000000,30617.000000,19512.000000,8289.000000
42939.000000,30532.000000,19443.000000,8197.000000
42861.000000,30449.000000,19372.000000,8114.000000
42784.000000,30370.000000,19303.000000,8035.000000
42708.000000,30292.000000,19234.000000,7961.000000
42629.000000,30214.000000,19156.000000,7892.000000
42551.000000,30138.000000,19074.000000,7828.000000
42480.000000,30062.000000,18996.000000,7762.000000
42411.000000,29982.000000,18921.000000,7701.000000
42341.000000,29896.000000,18849.000000,7654.000000
42274.000000,29812.000000,18778.000000,7618.000000
42212.000000,29736.000000,18707.000000,7580.000000
42152.000000,29664.000000,18637.000000,7531.000000
42090.000000,29593.000000,18567.000000,7473.000000
42029.000000,29523.000000,18494.000000,7423.000000
41971.000000,29457.000000,18423.000000,7375.000000
41916.000000,29395.000000,18352.000000,7304.000000
41861.000000,29340.000000,18279.000000,7211.000000
41803.000000,29291.000000,18209.000000,7117.000000
41746.000000,29242.000000,18148.000000,7022.000000
41689.000000,29191.000000,18090.000000,6917.000000
41631.000000,29139.000000,18027.000000,6813.000000
41577.000000,29089.000000,17963.000000,6722.000000
41524.000000,29045.000000,17901.000000,6640.000000
41468.000000,29013.000000,17837.000000,6556.000000
41415.000000,28987.000000,17774.000000,6465.000000
41371.000000,28960.000000,17719.000000,6378.000000
41332.000000,28926.000000,17671.000000,6304.000000
41297.000000,28890.000000,17621.000000,6240.000000
41268.000000,28854.000000,17575.000000,6181.000000
41245.000000,28813.000000,17535.000000,6123.000000
41222.000000,28767.000000,17497.000000,6065.000000
41191.000000,28718.000000,17453.000000,6012.000000
41155.000000,28669.000000,17407.000000,5960.000000
41120.000000,28627.000000,17368.000000,5909.000000
41084.000000,28587.000000,17329.000000,5857.000000
41046.000000,28545.000000,17284.000000,5803.000000
41006.000000,28503.000000,17234.000000,5743.000000
40965.000000,28463.000000,17187.000000,5673.000000
40918.000000,28423.000000,17140.000000,5594.000000
40863.000000,28382.000000,17085.000000,5502.000000
40805.000000,28339.000000,17028.000000,5409.000000
40754.000000,28300.000000,16973.000000,5320.000000
40706.000000,28264.000000,16921.000000,5230.000000
40652.000000,28225.000000,16864.000000,5139.000000
40595.000000,28178.000000,16802.000000,5052.000000
40544.000000,28130.000000,16743.000000,4980.000000
40495.000000,28081.000000,16689.000000,4919.000000
40447.000000,28032.000000,16639.000000,4858.000000
40400.000000,27987.000000,16587.000000,4801.000000
40357.000000,27944.000000,16538.000000,4757.000000
40316.000000,27898.000000,16488.000000,4732.000000
40274.000000,27847.000000,16437.000000,4720.000000
40228.000000,27796.000000,16387.000000,4728.000000
40180.000000,27745.000000,16338.000000,4771.000000
40129.000000,27695.000000,16285.000000,4856.000000
40076.000000,27642.000000,16221.000000,4988.000000
40022.000000,27588.000000,16155.000000,5176.000000
39966.000000,27535.000000,16089.000000,5427.000000
39905.000000,27482.000000,16022.000000,5725.000000
39840.000000,27431.000000,15953.000000,6071.000000
39775.000000,27384.000000,15883.000000,6475.000000
39708.000000,27338.000000,15813.000000,6926.000000
39639.000000,27286.000000,15743.000000,7412.000000
39569.000000,27226.000000,15673.000000,7927.000000
39502.000000,27166.000000,15606.000000,8461.000000
39440.000000,27105.000000,15543.000000,9001.000000
39377.000000,27036.000000,15480.000000,9539.000000
39314.000000,26961.000000,15413.000000,10061.000000
39259.000000,26884.000000,15348.000000,10565.000000
39220.000000,26806.000000,15287.000000,11047.000000
39194.000000,26726.000000,15231.000000,11483.000000
39179.000000,26646.000000,15182.000000,11867.000000
39175.000000,26571.000000,15144.000000,12213.000000
39186.000000,26499.000000,15130.000000,12515.000000
39220.000000,26425.000000,15144.000000,12770.000000
39284.000000,26350.000000,15188.000000,12983.000000
39379.000000,26280.000000,15265.000000,13166.000000
39508.000000,26218.000000,15380.000000,13326.000000
39669.000000,26155.000000,15536.000000,13467.000000
39862.000000,26094.000000,15732.000000,13580.000000
40084.000000,26041.000000,15957.000000,13658.000000
40333.000000,25988.000000,16207.000000,13699.000000
40606.000000,25929.000000,16481.000000,13708.000000
40902.000000,25872.000000,16780.000000,13699.000000
41219.000000,25825.000000,17103.000000,13683.000000
41550.000000,25793.000000,17440.000000,13655.000000
41879.000000,25781.000000,17782.000000,13616.000000
42200.000000,25794.000000,18124.000000,13586.000000
42516.000000,25838.000000,18459.000000,13574.000000
42818.000000,25921.000000,18777.000000,13575.000000
43096.000000,26042.000000,19075.000000,13577.000000
43347.000000,26204.000000,19352.000000,13576.000000
43571.000000,26405.000000,19606.000000,13579.000000
43766.000000,26639.000000,19838.000000,13590.000000
43933.000000,26899.000000,20044.000000,13592.000000
44077.000000,27185.000000,20229.000000,13585.000000
44205.000000,27494.000000,20395.000000,13581.000000
44316.000000,27818.000000,20536.000000,13580.000000
44407.000000,28153.000000,20651.000000,13590.000000
44487.000000,28488.000000,20748.000000,13604.000000
44559.000000,28815.000000,20830.000000,13608.000000
44624.000000,29128.000000,20897.000000,13598.000000
44680.000000,29427.000000,20949.000000,13571.000000
44726.000000,29711.000000,20987.000000,13533.000000
44763.000000,29974.000000,21014.000000,13481.000000
44796.000000,30209.000000,21036.000000,13400.000000
44824.000000,30414.000000,21058.000000,13296.000000
44850.000000,30594.000000,21083.000000,13188.000000
44880.000000,30750.000000,21113.000000,13087.000000
44913.000000,30885.000000,21146.000000,12992.000000
44944.000000,30998.000000,21180.000000,12899.000000
44975.000000,31095.000000,21222.000000,12807.000000
45009.000000,31176.000000,21268.000000,12718.000000
45044.000000,31242.000000,21314.000000,12628.000000
45081.000000,31298.000000,21356.000000,12535.000000
45121.000000,31349.000000,21398.000000,12438.000000
45167.000000,31392.000000,21438.000000,12349.000000
45217.000000,31423.000000,21476.000000,12287.000000
45263.000000,31442.000000,21513.000000,12253.000000
45304.000000,31453.000000,21554.000000,12241.000000
45338.000000,31457.000000,21590.000000,12242.000000
45362.000000,31451.000000,21613.000000,12242.000000
45373.000000,31438.000000,21628.000000,12233.000000
45372.000000,31424.000000,21637.000000,12228.000000
45359.000000,31415.000000,21631.000000,12239.000000
45334.000000,31408.000000,21612.000000,12265.000000
45300.000000,31404.000000,21586.000000,12294.000000
45255.000000,31405.000000,21551.000000,12323.000000
45206.000000,31408.000000,21509.000000,12347.000000
45155.000000,31410.000000,21463.000000,12356.000000
45104.000000,31412.000000,21412.000000,12359.000000
45055.000000,31415.000000,21361.000000,12369.000000
45010.000000,31410.000000,21317.000000,12382.000000
44970.000000,31393.000000,21281.000000,12381.000000
44934.000000,31368.000000,21253.000000,12359.000000
44905.000000,31336.000000,21228.000000,12317.000000
44884.000000,31293.000000,21209.000000,12257.000000
44869.000000,31232.000000,21195.000000,12192.000000
44860.000000,31161.000000,21190.000000,12140.000000
44861.000000,31083.000000,21197.000000,12087.000000
44867.000000,30999.000000,21215.000000,12016.000000
44874.000000,30915.000000,21236.000000,11924.000000
44890.000000,30835.000000,21258.000000,11815.000000
44914.000000,30758.000000,21283.000000,11690.000000
44937.000000,30681.000000,21305.000000,11553.000000
44961.000000,30606.000000,21322.000000,11416.000000
44986.000000,30539.000000,21336.000000,11291.000000
45007.000000,30487.000000,21349.000000,11178.000000
45021.000000,30446.000000,21364.000000,11067.000000
45030.000000,30419.000000,21384.000000,10958.000000
45037.000000,30409.000000,21406.000000,10857.000000
45045.000000,30416.000000,21424.000000,10753.000000
45045.000000,30432.000000,21430.000000,10642.000000
45037.000000,30452.000000,21427.000000,10534.000000
45025.000000,30477.000000,21420.000000,10439.000000
45004.000000,30505.000000,21404.000000,10355.000000
44967.000000,30533.000000,21375.000000,10267.000000
44919.000000,30565.000000,21336.000000,10170.000000
44864.000000,30607.000000,21294.000000,10070.000000
44803.000000,30660.000000,21252.000000,9964.000000
44737.000000,30722.000000,21205.000000,9845.000000
44672.000000,30796.000000,21155.000000,9727.000000
44607.000000,30886.000000,21108.000000,9632.000000
44539.000000,30983.000000,21055.000000,9553.000000
44465.000000,31074.000000,20993.000000,9476.000000
44391.000000,31162.000000,20929.000000,9398.000000
44326.000000,31255.000000,20871.000000,9318.000000
44264.000000,31346.000000,20814.000000,9231.000000
44200.000000,31426.000000,20749.000000,9139.000000
44133.000000,31491.000000,20676.000000,9058.000000
44067.000000,31539.000000,20602.000000,8991.000000
44005.000000,31570.000000,20526.000000,8915.000000
43944.000000,31582.000000,20451.000000,8821.000000
43884.000000,31582.000000,20383.000000,8727.000000
43825.000000,31573.000000,20320.000000,8649.000000
43762.000000,31555.000000,20257.000000,8580.000000
43695.000000,31526.000000,20193.000000,8520.000000
43624.000000,31486.000000,20133.000000,8471.000000
43548.000000,31436.000000,20070.000000,8418.000000
43468.000000,31368.000000,20001.000000,8358.000000
43388.000000,31280.000000,19925.000000,8304.000000
43316.000000,31181.000000,19845.000000,8258.000000
43248.000000,31080.000000,19765.000000,8209.000000
43182.000000,30973.000000,19686.000000,8153.000000
43123.000000,30859.000000,19609.000000,8100.000000
43075.000000,30739.000000,19537.000000,8056.000000
43035.000000,30613.000000,19474.000000,8014.000000
42998.000000,30479.000000,19416.000000,7970.000000
42963.000000,30342.000000,19362.000000,7919.000000
42932.000000,30213.000000,19315.000000,7866.000000
42903.000000,30089.000000,19272.000000,7809.000000
42869.000000,29968.000000,19227.000000,7745.000000
42833.000000,29852.000000,19182.000000,7675.000000
42800.000000,29746.000000,19142.000000,7603.000000
42766.000000,29649.000000,19104.000000,7533.000000
42721.000000,29554.000000,19055.000000,7460.000000
42668.000000,29461.000000,18998.000000,7390.000000
42616.000000,29380.000000,18946.000000,7332.000000
42564.000000,29303.000000,18893.000000,7278.000000
42507.000000,29221.000000,18835.000000,7210.000000
42448.000000,29138.000000,18778.000000,7125.000000
42388.000000,29061.000000,18724.000000,7037.000000
42322.000000,28987.000000,18667.000000,6958.000000
42249.000000,28909.000000,18607.000000,6877.000000
42178.000000,28833.000000,18544.000000,6789.000000
42114.000000,28762.000000,18481.000000,6701.000000
42053.000000,28690.000000,18420.000000,6609.000000
41993.000000,28617.000000,18360.000000,6507.000000
41939.000000,28544.000000,18298.000000,6398.000000
41893.000000,28469.000000,18240.000000,6294.000000
41850.000000,28391.000000,18189.000000,6207.000000
41807.000000,28310.000000,18142.000000,6132.000000
41768.000000,28233.000000,18094.000000,6062.000000
41733.000000,28163.000000,18049.000000,5995.000000
41698.000000,28097.000000,18006.000000,5924.000000
41659.000000,28035.000000,17958.000000,5846.000000
41616.000000,27977.000000,17905.000000,5765.000000
41565.000000,27920.000000,17848.000000,5688.000000
41508.000000,27861.000000,17788.000000,5617.000000
41448.000000,27799.000000,17726.000000,5566.000000
41386.000000,27740.000000,17665.000000,5551.000000
41327.000000,27684.000000,17608.000000,5571.000000
41267.000000,27628.000000,17550.000000,5625.000000
41203.000000,27566.000000,17488.000000,5719.000000
41137.000000,27498.000000,17427.000000,5861.000000
41072.000000,27429.000000,17365.000000,6055.000000
41008.000000,27356.000000,17299.000000,6306.000000
40943.000000,27273.000000,17231.000000,6610.000000
40882.000000,27180.000000,17163.000000,6962.000000
40825.000000,27083.000000,17097.000000,7363.000000
40771.000000,26979.000000,17033.000000,7808.000000
40718.000000,26868.000000,16971.000000,8286.000000
40665.000000,26761.000000,16913.000000,8790.000000
40613.000000,26656.000000,16857.000000,9308.000000
40554.000000,26551.000000,16792.000000,9827.000000
40488.000000,26448.000000,16718.000000,10346.000000
40422.000000,26354.000000,16648.000000,10853.000000
40356.000000,26264.000000,16583.000000,11331.000000
40287.000000,26176.000000,16513.000000,11770.000000
40213.000000,26094.000000,16437.000000,12174.000000
40135.000000,26020.000000,16358.000000,12548.000000
40055.000000,25946.000000,16279.000000,12888.000000
39974.000000,25871.000000,16200.000000,13180.000000
39894.000000,25795.000000,16124.000000,13424.000000
39819.000000,25715.000000,16058.000000,13627.000000
39753.000000,25630.000000,16001.000000,13789.000000
39692.000000,25539.000000,15944.000000,13904.000000
39634.000000,25441.000000,15885.000000,13991.000000
39580.000000,25340.000000,15826.000000,14077.000000
39532.000000,25240.000000,15769.000000,14155.000000
39494.000000,25144.000000,15720.000000,14215.000000
39469.000000,25059.000000,15681.000000,14262.000000
39464.000000,24996.000000,15658.000000,14287.000000
39481.000000,24958.000000,15655.000000,14274.000000
39523.000000,24949.000000,15671.000000,14241.000000
39593.000000,24973.000000,15711.000000,14222.000000
39695.000000,25031.000000,15782.000000,14223.000000
39824.000000,25122.000000,15887.000000,14229.000000
39977.000000,25249.000000,16028.000000,14233.000000
40163.000000,25417.000000,16209.000000,14232.000000
40380.000000,25627.000000,16431.000000,14228.000000
40620.000000,25874.000000,16693.000000,14219.000000
40881.000000,26150.000000,16989.000000,14189.000000
41165.000000,26453.000000,17310.000000,14150.000000
41467.000000,26775.000000,17641.000000,14126.000000
41781.000000,27110.000000,17973.000000,14109.000000
42099.000000,27448.000000,18305.000000,14083.000000
42415.000000,27779.000000,18634.000000,14047.000000
42724.000000,28100.000000,18954.000000,14000.000000
43024.000000,28409.000000,19260.000000,13941.000000
43311.000000,28702.000000,19552.000000,13878.000000
43579.000000,28975.000000,19833.000000,13830.000000
43821.000000,29220.000000,20097.000000,13796.000000
44038.000000,29437.000000,20338.000000,13758.000000
44231.000000,29628.000000,20560.000000,13711.000000
44402.000000,29796.000000,20767.000000,13655.000000
44547.000000,29943.000000,20951.000000,13589.000000
44658.000000,30068.000000,21102.000000,13514.000000
44740.000000,30178.000000,21222.000000,13441.000000
44807.000000,30273.000000,21324.000000,13360.000000
44858.000000,30349.000000,21411.000000,13247.000000
44889.000000,30400.000000,21482.000000,13119.000000
44900.000000,30430.000000,21539.000000,13008.000000
44900.000000,30442.000000,21583.000000,12909.000000
44894.000000,30440.000000,21615.000000,12815.000000
44888.000000,30425.000000,21636.000000,12730.000000
44890.000000,30403.000000,21657.000000,12652.000000
44903.000000,30379.000000,21684.000000,12598.000000
44918.000000,30352.000000,21711.000000,12587.000000
44935.000000,30323.000000,21739.000000,12617.000000
44965.000000,30300.000000,21776.000000,12664.000000
45008.000000,30289.000000,21823.000000,12701.000000
45061.000000,30290.000000,21875.000000,12730.000000
45113.000000,30302.000000,21926.000000,12766.000000
45166.000000,30326.000000,21977.000000,12815.000000
45231.000000,30365.000000,22033.000000,12863.000000
45301.000000,30408.000000,22091.000000,12895.000000
45362.000000,30446.000000,22147.000000,12908.000000
45411.000000,30484.000000,22200.000000,12904.000000
45452.000000,30520.000000,22249.000000,12888.000000
45480.000000,30546.000000,22284.000000,12863.000000
45496.000000,30552.000000,22310.000000,12825.000000
45501.000000,30535.000000,22329.000000,12782.000000
45495.000000,30498.000000,22340.000000,12745.000000
45473.000000,30440.000000,22337.000000,12693.000000
45442.000000,30363.000000,22325.000000,12622.000000
45411.000000,30279.000000,22308.000000,12545.000000
45380.000000,30193.000000,22284.000000,12462.000000
45346.000000,30107.000000,22251.000000,12371.000000
45309.000000,30021.000000,22210.000000,12274.000000
45276.000000,29944.000000,22169.000000,12180.000000
45246.000000,29880.000000,22127.000000,12104.000000
45214.000000,29831.000000,22083.000000,12036.000000
45183.000000,29798.000000,22045.000000,11949.000000
45158.000000,29786.000000,22017.000000,11853.000000
45136.000000,29798.000000,21994.000000,11772.000000
45117.000000,29827.000000,21973.000000,11691.000000
45106.000000,29867.000000,21959.000000,11590.000000
45105.000000,29921.000000,21961.000000,11468.000000
45109.000000,29985.000000,21974.000000,11334.000000
45118.000000,30048.000000,21989.000000,11192.000000
45133.000000,30110.000000,22003.000000,11051.000000
45150.000000,30176.000000,22018.000000,10931.000000
45162.000000,30238.000000,22033.000000,10822.000000
45168.000000,30292.000000,22047.000000,10707.000000
45176.000000,30341.000000,22068.000000,10593.000000
45192.000000,30389.000000,22095.000000,10489.000000
45211.000000,30428.000000,22113.000000,10384.000000
45224.000000,30455.000000,22121.000000,10282.000000
45230.000000,30474.000000,22126.000000,10203.000000
45227.000000,30492.000000,22131.000000,10130.000000
45219.000000,30508.000000,22134.000000,10045.000000
45209.000000,30521.000000,22133.000000,9952.000000
45200.000000,30534.000000,22130.000000,9850.000000
45189.000000,30547.000000,22127.000000,9749.000000
45172.000000,30553.000000,22118.000000,9659.000000
45150.000000,30551.000000,22099.000000,9577.000000
45131.000000,30544.000000,22073.000000,9502.000000
45109.000000,30525.000000,22043.000000,9430.000000
45073.000000,30483.000000,22004.000000,9358.000000
45021.000000,30419.000000,21956.000000,9276.000000
44956.000000,30342.000000,21905.000000,9189.000000
44883.000000,30263.000000,21854.000000,9112.000000
44808.000000,30180.000000,21799.000000,9037.000000
44734.000000,30095.000000,21742.000000,8950.000000
44665.000000,30010.000000,21687.000000,8858.000000
44602.000000,29927.000000,21630.000000,8787.000000
44539.000000,29837.000000,21563.000000,8753.000000
44474.000000,29744.000000,21488.000000,8739.000000
44411.000000,29655.000000,21416.000000,8718.000000
44352.000000,29570.000000,21346.000000,8680.000000
44286.000000,29485.000000,21273.000000,8637.000000
44214.000000,29405.000000,21201.000000,8593.000000
44145.000000,29332.000000,21137.000000,8549.000000
44078.000000,29263.000000,21075.000000,8494.000000
44010.000000,29192.000000,21008.000000,8421.000000
43940.000000,29120.000000,20941.000000,8354.000000
43868.000000,29054.000000,20874.000000,8296.000000
43796.000000,28990.000000,20803.000000,8236.000000
43720.000000,28912.000000,20728.000000,8185.000000
43647.000000,28816.000000,20654.000000,8148.000000
43578.000000,28703.000000,20587.000000,8099.000000
43507.000000,28576.000000,20526.000000,8040.000000
43429.000000,28440.000000,20467.000000,7993.000000
43348.000000,28300.000000,20411.000000,7951.000000
43270.000000,28159.000000,20358.000000,7894.000000
43196.000000,28020.000000,20301.000000,7826.000000
43122.000000,27889.000000,20235.000000,7760.000000
43046.000000,27769.000000,20161.000000,7706.000000
42971.000000,27663.000000,20082.000000,7671.000000
42898.000000,27571.000000,20002.000000,7649.000000
42823.000000,27496.000000,19925.000000,7628.000000
42748.000000,27435.000000,19855.000000,7594.000000
42674.000000,27385.000000,19789.000000,7531.000000
42601.000000,27344.000000,19723.000000,7439.000000
42532.000000,27306.000000,19656.000000,7325.000000
42471.000000,27271.000000,19590.000000,7188.000000
42416.000000,27242.000000,19527.000000,7038.000000
42363.000000,27213.000000,19465.000000,6889.000000
42311.000000,27182.000000,19402.000000,6760.000000
42263.000000,27148.000000,19344.000000,6668.000000
42219.000000,27107.000000,19295.000000,6595.000000
42173.000000,27060.000000,19251.000000,6520.000000
42122.000000,27009.000000,19207.000000,6465.000000
42070.000000,26954.000000,19162.000000,6459.000000
42016.000000,26899.000000,19115.000000,6499.000000
41955.000000,26839.000000,19061.000000,6565.000000
41891.000000,26771.000000,19006.000000,6646.000000
41828.000000,26703.000000,18955.000000,6759.000000
41765.000000,26643.000000,18906.000000,6919.000000
41701.000000,26590.000000,18854.000000,7128.000000
41639.000000,26543.000000,18803.000000,7386.000000
41585.000000,26498.000000,18756.000000,7690.000000
41534.000000,26449.000000,18709.000000,8041.000000
41477.000000,26402.000000,18654.000000,8429.000000
41415.000000,26361.000000,18586.000000,8860.000000
41354.000000,26324.000000,18513.000000,9337.000000
41290.000000,26279.000000,18444.000000,9845.000000
41223.000000,26221.000000,18376.000000,10364.000000
41153.000000,26154.000000,18306.000000,10867.000000
41085.000000,26086.000000,18235.000000,11347.000000
41017.000000,26013.000000,18166.000000,11811.000000
40949.000000,25933.000000,18098.000000,12264.000000
40881.000000,25848.000000,18033.000000,12691.000000
40815.000000,25764.000000,17979.000000,13084.000000
40752.000000,25685.000000,17928.000000,13452.000000
40687.000000,25611.000000,17872.000000,13795.000000
40622.000000,25541.000000,17816.000000,14110.000000
40561.000000,25475.000000,17764.000000,14391.000000
40504.000000,25412.000000,17717.000000,14616.000000
40447.000000,25353.000000,17673.000000,14776.000000
40396.000000,25298.000000,17633.000000,14888.000000
40352.000000,25250.000000,17595.000000,14971.000000
40309.000000,25203.000000,17551.000000,15015.000000
40264.000000,25152.000000,17502.000000,15013.000000
40223.000000,25096.000000,17451.000000,14981.000000
40187.000000,25036.000000,17403.000000,14938.000000
40157.000000,24974.000000,17358.000000,14885.000000
40126.000000,24914.000000,17315.000000,14826.000000
40092.000000,24859.000000,17271.000000,14765.000000
40051.000000,24807.000000,17222.000000,14715.000000
40003.000000,24755.000000,17165.000000,14676.000000
39952.000000,24710.000000,17104.000000,14641.000000
39905.000000,24683.000000,17050.000000,14615.000000
39866.000000,24684.000000,17002.000000,14606.000000
39826.000000,24714.000000,16951.000000,14613.000000
39781.000000,24775.000000,16895.000000,14629.000000
39738.000000,24868.000000,16839.000000,14653.000000
39700.000000,24998.000000,16783.000000,14679.000000
39661.000000,25165.000000,16726.000000,14690.000000
39614.000000,25370.000000,16669.000000,14684.000000
39565.000000,25619.000000,16612.000000,14671.000000
39514.000000,25914.000000,16554.000000,14632.000000
39456.000000,26241.000000,16490.000000,14555.000000
39395.000000,26588.000000,16422.000000,14468.000000
39337.000000,26953.000000,16360.000000,14391.000000
39281.000000,27331.000000,16309.000000,14316.000000
39229.000000,27708.000000,16266.000000,14240.000000
39190.000000,28072.000000,16236.000000,14173.000000
39180.000000,28420.000000,16222.000000,14101.000000
39204.000000,28744.000000,16228.000000,13999.000000
39258.000000,29040.000000,16257.000000,13875.000000
39341.000000,29305.000000,16313.000000,13737.000000
39458.000000,29537.000000,16403.000000,13597.000000
39612.000000,29731.000000,16525.000000,13485.000000
39801.000000,29889.000000,16683.000000,13408.000000
40019.000000,30016.000000,16882.000000,13359.000000
40260.000000,30115.000000,17125.000000,13340.000000
40524.000000,30189.000000,17402.000000,13342.000000
40814.000000,30238.000000,17706.000000,13355.000000
41124.000000,30267.000000,18029.000000,13371.000000
41449.000000,30283.000000,18362.000000,13382.000000
41779.000000,30290.000000,18702.000000,13386.000000
42107.000000,30290.000000,19041.000000,13382.000000
42424.000000,30282.000000,19372.000000,13384.000000
42732.000000,30268.000000,19697.000000,13406.000000
43027.000000,30248.000000,20013.000000,13431.000000
43300.000000,30227.000000,20312.000000,13439.000000
43551.000000,30209.000000,20588.000000,13432.000000
43780.000000,30195.000000,20841.000000,13436.000000
43986.000000,30180.000000,21069.000000,13455.000000
44168.000000,30167.000000,21270.000000,13468.000000
44327.000000,30165.000000,21447.000000,13467.000000
44470.000000,30174.000000,21603.000000,13464.000000
44596.000000,30185.000000,21742.000000,13465.000000
44704.000000,30193.000000,21869.000000,13463.000000
44794.000000,30202.000000,21983.000000,13446.000000
44866.000000,30210.000000,22083.000000,13403.000000
44918.000000,30209.000000,22158.000000,13344.000000
44953.000000,30196.000000,22214.000000,13277.000000
44973.000000,30173.000000,22261.000000,13201.000000
44983.000000,30143.000000,22303.000000,13105.000000
44991.000000,30104.000000,22340.000000,12977.000000
44999.000000,30055.000000,22370.000000,12832.000000
45005.000000,29995.000000,22397.000000,12689.000000
45014.000000,29930.000000,22424.000000,12549.000000
45029.000000,29862.000000,22451.000000,12408.000000
45054.000000,29793.000000,22476.000000,12262.000000
45084.000000,29724.000000,22506.000000,12127.000000
45116.000000,29661.000000,22539.000000,12012.000000
45147.000000,29603.000000,22574.000000,11908.000000
45182.000000,29544.000000,22615.000000,11818.000000
45220.000000,29484.000000,22665.000000,11729.000000
45259.000000,29432.000000,22720.000000,11632.000000
45299.000000,29386.000000,22776.000000,11534.000000
45340.000000,29345.000000,22833.000000,11436.000000
45376.000000,29309.000000,22891.000000,11349.000000
45404.000000,29278.000000,22946.000000,11269.000000
45420.000000,29252.000000,22992.000000,11181.000000
45427.000000,29232.000000,23024.000000,11085.000000
45428.000000,29220.000000,23043.000000,10986.000000
45416.000000,29207.000000,23049.000000,10877.000000
45383.000000,29192.000000,23043.000000,10760.000000
45341.000000,29179.000000,23028.000000,10651.000000
45295.000000,29167.000000,23009.000000,10541.000000
45236.000000,29148.000000,22982.000000,10420.000000
45161.000000,29121.000000,22945.000000,10318.000000
45074.000000,29095.000000,22899.000000,10246.000000
44987.000000,29075.000000,22846.000000,10190.000000
44908.000000,29059.000000,22793.000000,10130.000000
44836.000000,29038.000000,22743.000000,10065.000000
44773.000000,29015.000000,22699.000000,10009.000000
44722.000000,28991.000000,22663.000000,9959.000000
44678.000000,28963.000000,22633.000000,9893.000000
44642.000000,28933.000000,22611.000000,9800.000000
44612.000000,28903.000000,22597.000000,9699.000000
44585.000000,28876.000000,22587.000000,9614.000000
44558.000000,28845.000000,22577.000000,9547.000000
44533.000000,28809.000000,22569.000000,9491.000000
44514.000000,28772.000000,22566.000000,9441.000000
44498.000000,28732.000000,22568.000000,9392.000000
44481.000000,28685.000000,22571.000000,9350.000000
44467.000000,28628.000000,22577.000000,9304.000000
44459.000000,28560.000000,22584.000000,9241.000000
44459.000000,28487.000000,22593.000000,9174.000000
44459.000000,28406.000000,22602.000000,9114.000000
44457.000000,28314.000000,22605.000000,9063.000000
44452.000000,28214.000000,22601.000000,9025.000000
44442.000000,28110.000000,22593.000000,8992.000000
44422.000000,28004.000000,22582.000000,8943.000000
44401.000000,27899.000000,22566.000000,8874.000000
44384.000000,27798.000000,22545.000000,8809.000000
44369.000000,27702.000000,22519.000000,8743.000000
44350.000000,27606.000000,22486.000000,8643.000000
44322.000000,27510.000000,22446.000000,8512.000000
44289.000000,27416.000000,22404.000000,8387.000000
44250.000000,27320.000000,22358.000000,8282.000000
44200.000000,27223.000000,22310.000000,8197.000000
44142.000000,27132.000000,22261.000000,8142.000000
44079.000000,27049.000000,22213.000000,8114.000000
44005.000000,26968.000000,22159.000000,8079.000000
43918.000000,26885.000000,22095.000000,8012.000000
43829.000000,26799.000000,22026.000000,7935.000000
43743.000000,26712.000000,21951.000000,7864.000000
43652.000000,26631.000000,21869.000000,7788.000000
43558.000000,26556.000000,21782.000000,7695.000000
43468.000000,26485.000000,21698.000000,7585.000000
43384.000000,26412.000000,21618.000000,7477.000000
43302.000000,26335.000000,21539.000000,7391.000000
43218.000000,26256.000000,21454.000000,7313.000000
43133.000000,26179.000000,21372.000000,7236.000000
43047.000000,26104.000000,21295.000000,7166.000000
42961.000000,26035.000000,21219.000000,7091.000000
42878.000000,25974.000000,21141.000000,7006.000000
42797.000000,25923.000000,21061.000000,6918.000000
42723.000000,25885.000000,20978.000000,6822.000000
42652.000000,25857.000000,20895.000000,6720.000000
42581.000000,25828.000000,20810.000000,6629.000000
42510.000000,25801.000000,20725.000000,6553.000000
42443.000000,25775.000000,20642.000000,6497.000000
42379.000000,25743.000000,20560.000000,6470.000000
42316.000000,25699.000000,20483.000000,6482.000000
42252.000000,25648.000000,20414.000000,6542.000000
42189.000000,25592.000000,20346.000000,6646.000000
42125.000000,25526.000000,20275.000000,6787.000000
42061.000000,25452.000000,20207.000000,6967.000000
42002.000000,25378.000000,20148.000000,7202.000000
41942.000000,25307.000000,20093.000000,7510.000000
41875.000000,25240.000000,20033.000000,7895.000000
41807.000000,25180.000000,19967.000000,8331.000000
41742.000000,25135.000000,19905.000000,8793.000000
41676.000000,25101.000000,19845.000000,9276.000000
41607.000000,25073.000000,19781.000000,9771.000000
41539.000000,25048.000000,19716.000000,10285.000000
41481.000000,25028.000000,19656.000000,10824.000000
41427.000000,25010.000000,19600.000000,11368.000000
41371.000000,24989.000000,19545.000000,11903.000000
41317.000000,24961.000000,19491.000000,12427.000000
41267.000000,24932.000000,19442.000000,12928.000000
41221.000000,24905.000000,19393.000000,13393.000000
41174.000000,24877.000000,19336.000000,13810.000000
41123.000000,24841.000000,19268.000000,14174.000000
41066.000000,24798.000000,19195.000000,14474.000000
41007.000000,24748.000000,19121.000000,14707.000000
40946.000000,24686.000000,19048.000000,14885.000000
40885.000000,24617.000000,18982.000000,15039.000000
40822.000000,24545.000000,18923.000000,15173.000000
40758.000000,24470.000000,18865.000000,15272.000000
40691.000000,24389.000000,18801.000000,15342.000000
40622.000000,24307.000000,18735.000000,15399.000000
40558.000000,24230.000000,18669.000000,15440.000000
40494.000000,24156.000000,18599.000000,15445.000000
40422.000000,24082.000000,18520.000000,15417.000000
40349.000000,24014.000000,18439.000000,15382.000000
40282.000000,23950.000000,18366.000000,15338.000000
40218.000000,23888.000000,18299.000000,15281.000000
40154.000000,23828.000000,18232.000000,15224.000000
40093.000000,23771.000000,18165.000000,15177.000000
40031.000000,23713.000000,18098.000000,15145.000000
39968.000000,23647.000000,18034.000000,15123.000000
39905.000000,23570.000000,17974.000000,15124.000000
39846.000000,23490.000000,17917.000000,15156.000000
39791.000000,23411.000000,17859.000000,15193.000000
39733.000000,23332.000000,17791.000000,15201.000000
39668.000000,23256.000000,17714.000000,15188.000000
39597.000000,23185.000000,17636.000000,15186.000000
39522.000000,23121.000000,17562.000000,15192.000000
39445.000000,23059.000000,17489.000000,15192.000000
39367.000000,23007.000000,17412.000000,15191.000000
39291.000000,22982.000000,17336.000000,15190.000000
39213.000000,22990.000000,17258.000000,15167.000000
39131.000000,23029.000000,17177.000000,15113.000000
39050.000000,23102.000000,17102.000000,15039.000000
38979.000000,23218.000000,17034.000000,14949.000000
38917.000000,23380.000000,16965.000000,14839.000000
38858.000000,23583.000000,16891.000000,14703.000000
38801.000000,23826.000000,16819.000000,14550.000000
38742.000000,24110.000000,16752.000000,14394.000000
38677.000000,24431.000000,16688.000000,14251.000000
38603.000000,24782.000000,16624.000000,14134.000000
38528.000000,25151.000000,16561.000000,14047.000000
38450.000000,25527.000000,16502.000000,13993.000000
38368.000000,25900.000000,16448.000000,13954.000000
38283.000000,26264.000000,16392.000000,13911.000000
38201.000000,26612.000000,16330.000000,13884.000000
38124.000000,26938.000000,16263.000000,13885.000000
38046.000000,27236.000000,16193.000000,13895.000000
37965.000000,27507.000000,16116.000000,13901.000000
37883.000000,27749.000000,16031.000000,13897.000000
37806.000000,27961.000000,15948.000000,13875.000000
37733.000000,28144.000000,15867.000000,13848.000000
37657.000000,28306.000000,15789.000000,13840.000000
37585.000000,28452.000000,15718.000000,13863.000000
37523.000000,28583.000000,15655.000000,13896.000000
37473.000000,28690.000000,15598.000000,13901.000000
37430.000000,28771.000000,15547.000000,13874.000000
37395.000000,28828.000000,15504.000000,13847.000000
37376.000000,28866.000000,15479.000000,13834.000000
37383.000000,28892.000000,15483.000000,13808.000000
37420.000000,28906.000000,15520.000000,13762.000000
37492.000000,28911.000000,15592.000000,13719.000000
37598.000000,28906.000000,15699.000000,13702.000000
37738.000000,28888.000000,15838.000000,13708.000000
37910.000000,28863.000000,16009.000000,13713.000000
38115.000000,28836.000000,16215.000000,13701.000000
38348.000000,28805.000000,16456.000000,13686.000000
38605.000000,28772.000000,16729.000000,13664.000000
38881.000000,28742.000000,17023.000000,13610.000000
39176.000000,28722.000000,17337.000000,13520.000000
39488.000000,28713.000000,17670.000000,13404.000000
39806.000000,28709.000000,18012.000000,13275.000000
40122.000000,28712.000000,18349.000000,13150.000000
40432.000000,28727.000000,18679.000000,13021.000000
40734.000000,28749.000000,19003.000000,12883.000000
41024.000000,28769.000000,19313.000000,12761.000000
41292.000000,28782.000000,19606.000000,12654.000000
41536.000000,28784.000000,19874.000000,12551.000000
41753.000000,28769.000000,20115.000000,12458.000000
41941.000000,28732.000000,20326.000000,12364.000000
42098.000000,28675.000000,20512.000000,12251.000000
42228.000000,28604.000000,20674.000000,12132.000000
42329.000000,28520.000000,20809.000000,12015.000000
42404.000000,28422.000000,20917.000000,11880.000000
42461.000000,28316.000000,21002.000000,11741.000000
42500.000000,28213.000000,21067.000000,11618.000000
42519.000000,28116.000000,21113.000000,11505.000000
42524.000000,28022.000000,21147.000000,11410.000000
42524.000000,27940.000000,21175.000000,11329.000000
42518.000000,27876.000000,21196.000000,11237.000000
42503.000000,27826.000000,21210.000000,11136.000000
42479.000000,27786.000000,21221.000000,11046.000000
42457.000000,27756.000000,21229.000000,10973.000000
42444.000000,27740.000000,21232.000000,10910.000000
42441.000000,27735.000000,21229.000000,10826.000000
42440.000000,27736.000000,21226.000000,10723.000000
42442.000000,27743.000000,21226.000000,10637.000000
42449.000000,27755.000000,21231.000000,10576.000000
42460.000000,27764.000000,21241.000000,10515.000000
42475.000000,27763.000000,21255.000000,10440.000000
42497.000000,27755.000000,21278.000000,10355.000000
42531.000000,27744.000000,21312.000000,10252.000000
42577.000000,27730.000000,21352.000000,10125.000000
42625.000000,27720.000000,21392.000000,9997.000000
42672.000000,27714.000000,21431.000000,9892.000000
42713.000000,27711.000000,21464.000000,9806.000000
42740.000000,27710.000000,21486.000000,9734.000000
42749.000000,27708.000000,21494.000000,9660.000000
42744.000000,27711.000000,21494.000000,9575.000000
42730.000000,27716.000000,21486.000000,9487.000000
42705.000000,27714.000000,21460.000000,9410.000000
42670.000000,27705.000000,21423.000000,9357.000000
42626.000000,27693.000000,21383.000000,9323.000000
42575.000000,27679.000000,21341.000000,9283.000000
42520.000000,27660.000000,21289.000000,9225.000000
42462.000000,27636.000000,21230.000000,9162.000000
42407.000000,27605.000000,21170.000000,9104.000000
42352.000000,27560.000000,21112.000000,9042.000000
42297.000000,27500.000000,21063.000000,8961.000000
42245.000000,27436.000000,21021.000000,8872.000000
42200.000000,27371.000000,20987.000000,8783.000000
42166.000000,27303.000000,20957.000000,8681.000000
42137.000000,27235.000000,20935.000000,8566.000000
42115.000000,27170.000000,20926.000000,8466.000000
42103.000000,27109.000000,20934.000000,8403.000000
42094.000000,27050.000000,20951.000000,8364.000000
42087.000000,26996.000000,20971.000000,8310.000000
42081.000000,26949.000000,20991.000000,8241.000000
42078.000000,26910.000000,21011.000000,8177.000000
42073.000000,26876.000000,21030.000000,8120.000000
42066.000000,26843.000000,21047.000000,8071.000000
42065.000000,26806.000000,21069.000000,8023.000000
42067.000000,26764.000000,21097.000000,7964.000000
42061.000000,26715.000000,21123.000000,7899.000000
42050.000000,26659.000000,21143.000000,7829.000000
42039.000000,26598.000000,21162.000000,7745.000000
42027.000000,26530.000000,21180.000000,7657.000000
42012.000000,26453.000000,21195.000000,7575.000000
41997.000000,26372.000000,21207.000000,7493.000000
41985.000000,26295.000000,21214.000000,7409.000000
41973.000000,26226.000000,21212.000000,7336.000000
41956.000000,26162.000000,21200.000000,7271.000000
41931.000000,26099.000000,21180.000000,7204.000000
41901.000000,26036.000000,21151.000000,7130.000000
41869.000000,25978.000000,21112.000000,7052.000000
41834.000000,25922.000000,21064.000000,6978.000000
41795.000000,25870.000000,21007.000000,6906.000000
41748.000000,25825.000000,20942.000000,6838.000000
41695.000000,25786.000000,20870.000000,6769.000000
41633.000000,25746.000000,20794.000000,6676.000000
41563.000000,25706.000000,20723.000000,6550.000000
41492.000000,25670.000000,20656.000000,6403.000000
41417.000000,25642.000000,20583.000000,6251.000000
41336.000000,25616.000000,20502.000000,6111.000000
41252.000000,25582.000000,20420.000000,5998.000000
41173.000000,25550.000000,20343.000000,5906.000000
41096.000000,25522.000000,20267.000000,5816.000000
41021.000000,25494.000000,20188.000000,5716.000000
40944.000000,25465.000000,20106.000000,5606.000000
40872.000000,25438.000000,20028.000000,5501.000000
40803.000000,25415.000000,19953.000000,5418.000000
40729.000000,25399.000000,19877.000000,5359.000000
40650.000000,25390.000000,19802.000000,5317.000000
40573.000000,25389.000000,19735.000000,5290.000000
40502.000000,25390.000000,19674.000000,5267.000000
40435.000000,25379.000000,19614.000000,5256.000000
40366.000000,25358.000000,19553.000000,5269.000000
40296.000000,25333.000000,19489.000000,5315.000000
40223.000000,25293.000000,19421.000000,5413.000000
40147.000000,25233.000000,19350.000000,5579.000000
40068.000000,25160.000000,19277.000000,5812.000000
39988.000000,25078.000000,19203.000000,6113.000000
39914.000000,24987.000000,19133.000000,6488.000000
39845.000000,24892.000000,19067.000000,6934.000000
39782.000000,24799.000000,19003.000000,7436.000000
39726.000000,24714.000000,18943.000000,7969.000000
39673.000000,24640.000000,18881.000000,8509.000000
39624.000000,24577.000000,18811.000000,9067.000000
39575.000000,24528.000000,18738.000000,9658.000000
39526.000000,24494.000000,18669.000000,10262.000000
39476.000000,24466.000000,18601.000000,10838.000000
39427.000000,24439.000000,18532.000000,11378.000000
39378.000000,24413.000000,18467.000000,11884.000000
39324.000000,24389.000000,18405.000000,12347.000000
39264.000000,24365.000000,18345.000000,12774.000000
39200.000000,24341.000000,18285.000000,13167.000000
39136.000000,24321.000000,18227.000000,13520.000000
39074.000000,24300.000000,18173.000000,13836.000000
39012.000000,24266.000000,18123.000000,14100.000000
38950.000000,24216.000000,18077.000000,14301.000000
38894.000000,24160.000000,18038.000000,14445.000000
38843.000000,24096.000000,18003.000000,14543.000000
38791.000000,24024.000000,17960.000000,14597.000000
38737.000000,23952.000000,17914.000000,14623.000000
38685.000000,23898.000000,17868.000000,14641.000000
38635.000000,23871.000000,17818.000000,14641.000000
38588.000000,23879.000000,17763.000000,14622.000000
38545.000000,23933.000000,17704.000000,14587.000000
38507.000000,24034.000000,17646.000000,14550.000000
38473.000000,24178.000000,17593.000000,14540.000000
38439.000000,24364.000000,17543.000000,14562.000000
38406.000000,24593.000000,17494.000000,14590.000000
38379.000000,24866.000000,17446.000000,14593.000000
38348.000000,25177.000000,17397.000000,14569.000000
38306.000000,25515.000000,17339.000000,14535.000000
38254.000000,25869.000000,17274.000000,14509.000000
38193.000000,26226.000000,17206.000000,14500.000000
38125.000000,26580.000000,17138.000000,14494.000000
38052.000000,26927.000000,17067.000000,14493.000000
37979.000000,27260.000000,16998.000000,14509.000000
37909.000000,27577.000000,16933.000000,14536.000000
37842.000000,27876.000000,16871.000000,14556.000000
37774.000000,28154.000000,16813.000000,14568.000000
37707.000000,28412.000000,16762.000000,14582.000000
37642.000000,28654.000000,16716.000000,14586.000000
37571.000000,28872.000000,16669.000000,14561.000000
37498.000000,29064.000000,16614.000000,14508.000000
37429.000000,29233.000000,16553.000000,14428.000000
37364.000000,29385.000000,16486.000000,14332.000000
37302.000000,29517.000000,16414.000000,14231.000000
37241.000000,29627.000000,16339.000000,14111.000000
37179.000000,29717.000000,16261.000000,13986.000000
37118.000000,29796.000000,16181.000000,13867.000000
37058.000000,29864.000000,16103.000000,13730.000000
37000.000000,29917.000000,16025.000000,13585.000000
36946.000000,29960.000000,15951.000000,13462.000000
36899.000000,29993.000000,15885.000000,13363.000000
36854.000000,30011.000000,15826.000000,13272.000000
36810.000000,30014.000000,15775.000000,13187.000000
36776.000000,30008.000000,15743.000000,13134.000000
36763.000000,29995.000000,15733.000000,13107.000000
36776.000000,29972.000000,15747.000000,13078.000000
36818.000000,29940.000000,15789.000000,13040.000000
36897.000000,29909.000000,15865.000000,12996.000000
37014.000000,29881.000000,15975.000000,12957.000000
37165.000000,29854.000000,16117.000000,12936.000000
37353.000000,29827.000000,16298.000000,12926.000000
37575.000000,29802.000000,16519.000000,12913.000000
37821.000000,29776.000000,16771.000000,12900.000000
38087.000000,29750.000000,17046.000000,12897.000000
38377.000000,29728.000000,17344.000000,12913.000000
38690.000000,29713.000000,17664.000000,12940.000000
39017.000000,29696.000000,18002.000000,12970.000000
39346.000000,29664.000000,18347.000000,12996.000000
39671.000000,29620.000000,18698.000000,13011.000000
39987.000000,29565.000000,19047.000000,13004.000000
40286.000000,29505.000000,19380.000000,12967.000000
40564.000000,29439.000000,19690.000000,12896.000000
40820.000000,29370.000000,19979.000000,12810.000000
41050.000000,29305.000000,20248.000000,12743.000000
41252.000000,29241.000000,20488.000000,12689.000000
41429.000000,29173.000000,20697.000000,12637.000000
41582.000000,29107.000000,20882.000000,12569.000000
41709.000000,29049.000000,21041.000000,12483.000000
41807.000000,28994.000000,21166.000000,12384.000000
41875.000000,28935.000000,21260.000000,12272.000000
41920.000000,28879.000000,21329.000000,12163.000000
41952.000000,28831.000000,21381.000000,12073.000000
41976.000000,28787.000000,21415.000000,11991.000000
41993.000000,28746.000000,21438.000000,11889.000000
42008.000000,28709.000000,21457.000000,11771.000000
42017.000000,28683.000000,21473.000000,11649.000000
42018.000000,28669.000000,21479.000000,11509.000000
42017.000000,28667.000000,21478.000000,11359.000000
42023.000000,28680.000000,21478.000000,11229.000000
42031.000000,28710.000000,21479.000000,11112.000000
42039.000000,28752.000000,21481.000000,10979.000000
42050.000000,28800.000000,21488.000000,10835.000000
42060.000000,28851.000000,21503.000000,10707.000000
42066.000000,28903.000000,21519.000000,10594.000000
42070.000000,28949.000000,21528.000000,10463.000000
42075.000000,28980.000000,21532.000000,10309.000000
42084.000000,29000.000000,21535.000000,10156.000000
42093.000000,29013.000000,21534.000000,10013.000000
42099.000000,29017.000000,21528.000000,9884.000000
42096.000000,29010.000000,21515.000000,9774.000000
42090.000000,28994.000000,21504.000000,9671.000000
42081.000000,28965.000000,21497.000000,9561.000000
42062.000000,28922.000000,21489.000000,9452.000000
42035.000000,28864.000000,21475.000000,9372.000000
42001.000000,28798.000000,21457.000000,9321.000000
41963.000000,28727.000000,21429.000000,9265.000000
41920.000000,28645.000000,21383.000000,9180.000000
41877.000000,28549.000000,21330.000000,9088.000000
41836.000000,28445.000000,21282.000000,9010.000000
41795.000000,28340.000000,21236.000000,8939.000000
41748.000000,28238.000000,21187.000000,8873.000000
41700.000000,28139.000000,21138.000000,8808.000000
41655.000000,28041.000000,21097.000000,8737.000000
41617.000000,27945.000000,21062.000000,8650.000000
41584.000000,27857.000000,21032.000000,8557.000000
41550.000000,27777.000000,21008.000000,8479.000000
41519.000000,27704.000000,20993.000000,8410.000000
41493.000000,27635.000000,20982.000000,8339.000000
41471.000000,27568.000000,20973.000000,8262.000000
41461.000000,27506.000000,20967.000000,8180.000000
41470.000000,27451.000000,20969.000000,8101.000000
41491.000000,27401.000000,20978.000000,8038.000000
41513.000000,27351.000000,20996.000000,7995.000000
41537.000000,27300.000000,21024.000000,7958.000000
41563.000000,27253.000000,21058.000000,7921.000000
41589.000000,27208.000000,21086.000000,7878.000000
41618.000000,27160.000000,21106.000000,7819.000000
41645.000000,27108.000000,21132.000000,7737.000000
41665.000000,27051.000000,21163.000000,7632.000000
41678.000000,26989.000000,21192.000000,7510.000000
41688.000000,26922.000000,21214.000000,7387.000000
41692.000000,26860.000000,21234.000000,7273.000000
41690.000000,26803.000000,21248.000000,7167.000000
41676.000000,26745.000000,21245.000000,7065.000000
41651.000000,26685.000000,21229.000000,6984.000000
41619.000000,26627.000000,21211.000000,6919.000000
41582.000000,26576.000000,21191.000000,6848.000000
41536.000000,26531.000000,21161.000000,6776.000000
41481.000000,26490.000000,21118.000000,6711.000000
41418.000000,26453.000000,21069.000000,6637.000000
41350.000000,26421.000000,21011.000000,6549.000000
41270.000000,26391.000000,20935.000000,6450.000000
41185.000000,26365.000000,20848.000000,6360.000000
41108.000000,26345.000000,20764.000000,6295.000000
41036.000000,26325.000000,20687.000000,6247.000000
40960.000000,26302.000000,20610.000000,6209.000000
40884.000000,26276.000000,20534.000000,6174.000000
40814.000000,26248.000000,20462.000000,6132.000000
40753.000000,26216.000000,20389.000000,6085.000000
40697.000000,26177.000000,20312.000000,6035.000000
40639.000000,26130.000000,20232.000000,5977.000000
40578.000000,26082.000000,20155.000000,5908.000000
40514.000000,26032.000000,20077.000000,5824.000000
40450.000000,25972.000000,19993.000000,5729.000000
40388.000000,25908.000000,19911.000000,5642.000000
40322.000000,25845.000000,19834.000000,5563.000000
40253.000000,25778.000000,19759.000000,5460.000000
40180.000000,25707.000000,19678.000000,5323.000000
40107.000000,25635.000000,19594.000000,5170.000000
40038.000000,25565.000000,19515.000000,5023.000000
39971.000000,25493.000000,19447.000000,4901.000000
39901.000000,25421.000000,19381.000000,4812.000000
39831.000000,25354.000000,19316.000000,4742.000000
39764.000000,25296.000000,19251.000000,4672.000000
39695.000000,25236.000000,19179.000000,4590.000000
39623.000000,25168.000000,19098.000000,4488.000000
39554.000000,25099.000000,19017.000000,4377.000000
39491.000000,25032.000000,18940.000000,4266.000000
39433.000000,24960.000000,18865.000000,4151.000000
39381.000000,24877.000000,18797.000000,4039.000000
39334.000000,24791.000000,18739.000000,3951.000000
39284.000000,24709.000000,18685.000000,3895.000000
39228.000000,24626.000000,18629.000000,3863.000000
39167.000000,24539.000000,18565.000000,3839.000000
39110.000000,24448.000000,18501.000000,3817.000000
39061.000000,24356.000000,18442.000000,3817.000000
39014.000000,24260.000000,18380.000000,3863.000000
38969.000000,24157.000000,18315.000000,3959.000000
38922.000000,24053.000000,18257.000000,4107.000000
38867.000000,23950.000000,18202.000000,4313.000000
38804.000000,23848.000000,18144.000000,4559.000000
38738.000000,23750.000000,18086.000000,4848.000000
38670.000000,23659.000000,18030.000000,5208.000000
38600.000000,23571.000000,17969.000000,5639.000000
38529.000000,23475.000000,17901.000000,6121.000000
38461.000000,23375.000000,17833.000000,6648.000000
38398.000000,23280.000000,17769.000000,7207.000000
38340.000000,23191.000000,17710.000000,7769.000000
38283.000000,23100.000000,17647.000000,8312.000000
38228.000000,23008.000000,17580.000000,8832.000000
38182.000000,22930.000000,17519.000000,9342.000000
38144.000000,22879.000000,17464.000000,9841.000000
38108.000000,22860.000000,17409.000000,10300.000000
38071.000000,22878.000000,17355.000000,10707.000000
38035.000000,22936.000000,17304.000000,11076.000000
37993.000000,23032.000000,17252.000000,11418.000000
37946.000000,23167.000000,17193.000000,11731.000000
37898.000000,23340.000000,17135.000000,12011.000000
37851.000000,23552.000000,17083.000000,12245.000000
37802.000000,23800.000000,17033.000000,12422.000000
37743.000000,24078.000000,16977.000000,12547.000000
37675.000000,24381.000000,16914.000000,12625.000000
37606.000000,24703.000000,16847.000000,12674.000000
37536.000000,25042.000000,16777.000000,12721.000000
37464.000000,25390.000000,16707.000000,12754.000000
37393.000000,25741.000000,16638.000000,12767.000000
37324.000000,26088.000000,16572.000000,12772.000000
37258.000000,26427.000000,16505.000000,12757.000000
37196.000000,26754.000000,16437.000000,12726.000000
37137.000000,27068.000000,16375.000000,12711.000000
37079.000000,27370.000000,16316.000000,12707.000000
37020.000000,27650.000000,16256.000000,12692.000000
36965.000000,27904.000000,16196.000000,12657.000000
36914.000000,28135.000000,16139.000000,12617.000000
36862.000000,28345.000000,16078.000000,12595.000000
36807.000000,28529.000000,16011.000000,12581.000000
36752.000000,28686.000000,15942.000000,12547.000000
36699.000000,28821.000000,15873.000000,12496.000000
36644.000000,28935.000000,15803.000000,12444.000000
36586.000000,29024.000000,15728.000000,12393.000000
36527.000000,29092.000000,15645.000000,12346.000000
36466.000000,29141.000000,15558.000000,12309.000000
36404.000000,29168.000000,15474.000000,12266.000000
36336.000000,29170.000000,15391.000000,12199.000000
36265.000000,29157.000000,15310.000000,12123.000000
36200.000000,29141.000000,15238.000000,12060.000000
36143.000000,29121.000000,15170.000000,11991.000000
36098.000000,29095.000000,15109.000000,11894.000000
36079.000000,29069.000000,15069.000000,11787.000000
36092.000000,29053.000000,15057.000000,11692.000000
36133.000000,29048.000000,15079.000000,11599.000000
36207.000000,29052.000000,15138.000000,11487.000000
36324.000000,29069.000000,15245.000000,11348.000000
36490.000000,29103.000000,15406.000000,11188.000000
36696.000000,29154.000000,15615.000000,11016.000000
36931.000000,29216.000000,15866.000000,10840.000000
37199.000000,29279.000000,16155.000000,10677.000000
37498.000000,29338.000000,16485.000000,10532.000000
37816.000000,29382.000000,16847.000000,10401.000000
38148.000000,29409.000000,17225.000000,10285.000000
38495.000000,29419.000000,17619.000000,10194.000000
38853.000000,29412.000000,18029.000000,10141.000000
39211.000000,29383.000000,18449.000000,10125.000000
39563.000000,29326.000000,18868.000000,10133.000000
39906.000000,29250.000000,19278.000000,10156.000000
40234.000000,29163.000000,19669.000000,10199.000000
40540.000000,29067.000000,20033.000000,10251.000000
40818.000000,28963.000000,20368.000000,10297.000000
41071.000000,28853.000000,20678.000000,10350.000000
41299.000000,28743.000000,20960.000000,10408.000000
41497.000000,28631.000000,21209.000000,10448.000000
41668.000000,28519.000000,21426.000000,10485.000000
41818.000000,28419.000000,21614.000000,10522.000000
41947.000000,28337.000000,21775.000000,10537.000000
42049.000000,28267.000000,21907.000000,10526.000000
42129.000000,28203.000000,22015.000000,10490.000000
42199.000000,28149.000000,22105.000000,10437.000000
42258.000000,28110.000000,22176.000000,10371.000000
42304.000000,28082.000000,22230.000000,10300.000000
42334.000000,28061.000000,22275.000000,10246.000000
42353.000000,28044.000000,22313.000000,10210.000000
42363.000000,28032.000000,22339.000000,10170.000000
42361.000000,28024.000000,22345.000000,10103.000000
42350.000000,28024.000000,22338.000000,10017.000000
42338.000000,28038.000000,22330.000000,9935.000000
42326.000000,28060.000000,22325.000000,9848.000000
42313.000000,28080.000000,22321.000000,9762.000000
42308.000000,28097.000000,22319.000000,9688.000000
42323.000000,28112.000000,22326.000000,9615.000000
42350.000000,28114.000000,22343.000000,9522.000000
42378.000000,28099.000000,22367.000000,9407.000000
42410.000000,28070.000000,22397.000000,9296.000000
42451.000000,28030.000000,22435.000000,9203.000000
42494.000000,27983.000000,22476.000000,9123.000000
42529.000000,27926.000000,22512.000000,9051.000000
42559.000000,27865.000000,22540.000000,8986.000000
42581.000000,27806.000000,22564.000000,8931.000000
42594.000000,27753.000000,22576.000000,8883.000000
42596.000000,27697.000000,22571.000000,8828.000000
42585.000000,27636.000000,22553.000000,8753.000000
42563.000000,27572.000000,22525.000000,8660.000000
42528.000000,27505.000000,22482.000000,8561.000000
42479.000000,27429.000000,22422.000000,8460.000000
42420.000000,27340.000000,22350.000000,8373.000000
42359.000000,27244.000000,22275.000000,8313.000000
42299.000000,27150.000000,22200.000000,8278.000000
42232.000000,27055.000000,22121.000000,8260.000000
42161.000000,26960.000000,22047.000000,8238.000000
42095.000000,26871.000000,21987.000000,8202.000000
42034.000000,26784.000000,21940.000000,8148.000000
41978.000000,26688.000000,21899.000000,8069.000000
41931.000000,26588.000000,21867.000000,7978.000000
41897.000000,26493.000000,21843.000000,7880.000000
41876.000000,26398.000000,21829.000000,7764.000000
41864.000000,26299.000000,21826.000000,7638.000000
41858.000000,26202.000000,21839.000000,7525.000000
41860.000000,26113.000000,21863.000000,7449.000000
41867.000000,26029.000000,21890.000000,7402.000000
41875.000000,25947.000000,21918.000000,7365.000000
41891.000000,25870.000000,21947.000000,7341.000000
41914.000000,25800.000000,21978.000000,7334.000000
41936.000000,25734.000000,22006.000000,7332.000000
41955.000000,25669.000000,22029.000000,7329.000000
41971.000000,25610.000000,22049.000000,7323.000000
41978.000000,25557.000000,22065.000000,7301.000000
41971.000000,25503.000000,22071.000000,7250.000000
41951.000000,25447.000000,22066.000000,7189.000000
41926.000000,25393.000000,22055.000000,7132.000000
41899.000000,25346.000000,22043.000000,7071.000000
41864.000000,25296.000000,22026.000000,6997.000000
41822.000000,25240.000000,22003.000000,6914.000000
41774.000000,25184.000000,21979.000000,6825.000000
41718.000000,25129.000000,21950.000000,6725.000000
41650.000000,25070.000000,21909.000000,6621.000000
41577.000000,25009.000000,21859.000000,6527.000000
41508.000000,24954.000000,21803.000000,6441.000000
41441.000000,24904.000000,21742.000000,6366.000000
41369.000000,24860.000000,21675.000000,6318.000000
41291.000000,24824.000000,21605.000000,6297.000000
41208.000000,24794.000000,21537.000000,6288.000000
41118.000000,24766.000000,21463.000000,6273.000000
41018.000000,24738.000000,21378.000000,6244.000000
40913.000000,24714.000000,21290.000000,6207.000000
40811.000000,24688.000000,21203.000000,6163.000000
40714.000000,24654.000000,21111.000000,6107.000000
40615.000000,24613.000000,21016.000000,6026.000000
40518.000000,24574.000000,20923.000000,5913.000000
40424.000000,24532.000000,20837.000000,5774.000000
40333.000000,24476.000000,20754.000000,5618.000000
40241.000000,24402.000000,20674.000000,5465.000000
40149.000000,24319.000000,20595.000000,5334.000000
40058.000000,24233.000000,20516.000000,5220.000000
39967.000000,24150.000000,20434.000000,5098.000000
39871.000000,24070.000000,20344.000000,4976.000000
39779.000000,23993.000000,20247.000000,4876.000000
39693.000000,23918.000000,20149.000000,4794.000000
39609.000000,23846.000000,20051.000000,4725.000000
39524.000000,23775.000000,19952.000000,4662.000000
39439.000000,23698.000000,19858.000000,4603.000000
39360.000000,23617.000000,19772.000000,4558.000000
39290.000000,23534.000000,19691.000000,4524.000000
39222.000000,23448.000000,19613.000000,4502.000000
39155.000000,23361.000000,19539.000000,4496.000000
39091.000000,23273.000000,19468.000000,4500.000000
39030.000000,23181.000000,19399.000000,4514.000000
38971.000000,23089.000000,19336.000000,4560.000000
38914.000000,23009.000000,19282.000000,4647.000000
38856.000000,22943.000000,19230.000000,4762.000000
38793.000000,22886.000000,19173.000000,4899.000000
38726.000000,22830.000000,19107.000000,5081.000000
38661.000000,22781.000000,19038.000000,5336.000000
38601.000000,22734.000000,18969.000000,5664.000000
38542.000000,22683.000000,18897.000000,6035.000000
38486.000000,22626.000000,18829.000000,6444.000000
38438.000000,22568.000000,18771.000000,6898.000000
38399.000000,22508.000000,18718.000000,7385.000000
38363.000000,22441.000000,18665.000000,7900.000000
38329.000000,22368.000000,18617.000000,8429.000000
38298.000000,22295.000000,18575.000000,8938.000000
38263.000000,22228.000000,18532.000000,9426.000000
38222.000000,22170.000000,18482.000000,9914.000000
38179.000000,22128.000000,18426.000000,10392.000000
38139.000000,22109.000000,18364.000000,10830.000000
38096.000000,22114.000000,18295.000000,11225.000000
38046.000000,22146.000000,18221.000000,11588.000000
37995.000000,22213.000000,18151.000000,11924.000000
37945.000000,22326.000000,18091.000000,12206.000000
37894.000000,22481.000000,18037.000000,12414.000000
37840.000000,22669.000000,17984.000000,12572.000000
37783.000000,22893.000000,17931.000000,12709.000000
37724.000000,23160.000000,17881.000000,12805.000000
37663.000000,23462.000000,17832.000000,12840.000000
37598.000000,23790.000000,17780.000000,12839.000000
37533.000000,24139.000000,17717.000000,12832.000000
37472.000000,24502.000000,17649.000000,12812.000000
37418.000000,24868.000000,17580.000000,12780.000000
37372.000000,25227.000000,17514.000000,12762.000000
37337.000000,25581.000000,17454.000000,12766.000000
37313.000000,25929.000000,17400.000000,12776.000000
37293.000000,26261.000000,17349.000000,12773.000000
37270.000000,26570.000000,17300.000000,12745.000000
37247.000000,26856.000000,17248.000000,12716.000000
37224.000000,27122.000000,17193.000000,12685.000000
37198.000000,27361.000000,17137.000000,12639.000000
37169.000000,27566.000000,17084.000000,12593.000000
37140.000000,27744.000000,17040.000000,12560.000000
37106.000000,27899.000000,16998.000000,12531.000000
37062.000000,28026.000000,16949.000000,12504.000000
37007.000000,28122.000000,16891.000000,12471.000000
36944.000000,28198.000000,16831.000000,12419.000000
36873.000000,28253.000000,16769.000000,12348.000000
36794.000000,28285.000000,16702.000000,12265.000000
36710.000000,28296.000000,16631.000000,12184.000000
36623.000000,28291.000000,16562.000000,12098.000000
36540.000000,28274.000000,16499.000000,11992.000000
36463.000000,28246.000000,16440.000000,11859.000000
36393.000000,28212.000000,16388.000000,11723.000000
36330.000000,28179.000000,16343.000000,11618.000000
36271.000000,28146.000000,16301.000000,11538.000000
36216.000000,28116.000000,16263.000000,11458.000000
36169.000000,28093.000000,16228.000000,11393.000000
36130.000000,28082.000000,16197.000000,11348.000000
36092.000000,28081.000000,16163.000000,11305.000000
36059.000000,28080.000000,16129.000000,11244.000000
36034.000000,28081.000000,16098.000000,11183.000000
36020.000000,28091.000000,16074.000000,11141.000000
36017.000000,28104.000000,16055.000000,11108.000000
36025.000000,28116.000000,16036.000000,11081.000000
36049.000000,28125.000000,16026.000000,11049.000000
36092.000000,28126.000000,16034.000000,11013.000000
36150.000000,28114.000000,16058.000000,10988.000000
36230.000000,28086.000000,16103.000000,10983.000000
36340.000000,28047.000000,16180.000000,10991.000000
36485.000000,27996.000000,16295.000000,11009.000000
36670.000000,27931.000000,16451.000000,11056.000000
36894.000000,27855.000000,16647.000000,11128.000000
37155.000000,27773.000000,16884.000000,11198.000000
37454.000000,27687.000000,17165.000000,11246.000000
37784.000000,27598.000000,17480.000000,11273.000000
38140.000000,27504.000000,17823.000000,11292.000000
38519.000000,27408.000000,18198.000000,11311.000000
38922.000000,27316.000000,18612.000000,11325.000000
39339.000000,27231.000000,19061.000000,11326.000000
39760.000000,27158.000000,19532.000000,11303.000000
40176.000000,27101.000000,20017.000000,11268.000000
40587.000000,27056.000000,20505.000000,11238.000000
40987.000000,27020.000000,20983.000000,11196.000000
41369.000000,26993.000000,21443.000000,11134.000000
41727.000000,26975.000000,21885.000000,11062.000000
42051.000000,26968.000000,22300.000000,10984.000000
42334.000000,26966.000000,22681.000000,10896.000000
42574.000000,26965.000000,23028.000000,10797.000000
42773.000000,26966.000000,23339.000000,10694.000000
42932.000000,26969.000000,23604.000000,10597.000000
43056.000000,26968.000000,23819.000000,10517.000000
43152.000000,26960.000000,23988.000000,10443.000000
43227.000000,26947.000000,24123.000000,10357.000000
43283.000000,26934.000000,24225.000000,10251.000000
43318.000000,26917.000000,24295.000000,10121.000000
43336.000000,26896.000000,24342.000000,9979.000000
43350.000000,26874.000000,24375.000000,9844.000000
43361.000000,26852.000000,24395.000000,9720.000000
43368.000000,26836.000000,24400.000000,9597.000000
43377.000000,26827.000000,24398.000000,9477.000000
43393.000000,26823.000000,24396.000000,9374.000000
43414.000000,26817.000000,24390.000000,9281.000000
43429.000000,26802.000000,24376.000000,9181.000000
43442.000000,26784.000000,24357.000000,9067.000000
43460.000000,26765.000000,24345.000000,8951.000000
43479.000000,26739.000000,24342.000000,8837.000000
43498.000000,26702.000000,24349.000000,8717.000000
43522.000000,26653.000000,24372.000000,8598.000000
43551.000000,26596.000000,24405.000000,8482.000000
43576.000000,26527.000000,24438.000000,8372.000000
43596.000000,26446.000000,24473.000000,8270.000000
43618.000000,26352.000000,24507.000000,8163.000000
43642.000000,26251.000000,24538.000000,8040.000000
43658.000000,26140.000000,24567.000000,7917.000000
43661.000000,26024.000000,24595.000000,7816.000000
43655.000000,25909.000000,24617.000000,7746.000000
43637.000000,25804.000000,24626.000000,7697.000000
43604.000000,25708.000000,24618.000000,7650.000000
43559.000000,25623.000000,24594.000000,7600.000000
43501.000000,25553.000000,24556.000000,7553.000000
43425.000000,25501.000000,24502.000000,7509.000000
43332.000000,25460.000000,24428.000000,7463.000000
43229.000000,25420.000000,24338.000000,7415.000000
43130.000000,25380.000000,24245.000000,7366.000000
43042.000000,25340.000000,24156.000000,7299.000000
42958.000000,25292.000000,24062.000000,7197.000000
42874.000000,25227.000000,23966.000000,7080.000000
42800.000000,25146.000000,23880.000000,6977.000000
42738.000000,25060.000000,23802.000000,6893.000000
42682.000000,24966.000000,23725.000000,6827.000000
42631.000000,24867.000000,23652.000000,6770.000000
42592.000000,24772.000000,23592.000000,6715.000000
42569.000000,24681.000000,23547.000000,6657.000000
42557.000000,24589.000000,23512.000000,6594.000000
42551.000000,24503.000000,23484.000000,6527.000000
42545.000000,24433.000000,23461.000000,6456.000000
42536.000000,24378.000000,23438.000000,6382.000000
42526.000000,24329.000000,23417.000000,6312.000000
42516.000000,24288.000000,23401.000000,6257.000000
42506.000000,24257.000000,23390.000000,6220.000000
42494.000000,24234.000000,23380.000000,6190.000000
42481.000000,24215.000000,23370.000000,6163.000000
42474.000000,24199.000000,23364.000000,6135.000000
42476.000000,24179.000000,23361.000000,6095.000000
42478.000000,24151.000000,23356.000000,6037.000000
42474.000000,24114.000000,23348.000000,5963.000000
42465.000000,24075.000000,23342.000000,5875.000000
42453.000000,24042.000000,23341.000000,5777.000000
42435.000000,24003.000000,23337.000000,5676.000000
42412.000000,23950.000000,23325.000000,5574.000000
42384.000000,23888.000000,23306.000000,5470.000000
42349.000000,23824.000000,23279.000000,5371.000000
42305.000000,23754.000000,23237.000000,5263.000000
42257.000000,23682.000000,23186.000000,5147.000000
42206.000000,23620.000000,23130.000000,5047.000000
42151.000000,23567.000000,23069.000000,4963.000000
42087.000000,23514.000000,23000.000000,4872.000000
42014.000000,23463.000000,22923.000000,4779.000000
41939.000000,23419.000000,22841.000000,4707.000000
41861.000000,23380.000000,22750.000000,4640.000000
41778.000000,23340.000000,22644.000000,4568.000000
41690.000000,23292.000000,22534.000000,4504.000000
41605.000000,23243.000000,22428.000000,4446.000000
41520.000000,23199.000000,22320.000000,4369.000000
41433.000000,23158.000000,22210.000000,4273.000000
41351.000000,23116.000000,22108.000000,4177.000000
41278.000000,23072.000000,22020.000000,4089.000000
41206.000000,23025.000000,21938.000000,4022.000000
41127.000000,22973.000000,21854.000000,3992.000000
41048.000000,22915.000000,21767.000000,3996.000000
40973.000000,22858.000000,21684.000000,4039.000000
40897.000000,22804.000000,21606.000000,4138.000000
40815.000000,22750.000000,21527.000000,4301.000000
40729.000000,22698.000000,21443.000000,4521.000000
40641.000000,22652.000000,21356.000000,4794.000000
40547.000000,22611.000000,21266.000000,5138.000000
40449.000000,22569.000000,21171.000000,5554.000000
40346.000000,22527.000000,21074.000000,6028.000000
40244.000000,22497.000000,20984.000000,6541.000000
40146.000000,22481.000000,20898.000000,7060.000000
40049.000000,22479.000000,20807.000000,7581.000000
39954.000000,22505.000000,20715.000000,8121.000000
39866.000000,22567.000000,20626.000000,8664.000000
39779.000000,22662.000000,20537.000000,9189.000000
39694.000000,22787.000000,20446.000000,9707.000000
39608.000000,22944.000000,20356.000000,10224.000000
39524.000000,23135.000000,20268.000000,10711.000000
39441.000000,23358.000000,20180.000000,11142.000000
39362.000000,23607.000000,20092.000000,11532.000000
39291.000000,23882.000000,20012.000000,11905.000000
39228.000000,24180.000000,19943.000000,12242.000000
39167.000000,24494.000000,19876.000000,12506.000000
39106.000000,24815.000000,19811.000000,12701.000000
39049.000000,25138.000000,19752.000000,12856.000000
38999.000000,25465.000000,19697.000000,12987.000000
38947.000000,25787.000000,19637.000000,13092.000000
38888.000000,26096.000000,19575.000000,13174.000000
38826.000000,26390.000000,19515.000000,13253.000000
38763.000000,26665.000000,19458.000000,13315.000000
38697.000000,26914.000000,19397.000000,13335.000000
38626.000000,27128.000000,19332.000000,13324.000000
38557.000000,27314.000000,19266.000000,13295.000000
38486.000000,27477.000000,19197.000000,13265.000000
38412.000000,27618.000000,19122.000000,13253.000000
38340.000000,27736.000000,19045.000000,13258.000000
38268.000000,27836.000000,18969.000000,13259.000000
38194.000000,27916.000000,18897.000000,13244.000000
38117.000000,27968.000000,18826.000000,13223.000000
38044.000000,27993.000000,18754.000000,13211.000000
37975.000000,28001.000000,18683.000000,13212.000000
37908.000000,28000.000000,18613.000000,13218.000000
37841.000000,27986.000000,18542.000000,13223.000000
37775.000000,27959.000000,18474.000000,13227.000000
37716.000000,27927.000000,18414.000000,13225.000000
37659.000000,27891.000000,18355.000000,13204.000000
37595.000000,27851.000000,18288.000000,13149.000000
37530.000000,27810.000000,18215.000000,13077.000000
37466.000000,27776.000000,18141.000000,13012.000000
37401.000000,27756.000000,18066.000000,12953.000000
37335.000000,27750.000000,17992.000000,12893.000000
37268.000000,27756.000000,17919.000000,12828.000000
37203.000000,27767.000000,17850.000000,12753.000000
37141.000000,27778.000000,17782.000000,12661.000000
37073.000000,27782.000000,17711.000000,12559.000000
37000.000000,27780.000000,17639.000000,12454.000000
36927.000000,27773.000000,17573.000000,12359.000000
36852.000000,27755.000000,17509.000000,12275.000000
36771.000000,27720.000000,17437.000000,12197.000000
36693.000000,27664.000000,17364.000000,12127.000000
36619.000000,27591.000000,17296.000000,12064.000000
36543.000000,27505.000000,17224.000000,11999.000000
36465.000000,27410.000000,17148.000000,11924.000000
36391.000000,27315.000000,17074.000000,11854.000000
36320.000000,27225.000000,17004.000000,11781.000000
36248.000000,27138.000000,16936.000000,11692.000000
36176.000000,27051.000000,16869.000000,11615.000000
36099.000000,26965.000000,16798.000000,11580.000000
36020.000000,26885.000000,16721.000000,11588.000000
35937.000000,26812.000000,16637.000000,11619.000000
35856.000000,26740.000000,16555.000000,11659.000000
35778.000000,26675.000000,16481.000000,11709.000000
35697.000000,26616.000000,16405.000000,11764.000000
35613.000000,26561.000000,16319.000000,11817.000000
35530.000000,26513.000000,16229.000000,11875.000000
35455.000000,26473.000000,16146.000000,11932.000000
35386.000000,26443.000000,16073.000000,11964.000000
35318.000000,26423.000000,16006.000000,11960.000000
35248.000000,26413.000000,15942.000000,11929.000000
35185.000000,26421.000000,15881.000000,11887.000000
35131.000000,26442.000000,15828.000000,11845.000000
35088.000000,26468.000000,15785.000000,11802.000000
35059.000000,26495.000000,15759.000000,11762.000000
35054.000000,26525.000000,15756.000000,11731.000000
35080.000000,26558.000000,15785.000000,11702.000000
35141.000000,26584.000000,15852.000000,11664.000000
35241.000000,26600.000000,15964.000000,11613.000000
35388.000000,26606.000000,16128.000000,11539.000000
35584.000000,26600.000000,16341.000000,11446.000000
35823.000000,26578.000000,16596.000000,11341.000000
36101.000000,26543.000000,16896.000000,11223.000000
36418.000000,26496.000000,17241.000000,11098.000000
36764.000000,26433.000000,17623.000000,10960.000000
37132.000000,26352.000000,18033.000000,10810.000000
37517.000000,26253.000000,18469.000000,10666.000000
37914.000000,26146.000000,18927.000000,10535.000000
38308.000000,26039.000000,19396.000000,10414.000000
38690.000000,25933.000000,19859.000000,10303.000000
39057.000000,25837.000000,20308.000000,10189.000000
39405.000000,25758.000000,20736.000000,10073.000000
39723.000000,25691.000000,21132.000000,9963.000000
40005.000000,25629.000000,21490.000000,9859.000000
40256.000000,25579.000000,21813.000000,9758.000000
40478.000000,25539.000000,22097.000000,9645.000000
40673.000000,25501.000000,22341.000000,9529.000000
40842.000000,25453.000000,22546.000000,9423.000000
40984.000000,25393.000000,22719.000000,9311.000000
41098.000000,25324.000000,22859.000000,9187.000000
41182.000000,25249.000000,22962.000000,9070.000000
41240.000000,25169.000000,23034.000000,8968.000000
41273.000000,25086.000000,23082.000000,8876.000000
41287.000000,24995.000000,23111.000000,8791.000000
41285.000000,24893.000000,23127.000000,8709.000000
41272.000000,24784.000000,23131.000000,8639.000000
41255.000000,24674.000000,23131.000000,8591.000000
41240.000000,24566.000000,23126.000000,8556.000000
41228.000000,24462.000000,23109.000000,8515.000000
41218.000000,24370.000000,23087.000000,8454.000000
41211.000000,24293.000000,23065.000000,8365.000000
41207.000000,24228.000000,23045.000000,8257.000000
41204.000000,24167.000000,23026.000000,8154.000000
41205.000000,24116.000000,23009.000000,8075.000000
41217.000000,24078.000000,22998.000000,8017.000000
41234.000000,24049.000000,22991.000000,7963.000000
41247.000000,24022.000000,22985.000000,7912.000000
41260.000000,23994.000000,22986.000000,7863.000000
41281.000000,23964.000000,22993.000000,7797.000000
41305.000000,23927.000000,23002.000000,7697.000000
41321.000000,23879.000000,23008.000000,7581.000000
41329.000000,23828.000000,23010.000000,7484.000000
41332.000000,23775.000000,23005.000000,7419.000000
41323.000000,23720.000000,22993.000000,7373.000000
41298.000000,23658.000000,22971.000000,7334.000000
41263.000000,23591.000000,22940.000000,7295.000000
41223.000000,23527.000000,22902.000000,7237.000000
41169.000000,23467.000000,22850.000000,7147.000000
41098.000000,23412.000000,22781.000000,7032.000000
41016.000000,23354.000000,22704.000000,6909.000000
40934.000000,23296.000000,22624.000000,6783.000000
40852.000000,23238.000000,22537.000000,6660.000000
40765.000000,23174.000000,22441.000000,6565.000000
40676.000000,23106.000000,22343.000000,6513.000000
40589.000000,23042.000000,22243.000000,6479.000000
40509.000000,22979.000000,22143.000000,6430.000000
40441.000000,22916.000000,22048.000000,6365.000000
40388.000000,22863.000000,21967.000000,6297.000000
40351.000000,22827.000000,21906.000000,6240.000000
40327.000000,22800.000000,21855.000000,6184.000000
40313.000000,22775.000000,21814.000000,6127.000000
40310.000000,22755.000000,21790.000000,6087.000000
40315.000000,22744.000000,21782.000000,6061.000000
40318.000000,22734.000000,21781.000000,6026.000000
40319.000000,22721.000000,21792.000000,5970.000000
40324.000000,22710.000000,21814.000000,5906.000000
40334.000000,22697.000000,21837.000000,5849.000000
40345.000000,22675.000000,21857.000000,5805.000000
40354.000000,22636.000000,21877.000000,5767.000000
40360.000000,22581.000000,21898.000000,5727.000000
40359.000000,22512.000000,21914.000000,5675.000000
40349.000000,22430.000000,21923.000000,5599.000000
40333.000000,22342.000000,21920.000000,5501.000000
40313.000000,22256.000000,21907.000000,5398.000000
40287.000000,22169.000000,21887.000000,5293.000000
40250.000000,22084.000000,21855.000000,5184.000000
40203.000000,22008.000000,21812.000000,5078.000000
40147.000000,21944.000000,21766.000000,4992.000000
40083.000000,21891.000000,21712.000000,4926.000000
40011.000000,21849.000000,21643.000000,4868.000000
39937.000000,21819.000000,21564.000000,4810.000000
39871.000000,21803.000000,21491.000000,4747.000000
39810.000000,21803.000000,21420.000000,4676.000000
39745.000000,21822.000000,21343.000000,4591.000000
39676.000000,21871.000000,21263.000000,4489.000000
39604.000000,21954.000000,21180.000000,4386.000000
39526.000000,22064.000000,21090.000000,4294.000000
39441.000000,22194.000000,20991.000000,4211.000000
39350.000000,22349.000000,20888.000000,4155.000000
39257.000000,22533.000000,20784.000000,4151.000000
39161.000000,22747.000000,20678.000000,4195.000000
39062.000000,22985.000000,20568.000000,4279.000000
38960.000000,23246.000000,20461.000000,4418.000000
38862.000000,23527.000000,20364.000000,4628.000000
38768.000000,23824.000000,20270.000000,4904.000000
38673.000000,24137.000000,20170.000000,5247.000000
38583.000000,24463.000000,20068.000000,5649.000000
38501.000000,24799.000000,19968.000000,6098.000000
38422.000000,25143.000000,19871.000000,6585.000000
38348.000000,25486.000000,19778.000000,7104.000000
38281.000000,25821.000000,19690.000000,7657.000000
38215.000000,26142.000000,19603.000000,8233.000000
38140.000000,26438.000000,19511.000000,8814.000000
38060.000000,26703.000000,19417.000000,9399.000000
37987.000000,26943.000000,19335.000000,9968.000000
37922.000000,27153.000000,19267.000000,10507.000000
37855.000000,27328.000000,19203.000000,11014.000000
37782.000000,27473.000000,19135.000000,11479.000000
37711.000000,27596.000000,19068.000000,11901.000000
37646.000000,27702.000000,19008.000000,12297.000000
37578.000000,27782.000000,18946.000000,12662.000000
37510.000000,27836.000000,18884.000000,12976.000000
37451.000000,27876.000000,18829.000000,13220.000000
37399.000000,27909.000000,18777.000000,13403.000000
37347.000000,27932.000000,18721.000000,13552.000000
37293.000000,27945.000000,18660.000000,13674.000000
37243.000000,27955.000000,18600.000000,13753.000000
37192.000000,27961.000000,18535.000000,13787.000000
37133.000000,27960.000000,18465.000000,13792.000000
37072.000000,27949.000000,18396.000000,13778.000000
37014.000000,27936.000000,18330.000000,13749.000000
36956.000000,27927.000000,18267.000000,13721.000000
36896.000000,27922.000000,18209.000000,13692.000000
36840.000000,27921.000000,18161.000000,13639.000000
36791.000000,27928.000000,18122.000000,13575.000000
36741.000000,27942.000000,18084.000000,13517.000000
36686.000000,27962.000000,18041.000000,13449.000000
36637.000000,27983.000000,17997.000000,13375.000000
36597.000000,27999.000000,17953.000000,13321.000000
36555.000000,28003.000000,17902.000000,13294.000000
36509.000000,27996.000000,17845.000000,13277.000000
36463.000000,27977.000000,17791.000000,13263.000000
36421.000000,27949.000000,17738.000000,13245.000000
36374.000000,27908.000000,17681.000000,13217.000000
36316.000000,27853.000000,17617.000000,13189.000000
36252.000000,27783.000000,17554.000000,13186.000000
36188.000000,27703.000000,17495.000000,13197.000000
36124.000000,27618.000000,17437.000000,13192.000000
36060.000000,27527.000000,17374.000000,13178.000000
35998.000000,27440.000000,17312.000000,13168.000000
35940.000000,27361.000000,17251.000000,13142.000000
35884.000000,27292.000000,17192.000000,13086.000000
35829.000000,27231.000000,17134.000000,13011.000000
35775.000000,27179.000000,17079.000000,12923.000000
35722.000000,27135.000000,17026.000000,12822.000000
35664.000000,27100.000000,16971.000000,12706.000000
35605.000000,27073.000000,16913.000000,12584.000000
35546.000000,27059.000000,16855.000000,12479.000000
35489.000000,27058.000000,16795.000000,12390.000000
35433.000000,27064.000000,16732.000000,12315.000000
35381.000000,27068.000000,16671.000000,12256.000000
35338.000000,27077.000000,16620.000000,12207.000000
35298.000000,27093.000000,16568.000000,12157.000000
35259.000000,27109.000000,16506.000000,12107.000000
35221.000000,27119.000000,16439.000000,12066.000000
35184.000000,27128.000000,16376.000000,12045.000000
35144.000000,27137.000000,16316.000000,12035.000000
35094.000000,27136.000000,16255.000000,12028.000000
35040.000000,27127.000000,16188.000000,12030.000000
34990.000000,27113.000000,16119.000000,12044.000000
34941.000000,27096.000000,16049.000000,12061.000000
34885.000000,27072.000000,15974.000000,12090.000000
34825.000000,27044.000000,15893.000000,12148.000000
34772.000000,27020.000000,15811.000000,12230.000000
34727.000000,26998.000000,15729.000000,12319.000000
34681.000000,26973.000000,15644.000000,12400.000000
34631.000000,26944.000000,15557.000000,12477.000000
34582.000000,26911.000000,15473.000000,12552.000000
34537.000000,26871.000000,15389.000000,12607.000000
34495.000000,26822.000000,15307.000000,12639.000000
34456.000000,26766.000000,15238.000000,12674.000000
34420.000000,26704.000000,15182.000000,12720.000000
34389.000000,26637.000000,15130.000000,12756.000000
34371.000000,26561.000000,15088.000000,12763.000000
34372.000000,26482.000000,15069.000000,12746.000000
34404.000000,26405.000000,15082.000000,12718.000000
34469.000000,26324.000000,15130.000000,12675.000000
34564.000000,26237.000000,15214.000000,12616.000000
34693.000000,26145.000000,15346.000000,12547.000000
34861.000000,26049.000000,15529.000000,12473.000000
35068.000000,25951.000000,15759.000000,12398.000000
35316.000000,25855.000000,16029.000000,12322.000000
35611.000000,25760.000000,16345.000000,12247.000000
35948.000000,25663.000000,16710.000000,12169.000000
36316.000000,25559.000000,17115.000000,12077.000000
36709.000000,25446.000000,17552.000000,11962.000000
37123.000000,25328.000000,18017.000000,11837.000000
37549.000000,25207.000000,18496.000000,11719.000000
37972.000000,25088.000000,18975.000000,11609.000000
38387.000000,24972.000000,19453.000000,11505.000000
38792.000000,24862.000000,19927.000000,11414.000000
39183.000000,24756.000000,20385.000000,11324.000000
39551.000000,24653.000000,20812.000000,11225.000000
39896.000000,24551.000000,21210.000000,11129.000000
40219.000000,24457.000000,21580.000000,11045.000000
40509.000000,24376.000000,21912.000000,10980.000000
40757.000000,24300.000000,22195.000000,10929.000000
40965.000000,24226.000000,22433.000000,10876.000000
41139.000000,24160.000000,22635.000000,10817.000000
41278.000000,24104.000000,22804.000000,10759.000000
41380.000000,24053.000000,22938.000000,10698.000000
41457.000000,24006.000000,23041.000000,10632.000000
41517.000000,23963.000000,23124.000000,10561.000000
41557.000000,23920.000000,23184.000000,10482.000000
41574.000000,23873.000000,23218.000000,10397.000000
41574.000000,23828.000000,23236.000000,10311.000000
41564.000000,23784.000000,23244.000000,10226.000000
41543.000000,23740.000000,23238.000000,10134.000000
41514.000000,23694.000000,23223.000000,10021.000000
41487.000000,23643.000000,23211.000000,9895.000000
41468.000000,23586.000000,23203.000000,9773.000000
41455.000000,23523.000000,23195.000000,9660.000000
41445.000000,23459.000000,23185.000000,9548.000000
41439.000000,23396.000000,23179.000000,9442.000000
41439.000000,23340.000000,23184.000000,9348.000000
41440.000000,23290.000000,23192.000000,9260.000000
41438.000000,23240.000000,23199.000000,9175.000000
41441.000000,23192.000000,23210.000000,9093.000000
41454.000000,23153.000000,23225.000000,9011.000000
41465.000000,23125.000000,23232.000000,8923.000000
41468.000000,23103.000000,23224.000000,8841.000000
41466.000000,23082.000000,23207.000000,8782.000000
41460.000000,23061.000000,23182.000000,8740.000000
41445.000000,23039.000000,23147.000000,8697.000000
41421.000000,23010.000000,23107.000000,8652.000000
41389.000000,22977.000000,23066.000000,8608.000000
41349.000000,22948.000000,23017.000000,8560.000000
41298.000000,22919.000000,22957.000000,8503.000000
41234.000000,22884.000000,22891.000000,8438.000000
41169.000000,22846.000000,22827.000000,8368.000000
41106.000000,22800.000000,22770.000000,8291.000000
41038.000000,22743.000000,22716.000000,8209.000000
40969.000000,22679.000000,22664.000000,8128.000000
40913.000000,22613.000000,22616.000000,8047.000000
40866.000000,22544.000000,22566.000000,7964.000000
40822.000000,22472.000000,22501.000000,7884.000000
40786.000000,22401.000000,22427.000000,7807.000000
40765.000000,22331.000000,22360.000000,7733.000000
40753.000000,22265.000000,22306.000000,7654.000000
40747.000000,22202.000000,22261.000000,7570.000000
40754.000000,22147.000000,22227.000000,7486.000000
40777.000000,22106.000000,22207.000000,7401.000000
40815.000000,22077.000000,22200.000000,7308.000000
40861.000000,22058.000000,22201.000000,7204.000000
40911.000000,22052.000000,22212.000000,7095.000000
40962.000000,22063.000000,22240.000000,6991.000000
41010.000000,22097.000000,22277.000000,6884.000000
41048.000000,22152.000000,22312.000000,6769.000000
41080.000000,22227.000000,22348.000000,6650.000000
41108.000000,22326.000000,22390.000000,6529.000000
41126.000000,22453.000000,22428.000000,6407.000000
41128.000000,22611.000000,22452.000000,6284.000000
41119.000000,22798.000000,22465.000000,6166.000000
41107.000000,23012.000000,22473.000000,6053.000000
41091.000000,23246.000000,22474.000000,5936.000000
41066.000000,23496.000000,22464.000000,5811.000000
41038.000000,23760.000000,22447.000000,5681.000000
41007.000000,24044.000000,22428.000000,5553.000000
40973.000000,24344.000000,22402.000000,5425.000000
40938.000000,24656.000000,22364.000000,5293.000000
40908.000000,24986.000000,22319.000000,5165.000000
40880.000000,25331.000000,22272.000000,5048.000000
40842.000000,25681.000000,22216.000000,4950.000000
40793.000000,26024.000000,22144.000000,4872.000000
40739.000000,26359.000000,22063.000000,4827.000000
40681.000000,26681.000000,21976.000000,4818.000000
40616.000000,26977.000000,21884.000000,4844.000000
40548.000000,27244.000000,21788.000000,4911.000000
40480.000000,27483.000000,21695.000000,5031.000000
40408.000000,27691.000000,21601.000000,5204.000000
40327.000000,27864.000000,21499.000000,5435.000000
40239.000000,28003.000000,21393.000000,5732.000000
40151.000000,28116.000000,21299.000000,6094.000000
40069.000000,28207.000000,21214.000000,6509.000000
39984.000000,28269.000000,21125.000000,6966.000000
39894.000000,28306.000000,21034.000000,7464.000000
39807.000000,28327.000000,20952.000000,7996.000000
39727.000000,28332.000000,20876.000000,8542.000000
39649.000000,28324.000000,20797.000000,9084.000000
39570.000000,28305.000000,20709.000000,9610.000000
39498.000000,28280.000000,20617.000000,10115.000000
39433.000000,28256.000000,20526.000000,10595.000000
39368.000000,28231.000000,20435.000000,11042.000000
39306.000000,28209.000000,20345.000000,11460.000000
39254.000000,28198.000000,20263.000000,11847.000000
39207.000000,28199.000000,20183.000000,12192.000000
39155.000000,28207.000000,20100.000000,12492.000000
39103.000000,28222.000000,20020.000000,12747.000000
39052.000000,28249.000000,19944.000000,12953.000000
38994.000000,28283.000000,19869.000000,13107.000000
38927.000000,28321.000000,19796.000000,13221.000000
38864.000000,28361.000000,19731.000000,13310.000000
38810.000000,28402.000000,19675.000000,13372.000000
38754.000000,28436.000000,19620.000000,13404.000000
38693.000000,28454.000000,19562.000000,13419.000000
38634.000000,28454.000000,19509.000000,13423.000000
38580.000000,28441.000000,19463.000000,13410.000000
38527.000000,28413.000000,19415.000000,13381.000000
38477.000000,28372.000000,19365.000000,13343.000000
38433.000000,28320.000000,19316.000000,13297.000000
38395.000000,28265.000000,19269.000000,13240.000000
38357.000000,28214.000000,19223.000000,13174.000000
38314.000000,28171.000000,19175.000000,13103.000000
38274.000000,28140.000000,19131.000000,13040.000000
38237.000000,28120.000000,19085.000000,12985.000000
38195.000000,28104.000000,19032.000000,12933.000000
38150.000000,28083.000000,18979.000000,12885.000000
38109.000000,28057.000000,18931.000000,12844.000000
38072.000000,28030.000000,18886.000000,12809.000000
38036.000000,27998.000000,18838.000000,12769.000000
38002.000000,27961.000000,18784.000000,12722.000000
37970.000000,27925.000000,18731.000000,12685.000000
37934.000000,27887.000000,18677.000000,12653.000000
37889.000000,27850.000000,18612.000000,12608.000000
37840.000000,27819.000000,18545.000000,12556.000000
37795.000000,27793.000000,18485.000000,12498.000000
37750.000000,27770.000000,18424.000000,12416.000000
37696.000000,27754.000000,18357.000000,12310.000000
37637.000000,27753.000000,18287.000000,12206.000000
37580.000000,27768.000000,18222.000000,12111.000000
37526.000000,27798.000000,18162.000000,12015.000000
37469.000000,27836.000000,18101.000000,11911.000000
37410.000000,27882.000000,18043.000000,11793.000000
37353.000000,27939.000000,17999.000000,11660.000000
37298.000000,28000.000000,17957.000000,11506.000000
37240.000000,28058.000000,17903.000000,11330.000000
37177.000000,28105.000000,17837.000000,11160.000000
37114.000000,28143.000000,17765.000000,11026.000000
37048.000000,28172.000000,17688.000000,10924.000000
36977.000000,28187.000000,17605.000000,10847.000000
36903.000000,28186.000000,17521.000000,10802.000000
36834.000000,28172.000000,17437.000000,10784.000000
36770.000000,28151.000000,17348.000000,10775.000000
36704.000000,28124.000000,17258.000000,10769.000000
36640.000000,28090.000000,17175.000000,10776.000000
36586.000000,28049.000000,17100.000000,10797.000000
36539.000000,27996.000000,17028.000000,10821.000000
36493.000000,27933.000000,16954.000000,10831.000000
36453.000000,27864.000000,16889.000000,10837.000000
36426.000000,27793.000000,16839.000000,10857.000000
36413.000000,27719.000000,16804.000000,10881.000000
36416.000000,27637.000000,16786.000000,10901.000000
36443.000000,27550.000000,16795.000000,10925.000000
36502.000000,27460.000000,16840.000000,10945.000000
36591.000000,27372.000000,16917.000000,10953.000000
36714.000000,27285.000000,17034.000000,10952.000000
36882.000000,27199.000000,17208.000000,10946.000000
37099.000000,27112.000000,17437.000000,10935.000000
37359.000000,27025.000000,17708.000000,10914.000000
37659.000000,26936.000000,18023.000000,10884.000000
37995.000000,26844.000000,18387.000000,10838.000000
38363.000000,26747.000000,18791.000000,10771.000000
38753.000000,26642.000000,19222.000000,10681.000000
39155.000000,26532.000000,19677.000000,10577.000000
39566.000000,26421.000000,20151.000000,10473.000000
39982.000000,26313.000000,20636.000000,10373.000000
40397.000000,26208.000000,21120.000000,10271.000000
40805.000000,26108.000000,21598.000000,10169.000000
41205.000000,26016.000000,22062.000000,10071.000000
41585.000000,25933.000000,22500.000000,9964.000000
41926.000000,25859.000000,22898.000000,9836.000000
42227.000000,25793.000000,23259.000000,9692.000000
42493.000000,25733.000000,23588.000000,9553.000000
42718.000000,25675.000000,23880.000000,9427.000000
42899.000000,25621.000000,24125.000000,9313.000000
43045.000000,25572.000000,24326.000000,9209.000000
43168.000000,25526.000000,24493.000000,9108.000000
43272.000000,25478.000000,24624.000000,9000.000000
43351.000000,25419.000000,24719.000000,8888.000000
43406.000000,25351.000000,24785.000000,8780.000000
43446.000000,25280.000000,24838.000000,8681.000000
43472.000000,25206.000000,24872.000000,8592.000000
43484.000000,25124.000000,24884.000000,8507.000000
43490.000000,25036.000000,24880.000000,8421.000000
43494.000000,24948.000000,24866.000000,8339.000000
43497.000000,24863.000000,24838.000000,8253.000000
43494.000000,24786.000000,24800.000000,8157.000000
43491.000000,24720.000000,24767.000000,8056.000000
43494.000000,24670.000000,24745.000000,7956.000000
43496.000000,24635.000000,24729.000000,7856.000000
43493.000000,24604.000000,24712.000000,7757.000000
43495.000000,24575.000000,24699.000000,7670.000000
43505.000000,24551.000000,24692.000000,7588.000000
43517.000000,24529.000000,24691.000000,7494.000000
43529.000000,24505.000000,24695.000000,7400.000000
43542.000000,24479.000000,24704.000000,7319.000000
43555.000000,24450.000000,24716.000000,7252.000000
43562.000000,24411.000000,24724.000000,7194.000000
43559.000000,24356.000000,24724.000000,7145.000000
43548.000000,24286.000000,24717.000000,7100.000000
43520.000000,24206.000000,24696.000000,7060.000000
43467.000000,24112.000000,24653.000000,7024.000000
43395.000000,24001.000000,24592.000000,6991.000000
43315.000000,23882.000000,24523.000000,6953.000000
43231.000000,23764.000000,24448.000000,6904.000000
43145.000000,23656.000000,24363.000000,6847.000000
43064.000000,23561.000000,24268.000000,6788.000000
42995.000000,23484.000000,24168.000000,6738.000000
42932.000000,23423.000000,24063.000000,6699.000000
42866.000000,23370.000000,23958.000000,6653.000000
42805.000000,23327.000000,23863.000000,6604.000000
42757.000000,23299.000000,23784.000000,6559.000000
42720.000000,23285.000000,23715.000000,6506.000000
42686.000000,23281.000000,23651.000000,6439.000000
42659.000000,23289.000000,23603.000000,6362.000000
42646.000000,23311.000000,23573.000000,6284.000000
42639.000000,23348.000000,23550.000000,6210.000000
42630.000000,23404.000000,23530.000000,6140.000000
42624.000000,23484.000000,23520.000000,6070.000000
42628.000000,23598.000000,23525.000000,5987.000000
42637.000000,23744.000000,23541.000000,5892.000000
42652.000000,23916.000000,23562.000000,5801.000000
42676.000000,24115.000000,23589.000000,5728.000000
42709.000000,24340.000000,23623.000000,5660.000000
42748.000000,24589.000000,23655.000000,5581.000000
42787.000000,24865.000000,23684.000000,5494.000000
42825.000000,25172.000000,23718.000000,5408.000000
42859.000000,25505.000000,23755.000000,5322.000000
42884.000000,25852.000000,23784.000000,5224.000000
42897.000000,26203.000000,23801.000000,5119.000000
42901.000000,26556.000000,23810.000000,5025.000000
42899.000000,26912.000000,23810.000000,4955.000000
42888.000000,27253.000000,23799.000000,4909.000000
42869.000000,27568.000000,23779.000000,4886.000000
42844.000000,27856.000000,23758.000000,4895.000000
42812.000000,28115.000000,23729.000000,4946.000000
42765.000000,28335.000000,23683.000000,5040.000000
42706.000000,28511.000000,23616.000000,5187.000000
42642.000000,28648.000000,23541.000000,5397.000000
42574.000000,28750.000000,23466.000000,5666.000000
42498.000000,28817.000000,23390.000000,5990.000000
42416.000000,28850.000000,23312.000000,6368.000000
42337.000000,28851.000000,23231.000000,6792.000000
42261.000000,28829.000000,23146.000000,7250.000000
42180.000000,28789.000000,23055.000000,7736.000000
42096.000000,28734.000000,22960.000000,8244.000000
42014.000000,28676.000000,22866.000000,8773.000000
41933.000000,28624.000000,22773.000000,9310.000000
41850.000000,28582.000000,22674.000000,9838.000000
41767.000000,28555.000000,22574.000000,10350.000000
41688.000000,28546.000000,22481.000000,10838.000000
41610.000000,28552.000000,22393.000000,11284.000000
41534.000000,28566.000000,22301.000000,11690.000000
41461.000000,28590.000000,22204.000000,12063.000000
41394.000000,28623.000000,22108.000000,12389.000000
41332.000000,28655.000000,22014.000000,12664.000000
41267.000000,28678.000000,21919.000000,12900.000000
41198.000000,28695.000000,21821.000000,13103.000000
41132.000000,28706.000000,21724.000000,13271.000000
41067.000000,28710.000000,21628.000000,13402.000000
41001.000000,28701.000000,21531.000000,13495.000000
40939.000000,28677.000000,21440.000000,13559.000000
40886.000000,28637.000000,21366.000000,13590.000000
40838.000000,28588.000000,21305.000000,13586.000000
40788.000000,28530.000000,21245.000000,13561.000000
40736.000000,28469.000000,21188.000000,13530.000000
40683.000000,28406.000000,21134.000000,13493.000000
40629.000000,28339.000000,21077.000000,13442.000000
40571.000000,28269.000000,21020.000000,13375.000000
40518.000000,28202.000000,20972.000000,13303.000000
40475.000000,28146.000000,20931.000000,13226.000000
40436.000000,28096.000000,20888.000000,13145.000000
40398.000000,28040.000000,20838.000000,13073.000000
40360.000000,27980.000000,20785.000000,13016.000000
40326.000000,27924.000000,20730.000000,12967.000000
40284.000000,27878.000000,20668.000000,12925.000000
40227.000000,27840.000000,20595.000000,12892.000000
40166.000000,27810.000000,20519.000000,12862.000000
40109.000000,27791.000000,20444.000000,12817.000000
40054.000000,27781.000000,20371.000000,12759.000000
39999.000000,27777.000000,20303.000000,12696.000000
39951.000000,27785.000000,20248.000000,12631.000000
39911.000000,27805.000000,20202.000000,12565.000000
39872.000000,27831.000000,20154.000000,12495.000000
39831.000000,27862.000000,20099.000000,12413.000000
39790.000000,27898.000000,20042.000000,12314.000000
39749.000000,27938.000000,19988.000000,12202.000000
39707.000000,27980.000000,19931.000000,12081.000000
39664.000000,28024.000000,19876.000000,11964.000000
39625.000000,28071.000000,19824.000000,11859.000000
39588.000000,28119.000000,19772.000000,11761.000000
39544.000000,28160.000000,19717.000000,11658.000000
39496.000000,28192.000000,19663.000000,11561.000000
39446.000000,28220.000000,19616.000000,11483.000000
39394.000000,28245.000000,19570.000000,11431.000000
39337.000000,28256.000000,19519.000000,11402.000000
39280.000000,28249.000000,19460.000000,11391.000000
39226.000000,28225.000000,19398.000000,11392.000000
39169.000000,28181.000000,19330.000000,11398.000000
39106.000000,28119.000000,19256.000000,11413.000000
39047.000000,28037.000000,19183.000000,11441.000000
39000.000000,27940.000000,19119.000000,11487.000000
38953.000000,27832.000000,19063.000000,11543.000000
38897.000000,27714.000000,19005.000000,11593.000000
38837.000000,27588.000000,18942.000000,11632.000000
38778.000000,27462.000000,18875.000000,11664.000000
38716.000000,27346.000000,18803.000000,11679.000000
38648.000000,27241.000000,18724.000000,11671.000000
38581.000000,27149.000000,18646.000000,11651.000000
38522.000000,27073.000000,18574.000000,11631.000000
38465.000000,27003.000000,18501.000000,11619.000000
38400.000000,26933.000000,18421.000000,11626.000000
38329.000000,26862.000000,18342.000000,11643.000000
38254.000000,26791.000000,18263.000000,11646.000000
38173.000000,26719.000000,18176.000000,11634.000000
38091.000000,26645.000000,18083.000000,11617.000000
38015.000000,26575.000000,17996.000000,11593.000000
37946.000000,26512.000000,17912.000000,11551.000000
37879.000000,26450.000000,17824.000000,11489.000000
37818.000000,26383.000000,17740.000000,11415.000000
37771.000000,26315.000000,17677.000000,11326.000000
37747.000000,26253.000000,17640.000000,11223.000000
37745.000000,26194.000000,17630.000000,11114.000000
37772.000000,26130.000000,17653.000000,10996.000000
37843.000000,26062.000000,17719.000000,10868.000000
37960.000000,25997.000000,17830.000000,10730.000000
38117.000000,25931.000000,17988.000000,10586.000000
38318.000000,25860.000000,18195.000000,10442.000000
38573.000000,25792.000000,18459.000000,10303.000000
38876.000000,25733.000000,18773.000000,10171.000000
39216.000000,25679.000000,19133.000000,10050.000000
39593.000000,25629.000000,19545.000000,9936.000000
40015.000000,25586.000000,20006.000000,9825.000000
40474.000000,25549.000000,20505.000000,9711.000000
40947.000000,25512.000000,21030.000000,9598.000000
41427.000000,25476.000000,21574.000000,9495.000000
41916.000000,25442.000000,22133.000000,9399.000000
42407.000000,25413.000000,22690.000000,9303.000000
42884.000000,25385.000000,23234.000000,9209.000000
43339.000000,25351.000000,23759.000000,9118.000000
43767.000000,25312.000000,24258.000000,9020.000000
44160.000000,25266.000000,24720.000000,8919.000000
44518.000000,25215.000000,25140.000000,8819.000000
44840.000000,25160.000000,25522.000000,8712.000000
45125.000000,25103.000000,25860.000000,8599.000000
45371.000000,25043.000000,26147.000000,8498.000000
