660nm,730nm,850nm,940nm
4003.000000,55534.000000,44809.000000,15257.000000
4028.000000,55557.000000,44842.000000,15289.000000
4035.000000,55575.000000,44864.000000,15318.000000
4028.000000,55587.000000,44879.000000,15340.000000
4015.000000,55596.000000,44889.000000,15356.000000
4000.000000,55605.000000,44896.000000,15365.000000
3986.000000,55612.000000,44899.000000,15369.000000
3973.000000,55615.000000,44900.000000,15367.000000
3961.000000,55616.000000,44898.000000,15362.000000
3949.000000,55614.000000,44894.000000,15353.000000
3937.000000,55609.000000,44885.000000,15342.000000
3929.000000,55601.000000,44871.000000,15328.000000
3923.000000,55594.000000,44855.000000,15313.000000
3919.000000,55589.000000,44837.000000,15297.000000
3913.000000,55583.000000,44819.000000,15279.000000
3900.000000,55575.000000,44795.000000,15254.000000
3882.000000,55566.000000,44764.000000,15221.000000
3858.000000,55554.000000,44730.000000,15184.000000
3828.000000,55538.000000,44692.000000,15146.000000
3797.000000,55518.000000,44648.000000,15110.000000
3766.000000,55494.000000,44600.000000,15072.000000
3731.000000,55465.000000,44549.000000,15033.000000
3693.000000,55432.000000,44495.000000,14992.000000
3654.000000,55397.000000,44436.000000,14949.000000
3616.000000,55361.000000,44374.000000,14905.000000
3578.000000,55325.000000,44314.000000,14859.000000
3544.000000,55290.000000,44258.000000,14813.000000
3515.000000,55259.000000,44207.000000,14767.000000
3492.000000,55233.000000,44164.000000,14725.000000
3475.000000,55212.000000,44130.000000,14693.000000
3458.000000,55199.000000,44107.000000,14671.000000
3444.000000,55188.000000,44091.000000,14653.000000
3434.000000,55180.000000,44078.000000,14639.000000
3426.000000,55174.000000,44069.000000,14630.000000
3422.000000,55171.000000,44064.000000,14627.000000
3425.000000,55172.000000,44064.000000,14625.000000
3433.000000,55173.000000,44066.000000,14622.000000
3443.000000,55174.000000,44068.000000,14618.000000
3454.000000,55176.000000,44072.000000,14615.000000
3465.000000,55180.000000,44077.000000,14615.000000
3476.000000,55184.000000,44080.000000,14616.000000
3481.000000,55187.000000,44078.000000,14613.000000
3481.000000,55188.000000,44075.000000,14608.000000
3476.000000,55186.000000,44068.000000,14600.000000
3468.000000,55179.000000,44055.000000,14589.000000
3455.000000,55168.000000,44033.000000,14575.000000
3439.000000,55156.000000,44004.000000,14554.000000
3421.000000,55143.000000,43973.000000,14531.000000
3402.000000,55128.000000,43942.000000,14505.000000
3379.000000,55110.000000,43912.000000,14476.000000
3352.000000,55089.000000,43879.000000,14444.000000
3321.000000,55064.000000,43841.000000,14411.000000
3286.000000,55033.000000,43798.000000,14372.000000
3248.000000,55001.000000,43752.000000,14327.000000
3212.000000,54969.000000,43703.000000,14281.000000
3176.000000,54938.000000,43652.000000,14232.000000
3139.000000,54906.000000,43599.000000,14181.000000
3099.000000,54872.000000,43542.000000,14128.000000
3057.000000,54837.000000,43479.000000,14072.000000
3013.000000,54798.000000,43410.000000,14012.000000
2967.000000,54756.000000,43337.000000,13949.000000
2918.000000,54710.000000,43263.000000,13885.000000
2866.000000,54663.000000,43190.000000,13823.000000
2814.000000,54618.000000,43117.000000,13760.000000
2763.000000,54575.000000,43044.000000,13699.000000
2712.000000,54534.000000,42970.000000,13644.000000
2661.000000,54496.000000,42896.000000,13592.000000
2613.000000,54458.000000,42825.000000,13541.000000
2566.000000,54420.000000,42759.000000,13487.000000
2519.000000,54383.000000,42695.000000,13429.000000
2475.000000,54347.000000,42633.000000,13370.000000
2432.000000,54311.000000,42573.000000,13312.000000
2390.000000,54273.000000,42515.000000,13253.000000
2349.000000,54236.000000,42459.000000,13193.000000
2309.000000,54198.000000,42404.000000,13134.000000
2271.000000,54162.000000,42348.000000,13079.000000
2235.000000,54129.000000,42291.000000,13029.000000
2203.000000,54099.000000,42237.000000,12978.000000
2177.000000,54070.000000,42185.000000,12927.000000
2151.000000,54040.000000,42135.000000,12874.000000
2122.000000,54009.000000,42087.000000,12824.000000
2091.000000,53980.000000,42040.000000,12779.000000
2059.000000,53953.000000,41992.000000,12739.000000
2026.000000,53929.000000,41944.000000,12703.000000
1993.000000,53904.000000,41898.000000,12670.000000
1964.000000,53881.000000,41854.000000,12637.000000
1941.000000,53862.000000,41813.000000,12607.000000
1920.000000,53845.000000,41774.000000,12577.000000
1899.000000,53826.000000,41737.000000,12548.000000
1878.000000,53806.000000,41700.000000,12516.000000
1856.000000,53783.000000,41663.000000,12482.000000
1831.000000,53757.000000,41626.000000,12446.000000
1802.000000,53730.000000,41587.000000,12410.000000
1773.000000,53701.000000,41548.000000,12374.000000
1742.000000,53673.000000,41510.000000,12340.000000
1708.000000,53644.000000,41468.000000,12303.000000
1669.000000,53613.000000,41421.000000,12264.000000
1631.000000,53583.000000,41370.000000,12220.000000
1594.000000,53554.000000,41316.000000,12174.000000
1555.000000,53523.000000,41265.000000,12130.000000
1518.000000,53493.000000,41215.000000,12087.000000
1485.000000,53463.000000,41165.000000,12045.000000
1453.000000,53432.000000,41112.000000,12007.000000
1421.000000,53403.000000,41060.000000,11972.000000
1387.000000,53373.000000,41011.000000,11935.000000
1352.000000,53340.000000,40961.000000,11893.000000
1314.000000,53305.000000,40909.000000,11844.000000
1274.000000,53271.000000,40858.000000,11792.000000
1231.000000,53240.000000,40803.000000,11739.000000
1189.000000,53209.000000,40742.000000,11684.000000
1147.000000,53177.000000,40677.000000,11628.000000
1103.000000,53141.000000,40609.000000,11571.000000
1055.000000,53100.000000,40540.000000,11512.000000
1005.000000,53056.000000,40468.000000,11448.000000
952.000000,53011.000000,40394.000000,11377.000000
896.000000,52963.000000,40319.000000,11302.000000
836.000000,52915.000000,40243.000000,11226.000000
777.000000,52868.000000,40167.000000,11154.000000
724.000000,52824.000000,40096.000000,11087.000000
674.000000,52784.000000,40032.000000,11024.000000
630.000000,52751.000000,39977.000000,10971.000000
595.000000,52727.000000,39932.000000,10929.000000
571.000000,52711.000000,39901.000000,10899.000000
559.000000,52705.000000,39888.000000,10884.000000
568.000000,52717.000000,39899.000000,10889.000000
602.000000,52752.000000,39942.000000,10923.000000
663.000000,52810.000000,40026.000000,10993.000000
757.000000,52892.000000,40155.000000,11103.000000
883.000000,53000.000000,40328.000000,11252.000000
1041.000000,53134.000000,40542.000000,11441.000000
1228.000000,53295.000000,40797.000000,11667.000000
1446.000000,53479.000000,41092.000000,11928.000000
1690.000000,53681.000000,41421.000000,12218.000000
1951.000000,53896.000000,41772.000000,12525.000000
2217.000000,54118.000000,42138.000000,12840.000000
2485.000000,54344.000000,42508.000000,13158.000000
2752.000000,54568.000000,42875.000000,13472.000000
3012.000000,54788.000000,43232.000000,13776.000000
3257.000000,54996.000000,43570.000000,14068.000000
3488.000000,55189.000000,43889.000000,14341.000000
3704.000000,55367.000000,44184.000000,14591.000000
3901.000000,55528.000000,44451.000000,14821.000000
4077.000000,55672.000000,44689.000000,15033.000000
4233.000000,55798.000000,44902.000000,15224.000000
4370.000000,55908.000000,45088.000000,15394.000000
4489.000000,56003.000000,45251.000000,15542.000000
4588.000000,56082.000000,45391.000000,15669.000000
4668.000000,56144.000000,45506.000000,15775.000000
4734.000000,56191.000000,45600.000000,15861.000000
4786.000000,56226.000000,45674.000000,15929.000000
4826.000000,56253.000000,45734.000000,15984.000000
4857.000000,56273.000000,45782.000000,16027.000000
4882.000000,56290.000000,45821.000000,16061.000000
4902.000000,56301.000000,45853.000000,16085.000000
4916.000000,56310.000000,45875.000000,16099.000000
4924.000000,56318.000000,45892.000000,16110.000000
4931.000000,56329.000000,45906.000000,16121.000000
4941.000000,56341.000000,45920.000000,16132.000000
4952.000000,56353.000000,45931.000000,16142.000000
4964.000000,56364.000000,45940.000000,16153.000000
4977.000000,56375.000000,45948.000000,16167.000000
4989.000000,56385.000000,45955.000000,16181.000000
5000.000000,56397.000000,45964.000000,16195.000000
5012.000000,56410.000000,45977.000000,16210.000000
5024.000000,56424.000000,45992.000000,16227.000000
5036.000000,56436.000000,46008.000000,16246.000000
5046.000000,56444.000000,46022.000000,16267.000000
5054.000000,56448.000000,46032.000000,16284.000000
5056.000000,56448.000000,46034.000000,16295.000000
5051.000000,56442.000000,46025.000000,16299.000000
5039.000000,56432.000000,46005.000000,16291.000000
5023.000000,56418.000000,45973.000000,16272.000000
5004.000000,56399.000000,45935.000000,16247.000000
4981.000000,56375.000000,45893.000000,16218.000000
4953.000000,56348.000000,45846.000000,16182.000000
4923.000000,56320.000000,45796.000000,16141.000000
4894.000000,56295.000000,45747.000000,16100.000000
4862.000000,56269.000000,45697.000000,16060.000000
4830.000000,56239.000000,45642.000000,16019.000000
4799.000000,56208.000000,45586.000000,15975.000000
4770.000000,56175.000000,45536.000000,15930.000000
4741.000000,56144.000000,45493.000000,15887.000000
4713.000000,56118.000000,45457.000000,15850.000000
4687.000000,56099.000000,45429.000000,15820.000000
4665.000000,56087.000000,45408.000000,15796.000000
4648.000000,56078.000000,45391.000000,15773.000000
4632.000000,56072.000000,45374.000000,15749.000000
4619.000000,56069.000000,45360.000000,15730.000000
4610.000000,56066.000000,45348.000000,15715.000000
4604.000000,56062.000000,45338.000000,15701.000000
4605.000000,56058.000000,45331.000000,15690.000000
4611.000000,56053.000000,45326.000000,15683.000000
4618.000000,56048.000000,45321.000000,15681.000000
4623.000000,56044.000000,45315.000000,15684.000000
4626.000000,56041.000000,45311.000000,15686.000000
4627.000000,56037.000000,45307.000000,15684.000000
4626.000000,56032.000000,45303.000000,15677.000000
4623.000000,56024.000000,45294.000000,15667.000000
4619.000000,56015.000000,45279.000000,15654.000000
4611.000000,56007.000000,45258.000000,15639.000000
4599.000000,55997.000000,45234.000000,15624.000000
4581.000000,55982.000000,45208.000000,15610.000000
4556.000000,55964.000000,45176.000000,15589.000000
4529.000000,55945.000000,45139.000000,15561.000000
4506.000000,55924.000000,45101.000000,15528.000000
4483.000000,55900.000000,45061.000000,15492.000000
4457.000000,55874.000000,45018.000000,15455.000000
4427.000000,55848.000000,44972.000000,15413.000000
4395.000000,55821.000000,44922.000000,15365.000000
4358.000000,55792.000000,44867.000000,15312.000000
4319.000000,55762.000000,44808.000000,15259.000000
4279.000000,55730.000000,44748.000000,15207.000000
4235.000000,55695.000000,44688.000000,15156.000000
4187.000000,55655.000000,44626.000000,15107.000000
4138.000000,55614.000000,44560.000000,15056.000000
4091.000000,55573.000000,44494.000000,15002.000000
4043.000000,55531.000000,44426.000000,14948.000000
3996.000000,55489.000000,44358.000000,14895.000000
3952.000000,55449.000000,44290.000000,14840.000000
3911.000000,55412.000000,44226.000000,14786.000000
3869.000000,55377.000000,44165.000000,14733.000000
3826.000000,55343.000000,44109.000000,14677.000000
3785.000000,55310.000000,44057.000000,14620.000000
3745.000000,55279.000000,44005.000000,14565.000000
3706.000000,55248.000000,43954.000000,14513.000000
3670.000000,55218.000000,43903.000000,14461.000000
3637.000000,55187.000000,43852.000000,14413.000000
3603.000000,55152.000000,43801.000000,14368.000000
3566.000000,55117.000000,43752.000000,14324.000000
3528.000000,55083.000000,43704.000000,14280.000000
3495.000000,55053.000000,43657.000000,14237.000000
3464.000000,55025.000000,43612.000000,14194.000000
3433.000000,54998.000000,43566.000000,14152.000000
3401.000000,54973.000000,43518.000000,14109.000000
3372.000000,54949.000000,43470.000000,14069.000000
3343.000000,54926.000000,43424.000000,14033.000000
3311.000000,54905.000000,43381.000000,13999.000000
3277.000000,54880.000000,43336.000000,13967.000000
3244.000000,54853.000000,43290.000000,13935.000000
3211.000000,54825.000000,43243.000000,13900.000000
3178.000000,54795.000000,43197.000000,13865.000000
3144.000000,54767.000000,43153.000000,13828.000000
3111.000000,54740.000000,43111.000000,13789.000000
3080.000000,54714.000000,43068.000000,13748.000000
3051.000000,54688.000000,43024.000000,13708.000000
3024.000000,54666.000000,42981.000000,13668.000000
2997.000000,54643.000000,42939.000000,13630.000000
2970.000000,54618.000000,42899.000000,13591.000000
2941.000000,54592.000000,42856.000000,13552.000000
2910.000000,54566.000000,42809.000000,13513.000000
2877.000000,54541.000000,42762.000000,13472.000000
2845.000000,54518.000000,42717.000000,13432.000000
2814.000000,54494.000000,42670.000000,13391.000000
2784.000000,54465.000000,42620.000000,13346.000000
2753.000000,54431.000000,42566.000000,13296.000000
2719.000000,54397.000000,42509.000000,13244.000000
2680.000000,54363.000000,42451.000000,13193.000000
2640.000000,54330.000000,42391.000000,13141.000000
2601.000000,54297.000000,42331.000000,13091.000000
2562.000000,54260.000000,42270.000000,13041.000000
2522.000000,54220.000000,42210.000000,12991.000000
2481.000000,54181.000000,42150.000000,12939.000000
2436.000000,54142.000000,42088.000000,12884.000000
2386.000000,54100.000000,42025.000000,12828.000000
2335.000000,54061.000000,41964.000000,12774.000000
2288.000000,54025.000000,41903.000000,12721.000000
2244.000000,53991.000000,41839.000000,12664.000000
2197.000000,53956.000000,41772.000000,12604.000000
2149.000000,53918.000000,41702.000000,12545.000000
2105.000000,53879.000000,41632.000000,12486.000000
2067.000000,53842.000000,41563.000000,12426.000000
2032.000000,53807.000000,41496.000000,12369.000000
1999.000000,53773.000000,41434.000000,12314.000000
1968.000000,53742.000000,41380.000000,12265.000000
1944.000000,53719.000000,41340.000000,12230.000000
1929.000000,53704.000000,41317.000000,12212.000000
1929.000000,53702.000000,41317.000000,12213.000000
1948.000000,53718.000000,41344.000000,12238.000000
1989.000000,53754.000000,41404.000000,12290.000000
2053.000000,53812.000000,41503.000000,12372.000000
2146.000000,53898.000000,41644.000000,12484.000000
2269.000000,54009.000000,41824.000000,12629.000000
2422.000000,54142.000000,42039.000000,12807.000000
2602.000000,54294.000000,42287.000000,13017.000000
2803.000000,54462.000000,42564.000000,13255.000000
3021.000000,54643.000000,42867.000000,13514.000000
3249.000000,54833.000000,43187.000000,13785.000000
3482.000000,55027.000000,43516.000000,14065.000000
3715.000000,55225.000000,43844.000000,14346.000000
3945.000000,55422.000000,44166.000000,14623.000000
4169.000000,55612.000000,44477.000000,14892.000000
4380.000000,55792.000000,44774.000000,15148.000000
4578.000000,55960.000000,45055.000000,15390.000000
4763.000000,56119.000000,45317.000000,15617.000000
4933.000000,56266.000000,45557.000000,15827.000000
5086.000000,56401.000000,45777.000000,16018.000000
5222.000000,56521.000000,45974.000000,16191.000000
5340.000000,56622.000000,46145.000000,16345.000000
5441.000000,56705.000000,46287.000000,16480.000000
5524.000000,56772.000000,46404.000000,16594.000000
5591.000000,56826.000000,46498.000000,16689.000000
5646.000000,56872.000000,46575.000000,16768.000000
5694.000000,56911.000000,46639.000000,16835.000000
5735.000000,56941.000000,46690.000000,16892.000000
5768.000000,56964.000000,46727.000000,16938.000000
5793.000000,56983.000000,46755.000000,16975.000000
5812.000000,56997.000000,46778.000000,17005.000000
5825.000000,57005.000000,46798.000000,17030.000000
5836.000000,57013.000000,46816.000000,17050.000000
5844.000000,57022.000000,46835.000000,17065.000000
5850.000000,57034.000000,46852.000000,17079.000000
5857.000000,57048.000000,46868.000000,17098.000000
5867.000000,57061.000000,46880.000000,17116.000000
5881.000000,57071.000000,46890.000000,17132.000000
5894.000000,57078.000000,46899.000000,17143.000000
5906.000000,57083.000000,46907.000000,17153.000000
5915.000000,57086.000000,46915.000000,17161.000000
5923.000000,57088.000000,46921.000000,17166.000000
5926.000000,57088.000000,46923.000000,17167.000000
5924.000000,57085.000000,46917.000000,17163.000000
5915.000000,57079.000000,46904.000000,17155.000000
5899.000000,57070.000000,46884.000000,17142.000000
5875.000000,57053.000000,46857.000000,17122.000000
5845.000000,57030.000000,46818.000000,17095.000000
5812.000000,57002.000000,46772.000000,17063.000000
5778.000000,56968.000000,46721.000000,17027.000000
5741.000000,56931.000000,46666.000000,16983.000000
5702.000000,56892.000000,46608.000000,16934.000000
5663.000000,56853.000000,46550.000000,16884.000000
5623.000000,56813.000000,46491.000000,16834.000000
5584.000000,56775.000000,46431.000000,16785.000000
5543.000000,56741.000000,46372.000000,16740.000000
5504.000000,56709.000000,46318.000000,16698.000000
5470.000000,56680.000000,46271.000000,16660.000000
5440.000000,56653.000000,46232.000000,16625.000000
5415.000000,56629.000000,46195.000000,16594.000000
5397.000000,56608.000000,46163.000000,16567.000000
5385.000000,56594.000000,46137.000000,16548.000000
5376.000000,56587.000000,46119.000000,16535.000000
5370.000000,56585.000000,46104.000000,16525.000000
5364.000000,56584.000000,46092.000000,16518.000000
5359.000000,56582.000000,46082.000000,16512.000000
5352.000000,56579.000000,46072.000000,16504.000000
5347.000000,56575.000000,46061.000000,16494.000000
5344.000000,56573.000000,46049.000000,16483.000000
5339.000000,56570.000000,46036.000000,16470.000000
5331.000000,56564.000000,46024.000000,16458.000000
5322.000000,56555.000000,46012.000000,16446.000000
5313.000000,56545.000000,45997.000000,16432.000000
5302.000000,56532.000000,45978.000000,16415.000000
5285.000000,56519.000000,45957.000000,16395.000000
5264.000000,56507.000000,45936.000000,16371.000000
5240.000000,56493.000000,45913.000000,16348.000000
5213.000000,56475.000000,45887.000000,16325.000000
5183.000000,56450.000000,45855.000000,16298.000000
5151.000000,56420.000000,45819.000000,16266.000000
5117.000000,56387.000000,45777.000000,16232.000000
5080.000000,56353.000000,45730.000000,16194.000000
5040.000000,56318.000000,45679.000000,16149.000000
4997.000000,56283.000000,45625.000000,16099.000000
4952.000000,56246.000000,45568.000000,16047.000000
4907.000000,56206.000000,45506.000000,15996.000000
4861.000000,56165.000000,45442.000000,15944.000000
4816.000000,56128.000000,45375.000000,15892.000000
4770.000000,56093.000000,45305.000000,15836.000000
4723.000000,56057.000000,45236.000000,15779.000000
4676.000000,56023.000000,45168.000000,15723.000000
4629.000000,55990.000000,45103.000000,15665.000000
4582.000000,55955.000000,45039.000000,15607.000000
4534.000000,55917.000000,44973.000000,15550.000000
4483.000000,55878.000000,44904.000000,15494.000000
4430.000000,55835.000000,44833.000000,15436.000000
4376.000000,55787.000000,44758.000000,15373.000000
4324.000000,55737.000000,44682.000000,15308.000000
4276.000000,55689.000000,44609.000000,15244.000000
4229.000000,55645.000000,44539.000000,15178.000000
4182.000000,55602.000000,44473.000000,15114.000000
4134.000000,55563.000000,44409.000000,15054.000000
4089.000000,55526.000000,44345.000000,14998.000000
4047.000000,55490.000000,44281.000000,14949.000000
4002.000000,55450.000000,44219.000000,14903.000000
3955.000000,55408.000000,44160.000000,14857.000000
3906.000000,55367.000000,44102.000000,14808.000000
3860.000000,55330.000000,44047.000000,14760.000000
3815.000000,55298.000000,43993.000000,14716.000000
3771.000000,55268.000000,43939.000000,14673.000000
3728.000000,55238.000000,43886.000000,14629.000000
3687.000000,55209.000000,43834.000000,14587.000000
3648.000000,55183.000000,43783.000000,14547.000000
3612.000000,55160.000000,43732.000000,14504.000000
3578.000000,55137.000000,43680.000000,14456.000000
3544.000000,55111.000000,43627.000000,14407.000000
3506.000000,55082.000000,43572.000000,14359.000000
3466.000000,55052.000000,43518.000000,14314.000000
3423.000000,55019.000000,43464.000000,14268.000000
3380.000000,54981.000000,43410.000000,14221.000000
3336.000000,54941.000000,43354.000000,14173.000000
3294.000000,54900.000000,43300.000000,14125.000000
3255.000000,54862.000000,43248.000000,14079.000000
3218.000000,54827.000000,43197.000000,14036.000000
3183.000000,54793.000000,43146.000000,13997.000000
3149.000000,54761.000000,43095.000000,13958.000000
3115.000000,54732.000000,43043.000000,13916.000000
3082.000000,54705.000000,42992.000000,13871.000000
3047.000000,54678.000000,42941.000000,13824.000000
3010.000000,54651.000000,42890.000000,13779.000000
2971.000000,54624.000000,42841.000000,13736.000000
2928.000000,54597.000000,42793.000000,13692.000000
2885.000000,54571.000000,42741.000000,13647.000000
2845.000000,54545.000000,42686.000000,13606.000000
2804.000000,54519.000000,42629.000000,13562.000000
2760.000000,54492.000000,42569.000000,13514.000000
2711.000000,54461.000000,42507.000000,13462.000000
2659.000000,54424.000000,42445.000000,13408.000000
2605.000000,54382.000000,42382.000000,13352.000000
2548.000000,54335.000000,42314.000000,13288.000000
2489.000000,54284.000000,42243.000000,13218.000000
2429.000000,54231.000000,42169.000000,13142.000000
2369.000000,54179.000000,42094.000000,13065.000000
2310.000000,54128.000000,42018.000000,12990.000000
2250.000000,54076.000000,41937.000000,12912.000000
2188.000000,54025.000000,41855.000000,12834.000000
2125.000000,53974.000000,41776.000000,12761.000000
2063.000000,53924.000000,41700.000000,12691.000000
2003.000000,53874.000000,41622.000000,12623.000000
1946.000000,53827.000000,41541.000000,12558.000000
1889.000000,53782.000000,41459.000000,12494.000000
1834.000000,53735.000000,41383.000000,12431.000000
1787.000000,53692.000000,41314.000000,12370.000000
1746.000000,53655.000000,41253.000000,12317.000000
1717.000000,53628.000000,41203.000000,12276.000000
1702.000000,53613.000000,41174.000000,12253.000000
1705.000000,53616.000000,41173.000000,12254.000000
1730.000000,53639.000000,41208.000000,12284.000000
1785.000000,53686.000000,41283.000000,12347.000000
1870.000000,53759.000000,41401.000000,12448.000000
1985.000000,53862.000000,41562.000000,12587.000000
2132.000000,53995.000000,41767.000000,12764.000000
2315.000000,54155.000000,42019.000000,12980.000000
2528.000000,54339.000000,42314.000000,13233.000000
2765.000000,54542.000000,42644.000000,13517.000000
3020.000000,54761.000000,42996.000000,13825.000000
3285.000000,54987.000000,43365.000000,14149.000000
3553.000000,55212.000000,43739.000000,14474.000000
3816.000000,55431.000000,44110.000000,14793.000000
4069.000000,55643.000000,44466.000000,15103.000000
4309.000000,55843.000000,44803.000000,15403.000000
4534.000000,56029.000000,45117.000000,15687.000000
4742.000000,56201.000000,45404.000000,15951.000000
4929.000000,56357.000000,45664.000000,16191.000000
5096.000000,56498.000000,45895.000000,16403.000000
5242.000000,56623.000000,46097.000000,16587.000000
5366.000000,56733.000000,46270.000000,16744.000000
5468.000000,56824.000000,46415.000000,16877.000000
5550.000000,56895.000000,46534.000000,16985.000000
5614.000000,56946.000000,46631.000000,17070.000000
5664.000000,56984.000000,46708.000000,17137.000000
5703.000000,57014.000000,46769.000000,17188.000000
5731.000000,57034.000000,46815.000000,17227.000000
5749.000000,57046.000000,46848.000000,17254.000000
5758.000000,57053.000000,46869.000000,17270.000000
5760.000000,57058.000000,46880.000000,17280.000000
5757.000000,57057.000000,46885.000000,17287.000000
5752.000000,57053.000000,46884.000000,17292.000000
5748.000000,57048.000000,46879.000000,17294.000000
5745.000000,57042.000000,46871.000000,17293.000000
5742.000000,57036.000000,46863.000000,17293.000000
5739.000000,57029.000000,46856.000000,17296.000000
5740.000000,57025.000000,46853.000000,17301.000000
5742.000000,57026.000000,46855.000000,17310.000000
5745.000000,57028.000000,46861.000000,17318.000000
5748.000000,57032.000000,46868.000000,17322.000000
5752.000000,57038.000000,46870.000000,17322.000000
5751.000000,57039.000000,46865.000000,17316.000000
5742.000000,57032.000000,46853.000000,17304.000000
5727.000000,57019.000000,46832.000000,17282.000000
5707.000000,57002.000000,46804.000000,17254.000000
5681.000000,56983.000000,46768.000000,17220.000000
5647.000000,56962.000000,46724.000000,17181.000000
5608.000000,56937.000000,46674.000000,17140.000000
5569.000000,56908.000000,46616.000000,17098.000000
5530.000000,56878.000000,46554.000000,17056.000000
5491.000000,56846.000000,46492.000000,17014.000000
5452.000000,56815.000000,46433.000000,16968.000000
5417.000000,56785.000000,46375.000000,16918.000000
5383.000000,56753.000000,46319.000000,16868.000000
5352.000000,56721.000000,46267.000000,16821.000000
5322.000000,56689.000000,46219.000000,16779.000000
5296.000000,56661.000000,46177.000000,16743.000000
5274.000000,56634.000000,46140.000000,16714.000000
5254.000000,56612.000000,46110.000000,16689.000000
5237.000000,56594.000000,46086.000000,16666.000000
5220.000000,56581.000000,46070.000000,16648.000000
5205.000000,56573.000000,46061.000000,16633.000000
5194.000000,56570.000000,46057.000000,16623.000000
5190.000000,56571.000000,46059.000000,16618.000000
5195.000000,56577.000000,46065.000000,16618.000000
5206.000000,56587.000000,46072.000000,16621.000000
5217.000000,56600.000000,46077.000000,16629.000000
5228.000000,56612.000000,46081.000000,16639.000000
5240.000000,56621.000000,46085.000000,16649.000000
5251.000000,56626.000000,46087.000000,16657.000000
5261.000000,56627.000000,46088.000000,16659.000000
5270.000000,56630.000000,46088.000000,16653.000000
5276.000000,56631.000000,46085.000000,16643.000000
5276.000000,56630.000000,46077.000000,16634.000000
5270.000000,56626.000000,46063.000000,16624.000000
5259.000000,56617.000000,46043.000000,16612.000000
5245.000000,56604.000000,46017.000000,16597.000000
5228.000000,56588.000000,45986.000000,16579.000000
5205.000000,56563.000000,45949.000000,16555.000000
5177.000000,56535.000000,45908.000000,16526.000000
5142.000000,56505.000000,45862.000000,16491.000000
5103.000000,56475.000000,45814.000000,16451.000000
5062.000000,56445.000000,45764.000000,16405.000000
5021.000000,56414.000000,45712.000000,16352.000000
4979.000000,56381.000000,45655.000000,16295.000000
4935.000000,56346.000000,45593.000000,16234.000000
4890.000000,56309.000000,45525.000000,16173.000000
4845.000000,56269.000000,45454.000000,16110.000000
4802.000000,56226.000000,45383.000000,16048.000000
4758.000000,56180.000000,45312.000000,15987.000000
4714.000000,56137.000000,45242.000000,15926.000000
4670.000000,56097.000000,45174.000000,15863.000000
4623.000000,56059.000000,45110.000000,15801.000000
4575.000000,56021.000000,45046.000000,15744.000000
4529.000000,55981.000000,44978.000000,15688.000000
4484.000000,55940.000000,44905.000000,15631.000000
4438.000000,55902.000000,44834.000000,15578.000000
4388.000000,55867.000000,44765.000000,15531.000000
4339.000000,55835.000000,44700.000000,15481.000000
4296.000000,55805.000000,44637.000000,15429.000000
4257.000000,55773.000000,44575.000000,15374.000000
4219.000000,55737.000000,44514.000000,15317.000000
4182.000000,55697.000000,44454.000000,15262.000000
4148.000000,55659.000000,44400.000000,15212.000000
4117.000000,55623.000000,44352.000000,15164.000000
4087.000000,55590.000000,44306.000000,15119.000000
4055.000000,55560.000000,44262.000000,15075.000000
4022.000000,55533.000000,44218.000000,15032.000000
3987.000000,55507.000000,44173.000000,14994.000000
3952.000000,55480.000000,44128.000000,14959.000000
3919.000000,55453.000000,44085.000000,14922.000000
3887.000000,55425.000000,44041.000000,14882.000000
3853.000000,55394.000000,43997.000000,14840.000000
3820.000000,55366.000000,43955.000000,14800.000000
3791.000000,55344.000000,43915.000000,14764.000000
3765.000000,55323.000000,43872.000000,14726.000000
3737.000000,55300.000000,43829.000000,14687.000000
3705.000000,55273.000000,43785.000000,14648.000000
3672.000000,55244.000000,43742.000000,14607.000000
3641.000000,55216.000000,43701.000000,14564.000000
3610.000000,55188.000000,43662.000000,14521.000000
3582.000000,55160.000000,43621.000000,14477.000000
3553.000000,55132.000000,43573.000000,14434.000000
3521.000000,55105.000000,43522.000000,14392.000000
3485.000000,55076.000000,43471.000000,14352.000000
3448.000000,55048.000000,43420.000000,14311.000000
3410.000000,55018.000000,43368.000000,14270.000000
3369.000000,54985.000000,43314.000000,14227.000000
3326.000000,54948.000000,43257.000000,14180.000000
3279.000000,54911.000000,43197.000000,14132.000000
3229.000000,54874.000000,43132.000000,14082.000000
3177.000000,54833.000000,43065.000000,14030.000000
3121.000000,54787.000000,42996.000000,13976.000000
3065.000000,54737.000000,42927.000000,13919.000000
3009.000000,54686.000000,42859.000000,13857.000000
2952.000000,54637.000000,42791.000000,13791.000000
2896.000000,54588.000000,42721.000000,13722.000000
2841.000000,54540.000000,42646.000000,13648.000000
2784.000000,54496.000000,42570.000000,13572.000000
2725.000000,54452.000000,42493.000000,13500.000000
2665.000000,54408.000000,42416.000000,13432.000000
2609.000000,54364.000000,42339.000000,13368.000000
2556.000000,54322.000000,42265.000000,13310.000000
2505.000000,54281.000000,42195.000000,13258.000000
2454.000000,54241.000000,42129.000000,13210.000000
2408.000000,54204.000000,42070.000000,13167.000000
2372.000000,54173.000000,42022.000000,13131.000000
2350.000000,54153.000000,41991.000000,13105.000000
2345.000000,54145.000000,41980.000000,13096.000000
2362.000000,54155.000000,41994.000000,13112.000000
2404.000000,54188.000000,42041.000000,13158.000000
2474.000000,54246.000000,42129.000000,13235.000000
2574.000000,54332.000000,42261.000000,13347.000000
2703.000000,54447.000000,42440.000000,13494.000000
2862.000000,54589.000000,42663.000000,13678.000000
3048.000000,54755.000000,42928.000000,13899.000000
3257.000000,54939.000000,43226.000000,14148.000000
3484.000000,55138.000000,43549.000000,14418.000000
3721.000000,55345.000000,43886.000000,14701.000000
3962.000000,55553.000000,44226.000000,14992.000000
4206.000000,55760.000000,44563.000000,15286.000000
4447.000000,55964.000000,44892.000000,15575.000000
4681.000000,56160.000000,45207.000000,15855.000000
4902.000000,56345.000000,45504.000000,16120.000000
5107.000000,56515.000000,45781.000000,16366.000000
5294.000000,56670.000000,46033.000000,16593.000000
5461.000000,56809.000000,46258.000000,16802.000000
5606.000000,56930.000000,46457.000000,16991.000000
5732.000000,57036.000000,46631.000000,17160.000000
5841.000000,57128.000000,46781.000000,17307.000000
5935.000000,57205.000000,46909.000000,17433.000000
6011.000000,57263.000000,47012.000000,17536.000000
6071.000000,57307.000000,47094.000000,17616.000000
6118.000000,57342.000000,47160.000000,17681.000000
6152.000000,57371.000000,47214.000000,17731.000000
6175.000000,57393.000000,47257.000000,17765.000000
6192.000000,57407.000000,47286.000000,17786.000000
6207.000000,57414.000000,47304.000000,17796.000000
6215.000000,57415.000000,47315.000000,17797.000000
6217.000000,57414.000000,47318.000000,17789.000000
6216.000000,57412.000000,47318.000000,17778.000000
6214.000000,57408.000000,47314.000000,17768.000000
6210.000000,57403.000000,47306.000000,17759.000000
6203.000000,57396.000000,47295.000000,17752.000000
6198.000000,57389.000000,47284.000000,17746.000000
6194.000000,57383.000000,47276.000000,17742.000000
6189.000000,57376.000000,47267.000000,17741.000000
6183.000000,57368.000000,47254.000000,17740.000000
6176.000000,57360.000000,47237.000000,17734.000000
6164.000000,57350.000000,47212.000000,17722.000000
6146.000000,57336.000000,47178.000000,17701.000000
6120.000000,57314.000000,47137.000000,17671.000000
6087.000000,57285.000000,47090.000000,17634.000000
6051.000000,57250.000000,47040.000000,17593.000000
6011.000000,57212.000000,46986.000000,17547.000000
5968.000000,57171.000000,46926.000000,17494.000000
5925.000000,57129.000000,46860.000000,17436.000000
5880.000000,57086.000000,46792.000000,17372.000000
5832.000000,57041.000000,46727.000000,17305.000000
5784.000000,56996.000000,46663.000000,17238.000000
5740.000000,56955.000000,46601.000000,17178.000000
5699.000000,56920.000000,46540.000000,17123.000000
5663.000000,56890.000000,46482.000000,17074.000000
5634.000000,56864.000000,46430.000000,17032.000000
5610.000000,56842.000000,46386.000000,16997.000000
5593.000000,56824.000000,46351.000000,16969.000000
5582.000000,56808.000000,46324.000000,16945.000000
5575.000000,56796.000000,46302.000000,16927.000000
5571.000000,56790.000000,46286.000000,16917.000000
5569.000000,56788.000000,46278.000000,16913.000000
5569.000000,56788.000000,46274.000000,16914.000000
5570.000000,56792.000000,46275.000000,16919.000000
5571.000000,56799.000000,46281.000000,16926.000000
5573.000000,56805.000000,46291.000000,16936.000000
5576.000000,56812.000000,46300.000000,16945.000000
5576.000000,56818.000000,46304.000000,16950.000000
5570.000000,56822.000000,46302.000000,16949.000000
5558.000000,56823.000000,46295.000000,16944.000000
5546.000000,56819.000000,46284.000000,16935.000000
5533.000000,56811.000000,46271.000000,16920.000000
5519.000000,56799.000000,46254.000000,16899.000000
5503.000000,56783.000000,46230.000000,16875.000000
5488.000000,56764.000000,46199.000000,16847.000000
5471.000000,56743.000000,46163.000000,16816.000000
5451.000000,56719.000000,46123.000000,16781.000000
5425.000000,56693.000000,46078.000000,16745.000000
5393.000000,56664.000000,46030.000000,16706.000000
5357.000000,56631.000000,45981.000000,16665.000000
5318.000000,56593.000000,45931.000000,16620.000000
5275.000000,56551.000000,45876.000000,16567.000000
5231.000000,56507.000000,45818.000000,16509.000000
5187.000000,56466.000000,45759.000000,16449.000000
5140.000000,56424.000000,45697.000000,16388.000000
5089.000000,56380.000000,45630.000000,16328.000000
5038.000000,56336.000000,45558.000000,16270.000000
4991.000000,56293.000000,45484.000000,16212.000000
4944.000000,56253.000000,45411.000000,16155.000000
4895.000000,56215.000000,45342.000000,16102.000000
4845.000000,56178.000000,45273.000000,16050.000000
4792.000000,56140.000000,45203.000000,15997.000000
4739.000000,56101.000000,45131.000000,15942.000000
4686.000000,56059.000000,45062.000000,15884.000000
4632.000000,56017.000000,44993.000000,15825.000000
4578.000000,55976.000000,44924.000000,15764.000000
4524.000000,55936.000000,44854.000000,15701.000000
4470.000000,55896.000000,44781.000000,15638.000000
4420.000000,55858.000000,44708.000000,15576.000000
4373.000000,55819.000000,44636.000000,15515.000000
4327.000000,55778.000000,44566.000000,15456.000000
4281.000000,55735.000000,44499.000000,15400.000000
4237.000000,55694.000000,44436.000000,15342.000000
4195.000000,55655.000000,44376.000000,15283.000000
4151.000000,55621.000000,44319.000000,15226.000000
4107.000000,55589.000000,44264.000000,15177.000000
4068.000000,55558.000000,44212.000000,15134.000000
4035.000000,55530.000000,44163.000000,15089.000000
4003.000000,55501.000000,44115.000000,15046.000000
3971.000000,55469.000000,44065.000000,15007.000000
3940.000000,55437.000000,44016.000000,14971.000000
3909.000000,55408.000000,43968.000000,14934.000000
3874.000000,55378.000000,43919.000000,14895.000000
3837.000000,55344.000000,43867.000000,14853.000000
3800.000000,55309.000000,43813.000000,14805.000000
3763.000000,55277.000000,43762.000000,14755.000000
3723.000000,55248.000000,43712.000000,14703.000000
3684.000000,55219.000000,43663.000000,14655.000000
3647.000000,55189.000000,43614.000000,14610.000000
3609.000000,55156.000000,43564.000000,14566.000000
3571.000000,55122.000000,43513.000000,14525.000000
3534.000000,55089.000000,43462.000000,14484.000000
3497.000000,55059.000000,43411.000000,14442.000000
3458.000000,55029.000000,43359.000000,14399.000000
3417.000000,55000.000000,43306.000000,14355.000000
3378.000000,54973.000000,43254.000000,14310.000000
3340.000000,54947.000000,43203.000000,14267.000000
3302.000000,54921.000000,43150.000000,14222.000000
3262.000000,54892.000000,43098.000000,14174.000000
3219.000000,54860.000000,43044.000000,14123.000000
3175.000000,54826.000000,42984.000000,14069.000000
3130.000000,54790.000000,42921.000000,14013.000000
3084.000000,54751.000000,42856.000000,13954.000000
3033.000000,54711.000000,42789.000000,13893.000000
2982.000000,54672.000000,42724.000000,13834.000000
2928.000000,54632.000000,42660.000000,13776.000000
2871.000000,54591.000000,42596.000000,13718.000000
2814.000000,54550.000000,42530.000000,13661.000000
2758.000000,54508.000000,42460.000000,13605.000000
2704.000000,54463.000000,42386.000000,13549.000000
2649.000000,54415.000000,42310.000000,13489.000000
2595.000000,54366.000000,42233.000000,13428.000000
2540.000000,54318.000000,42155.000000,13365.000000
2483.000000,54270.000000,42075.000000,13298.000000
2425.000000,54223.000000,41995.000000,13230.000000
2368.000000,54174.000000,41914.000000,13163.000000
2311.000000,54124.000000,41830.000000,13100.000000
2252.000000,54074.000000,41749.000000,13039.000000
2190.000000,54025.000000,41672.000000,12976.000000
2130.000000,53977.000000,41599.000000,12911.000000
2077.000000,53933.000000,41531.000000,12851.000000
2030.000000,53895.000000,41475.000000,12798.000000
1995.000000,53867.000000,41439.000000,12761.000000
1978.000000,53859.000000,41429.000000,12747.000000
1986.000000,53872.000000,41450.000000,12759.000000
2022.000000,53910.000000,41505.000000,12800.000000
2091.000000,53976.000000,41603.000000,12878.000000
2197.000000,54071.000000,41748.000000,13001.000000
2339.000000,54194.000000,41944.000000,13175.000000
2520.000000,54348.000000,42193.000000,13397.000000
2737.000000,54531.000000,42494.000000,13663.000000
2990.000000,54743.000000,42844.000000,13966.000000
3269.000000,54978.000000,43229.000000,14299.000000
3564.000000,55229.000000,43636.000000,14654.000000
3863.000000,55488.000000,44053.000000,15018.000000
4163.000000,55748.000000,44471.000000,15384.000000
4456.000000,56001.000000,44878.000000,15743.000000
4736.000000,56239.000000,45264.000000,16086.000000
4996.000000,56456.000000,45623.000000,16405.000000
5234.000000,56654.000000,45949.000000,16699.000000
5448.000000,56835.000000,46245.000000,16966.000000
5641.000000,56997.000000,46511.000000,17206.000000
5812.000000,57138.000000,46746.000000,17421.000000
5963.000000,57260.000000,46954.000000,17613.000000
6096.000000,57366.000000,47137.000000,17784.000000
6208.000000,57456.000000,47296.000000,17932.000000
6302.000000,57534.000000,47431.000000,18055.000000
6382.000000,57602.000000,47546.000000,18156.000000
6449.000000,57656.000000,47642.000000,18240.000000
6499.000000,57699.000000,47718.000000,18310.000000
6536.000000,57731.000000,47777.000000,18368.000000
6567.000000,57759.000000,47821.000000,18416.000000
6591.000000,57781.000000,47854.000000,18455.000000
6610.000000,57797.000000,47879.000000,18485.000000
6624.000000,57809.000000,47898.000000,18506.000000
6637.000000,57820.000000,47915.000000,18525.000000
6647.000000,57831.000000,47932.000000,18547.000000
6657.000000,57843.000000,47949.000000,18569.000000
6670.000000,57857.000000,47967.000000,18590.000000
6688.000000,57871.000000,47984.000000,18610.000000
6710.000000,57885.000000,48001.000000,18627.000000
6731.000000,57897.000000,48020.000000,18645.000000
6753.000000,57912.000000,48042.000000,18664.000000
6776.000000,57929.000000,48065.000000,18683.000000
6799.000000,57945.000000,48088.000000,18699.000000
6820.000000,57957.000000,48104.000000,18711.000000
6838.000000,57966.000000,48111.000000,18720.000000
6850.000000,57970.000000,48110.000000,18725.000000
6852.000000,57966.000000,48101.000000,18722.000000
6844.000000,57955.000000,48082.000000,18710.000000
6828.000000,57937.000000,48051.000000,18689.000000
6803.000000,57912.000000,48011.000000,18661.000000
6772.000000,57881.000000,47967.000000,18627.000000
6738.000000,57845.000000,47919.000000,18586.000000
6700.000000,57805.000000,47867.000000,18536.000000
6657.000000,57761.000000,47812.000000,18484.000000
6608.000000,57718.000000,47753.000000,18431.000000
6558.000000,57678.000000,47692.000000,18378.000000
6510.000000,57642.000000,47631.000000,18325.000000
6468.000000,57607.000000,47570.000000,18274.000000
6431.000000,57575.000000,47511.000000,18224.000000
6397.000000,57544.000000,47455.000000,18177.000000
6368.000000,57515.000000,47402.000000,18137.000000
6341.000000,57489.000000,47354.000000,18102.000000
6317.000000,57468.000000,47316.000000,18070.000000
6297.000000,57453.000000,47287.000000,18042.000000
6285.000000,57443.000000,47265.000000,18025.000000
6279.000000,57436.000000,47249.000000,18017.000000
6277.000000,57432.000000,47240.000000,18014.000000
6277.000000,57429.000000,47235.000000,18011.000000
6277.000000,57427.000000,47234.000000,18007.000000
6278.000000,57428.000000,47234.000000,18004.000000
6281.000000,57431.000000,47232.000000,18003.000000
6286.000000,57436.000000,47228.000000,18001.000000
6291.000000,57438.000000,47220.000000,17996.000000
6293.000000,57437.000000,47209.000000,17986.000000
6288.000000,57434.000000,47196.000000,17971.000000
6282.000000,57428.000000,47179.000000,17956.000000
6273.000000,57419.000000,47161.000000,17939.000000
6257.000000,57406.000000,47138.000000,17917.000000
6233.000000,57388.000000,47108.000000,17890.000000
6205.000000,57366.000000,47073.000000,17857.000000
6173.000000,57341.000000,47034.000000,17819.000000
6140.000000,57313.000000,46993.000000,17780.000000
6107.000000,57283.000000,46947.000000,17741.000000
6071.000000,57251.000000,46897.000000,17699.000000
6033.000000,57219.000000,46844.000000,17654.000000
5995.000000,57185.000000,46788.000000,17605.000000
5956.000000,57149.000000,46730.000000,17554.000000
5918.000000,57111.000000,46670.000000,17505.000000
5877.000000,57075.000000,46610.000000,17457.000000
5833.000000,57038.000000,46549.000000,17406.000000
5789.000000,56999.000000,46486.000000,17349.000000
5745.000000,56960.000000,46422.000000,17288.000000
5700.000000,56921.000000,46356.000000,17226.000000
5653.000000,56881.000000,46289.000000,17164.000000
5605.000000,56841.000000,46222.000000,17101.000000
5558.000000,56804.000000,46155.000000,17038.000000
5512.000000,56766.000000,46089.000000,16978.000000
5466.000000,56727.000000,46025.000000,16923.000000
5422.000000,56690.000000,45963.000000,16869.000000
5380.000000,56654.000000,45904.000000,16815.000000
5339.000000,56617.000000,45846.000000,16763.000000
5298.000000,56578.000000,45788.000000,16711.000000
5256.000000,56540.000000,45730.000000,16659.000000
5214.000000,56505.000000,45673.000000,16609.000000
5174.000000,56470.000000,45616.000000,16558.000000
5136.000000,56438.000000,45561.000000,16509.000000
5101.000000,56408.000000,45506.000000,16460.000000
5066.000000,56379.000000,45451.000000,16412.000000
5029.000000,56349.000000,45394.000000,16364.000000
4986.000000,56315.000000,45337.000000,16316.000000
4943.000000,56280.000000,45279.000000,16264.000000
4904.000000,56246.000000,45221.000000,16210.000000
4865.000000,56214.000000,45165.000000,16159.000000
4825.000000,56180.000000,45111.000000,16113.000000
4787.000000,56147.000000,45061.000000,16069.000000
4749.000000,56120.000000,45013.000000,16025.000000
4710.000000,56094.000000,44966.000000,15983.000000
4671.000000,56066.000000,44916.000000,15942.000000
4631.000000,56039.000000,44862.000000,15898.000000
4592.000000,56010.000000,44808.000000,15847.000000
4550.000000,55977.000000,44755.000000,15792.000000
4506.000000,55942.000000,44699.000000,15736.000000
4461.000000,55905.000000,44643.000000,15682.000000
4418.000000,55868.000000,44589.000000,15630.000000
4380.000000,55832.000000,44538.000000,15584.000000
4344.000000,55796.000000,44486.000000,15542.000000
4310.000000,55765.000000,44433.000000,15502.000000
4277.000000,55735.000000,44378.000000,15465.000000
4245.000000,55703.000000,44321.000000,15428.000000
4213.000000,55671.000000,44264.000000,15387.000000
4178.000000,55638.000000,44210.000000,15342.000000
4137.000000,55605.000000,44160.000000,15297.000000
4093.000000,55572.000000,44109.000000,15251.000000
4049.000000,55539.000000,44054.000000,15200.000000
4004.000000,55509.000000,43999.000000,15147.000000
3963.000000,55482.000000,43945.000000,15095.000000
3923.000000,55454.000000,43892.000000,15044.000000
3882.000000,55425.000000,43838.000000,14992.000000
3840.000000,55395.000000,43781.000000,14938.000000
3795.000000,55360.000000,43724.000000,14881.000000
3749.000000,55321.000000,43665.000000,14824.000000
3705.000000,55280.000000,43601.000000,14767.000000
3666.000000,55239.000000,43535.000000,14713.000000
3625.000000,55195.000000,43469.000000,14659.000000
3580.000000,55150.000000,43400.000000,14601.000000
3532.000000,55102.000000,43327.000000,14539.000000
3479.000000,55053.000000,43252.000000,14473.000000
3420.000000,55002.000000,43176.000000,14407.000000
3359.000000,54951.000000,43095.000000,14339.000000
3298.000000,54902.000000,43010.000000,14269.000000
3238.000000,54856.000000,42921.000000,14195.000000
3175.000000,54808.000000,42831.000000,14118.000000
3110.000000,54759.000000,42741.000000,14040.000000
3044.000000,54710.000000,42654.000000,13959.000000
2981.000000,54662.000000,42571.000000,13878.000000
2922.000000,54614.000000,42490.000000,13801.000000
2865.000000,54568.000000,42413.000000,13730.000000
2811.000000,54526.000000,42339.000000,13668.000000
2765.000000,54488.000000,42273.000000,13614.000000
2729.000000,54452.000000,42218.000000,13569.000000
2705.000000,54425.000000,42178.000000,13540.000000
2695.000000,54416.000000,42161.000000,13531.000000
2703.000000,54423.000000,42173.000000,13548.000000
2735.000000,54450.000000,42221.000000,13592.000000
2796.000000,54499.000000,42311.000000,13668.000000
2890.000000,54580.000000,42450.000000,13781.000000
3019.000000,54697.000000,42642.000000,13937.000000
3186.000000,54847.000000,42887.000000,14135.000000
3387.000000,55027.000000,43176.000000,14371.000000
3619.000000,55231.000000,43503.000000,14646.000000
3877.000000,55453.000000,43861.000000,14954.000000
4151.000000,55686.000000,44241.000000,15285.000000
4434.000000,55925.000000,44633.000000,15625.000000
4718.000000,56165.000000,45025.000000,15963.000000
4999.000000,56399.000000,45413.000000,16297.000000
5276.000000,56627.000000,45790.000000,16622.000000
5543.000000,56847.000000,46152.000000,16935.000000
5794.000000,57056.000000,46490.000000,17227.000000
6026.000000,57249.000000,46800.000000,17497.000000
6232.000000,57421.000000,47080.000000,17746.000000
6415.000000,57572.000000,47332.000000,17973.000000
6576.000000,57707.000000,47553.000000,18175.000000
6715.000000,57825.000000,47745.000000,18355.000000
6835.000000,57926.000000,47912.000000,18513.000000
6936.000000,58010.000000,48055.000000,18648.000000
7021.000000,58080.000000,48176.000000,18759.000000
7090.000000,58140.000000,48279.000000,18853.000000
7146.000000,58192.000000,48364.000000,18935.000000
7190.000000,58233.000000,48431.000000,19001.000000
7224.000000,58264.000000,48481.000000,19049.000000
7247.000000,58283.000000,48519.000000,19086.000000
7261.000000,58296.000000,48549.000000,19119.000000
7275.000000,58309.000000,48573.000000,19151.000000
7290.000000,58323.000000,48596.000000,19180.000000
7302.000000,58334.000000,48615.000000,19202.000000
7311.000000,58342.000000,48630.000000,19219.000000
7321.000000,58350.000000,48641.000000,19232.000000
7333.000000,58358.000000,48654.000000,19244.000000
7346.000000,58368.000000,48667.000000,19256.000000
7361.000000,58381.000000,48680.000000,19270.000000
7378.000000,58396.000000,48694.000000,19286.000000
7395.000000,58410.000000,48708.000000,19304.000000
7409.000000,58419.000000,48721.000000,19320.000000
7421.000000,58422.000000,48731.000000,19331.000000
7430.000000,58422.000000,48737.000000,19336.000000
7431.000000,58417.000000,48735.000000,19334.000000
7423.000000,58406.000000,48726.000000,19326.000000
7408.000000,58392.000000,48708.000000,19312.000000
7386.000000,58373.000000,48679.000000,19293.000000
7359.000000,58350.000000,48641.000000,19267.000000
7325.000000,58321.000000,48593.000000,19228.000000
7285.000000,58285.000000,48534.000000,19178.000000
7240.000000,58242.000000,48465.000000,19118.000000
7191.000000,58193.000000,48392.000000,19057.000000
7138.000000,58143.000000,48318.000000,18997.000000
7084.000000,58094.000000,48245.000000,18935.000000
7031.000000,58050.000000,48176.000000,18872.000000
6981.000000,58009.000000,48109.000000,18811.000000
6935.000000,57969.000000,48047.000000,18755.000000
6893.000000,57933.000000,47990.000000,18704.000000
6857.000000,57902.000000,47940.000000,18659.000000
6826.000000,57877.000000,47898.000000,18624.000000
6799.000000,57856.000000,47862.000000,18595.000000
6777.000000,57840.000000,47830.000000,18568.000000
6759.000000,57828.000000,47803.000000,18545.000000
6744.000000,57818.000000,47784.000000,18529.000000
6735.000000,57808.000000,47770.000000,18518.000000
6732.000000,57802.000000,47759.000000,18510.000000
6729.000000,57797.000000,47748.000000,18501.000000
6724.000000,57792.000000,47740.000000,18489.000000
6720.000000,57788.000000,47731.000000,18478.000000
6718.000000,57785.000000,47724.000000,18468.000000
6714.000000,57785.000000,47714.000000,18458.000000
6708.000000,57785.000000,47702.000000,18448.000000
6698.000000,57781.000000,47687.000000,18434.000000
6686.000000,57775.000000,47667.000000,18420.000000
6670.000000,57767.000000,47641.000000,18405.000000
6651.000000,57753.000000,47613.000000,18387.000000
6627.000000,57733.000000,47581.000000,18364.000000
6601.000000,57709.000000,47545.000000,18335.000000
6572.000000,57684.000000,47504.000000,18301.000000
6541.000000,57654.000000,47459.000000,18262.000000
6509.000000,57620.000000,47410.000000,18220.000000
6473.000000,57586.000000,47360.000000,18176.000000
6431.000000,57550.000000,47307.000000,18130.000000
6384.000000,57512.000000,47249.000000,18080.000000
6334.000000,57471.000000,47184.000000,18026.000000
6286.000000,57428.000000,47114.000000,17973.000000
6239.000000,57383.000000,47042.000000,17920.000000
6188.000000,57334.000000,46967.000000,17863.000000
6132.000000,57283.000000,46890.000000,17802.000000
6075.000000,57236.000000,46815.000000,17736.000000
6018.000000,57192.000000,46741.000000,17668.000000
5961.000000,57148.000000,46666.000000,17600.000000
5903.000000,57102.000000,46589.000000,17536.000000
5845.000000,57054.000000,46512.000000,17473.000000
5789.000000,57006.000000,46437.000000,17406.000000
5735.000000,56959.000000,46363.000000,17333.000000
5679.000000,56912.000000,46287.000000,17253.000000
5622.000000,56867.000000,46210.000000,17172.000000
5565.000000,56824.000000,46136.000000,17095.000000
5511.000000,56779.000000,46066.000000,17024.000000
5462.000000,56734.000000,45997.000000,16958.000000
5415.000000,56692.000000,45928.000000,16898.000000
5368.000000,56653.000000,45858.000000,16841.000000
5318.000000,56613.000000,45786.000000,16787.000000
5266.000000,56571.000000,45714.000000,16734.000000
5211.000000,56527.000000,45643.000000,16680.000000
5153.000000,56483.000000,45574.000000,16628.000000
5095.000000,56438.000000,45507.000000,16577.000000
5040.000000,56396.000000,45442.000000,16527.000000
4990.000000,56356.000000,45377.000000,16477.000000
4941.000000,56315.000000,45311.000000,16425.000000
4893.000000,56271.000000,45245.000000,16367.000000
4846.000000,56226.000000,45179.000000,16308.000000
4799.000000,56184.000000,45112.000000,16247.000000
4752.000000,56140.000000,45043.000000,16186.000000
4703.000000,56096.000000,44975.000000,16130.000000
4652.000000,56053.000000,44910.000000,16075.000000
4600.000000,56010.000000,44847.000000,16017.000000
4550.000000,55969.000000,44785.000000,15957.000000
4503.000000,55932.000000,44725.000000,15895.000000
4457.000000,55898.000000,44665.000000,15832.000000
4407.000000,55861.000000,44599.000000,15768.000000
4355.000000,55819.000000,44526.000000,15702.000000
4302.000000,55776.000000,44448.000000,15637.000000
4249.000000,55736.000000,44367.000000,15577.000000
4196.000000,55698.000000,44292.000000,15521.000000
4141.000000,55660.000000,44220.000000,15466.000000
4086.000000,55621.000000,44150.000000,15410.000000
4033.000000,55582.000000,44081.000000,15354.000000
3981.000000,55546.000000,44012.000000,15295.000000
3929.000000,55511.000000,43944.000000,15237.000000
3875.000000,55471.000000,43876.000000,15181.000000
3823.000000,55429.000000,43808.000000,15123.000000
3772.000000,55388.000000,43741.000000,15063.000000
3721.000000,55346.000000,43673.000000,15003.000000
3669.000000,55303.000000,43604.000000,14944.000000
3616.000000,55260.000000,43535.000000,14885.000000
3563.000000,55217.000000,43469.000000,14826.000000
3513.000000,55176.000000,43407.000000,14769.000000
3466.000000,55135.000000,43346.000000,14711.000000
3419.000000,55096.000000,43283.000000,14650.000000
3369.000000,55055.000000,43221.000000,14585.000000
3317.000000,55011.000000,43158.000000,14517.000000
3267.000000,54965.000000,43092.000000,14451.000000
3220.000000,54920.000000,43023.000000,14390.000000
3173.000000,54876.000000,42954.000000,14333.000000
3122.000000,54830.000000,42885.000000,14277.000000
3068.000000,54784.000000,42815.000000,14220.000000
3009.000000,54738.000000,42741.000000,14157.000000
2944.000000,54692.000000,42661.000000,14089.000000
2877.000000,54646.000000,42577.000000,14017.000000
2809.000000,54598.000000,42491.000000,13939.000000
2742.000000,54549.000000,42402.000000,13857.000000
2675.000000,54496.000000,42307.000000,13772.000000
2604.000000,54439.000000,42205.000000,13687.000000
2530.000000,54380.000000,42101.000000,13599.000000
2456.000000,54320.000000,41998.000000,13510.000000
2381.000000,54258.000000,41896.000000,13422.000000
2308.000000,54197.000000,41794.000000,13339.000000
2238.000000,54136.000000,41695.000000,13260.000000
2172.000000,54078.000000,41598.000000,13186.000000
2108.000000,54024.000000,41507.000000,13120.000000
2048.000000,53976.000000,41426.000000,13060.000000
1997.000000,53938.000000,41357.000000,13007.000000
1958.000000,53911.000000,41306.000000,12967.000000
1938.000000,53899.000000,41283.000000,12951.000000
1944.000000,53910.000000,41297.000000,12963.000000
1984.000000,53947.000000,41354.000000,13006.000000
2059.000000,54012.000000,41460.000000,13088.000000
2172.000000,54109.000000,41619.000000,13216.000000
2328.000000,54243.000000,41837.000000,13395.000000
2528.000000,54416.000000,42113.000000,13626.000000
2770.000000,54625.000000,42446.000000,13910.000000
3047.000000,54863.000000,42830.000000,14240.000000
3352.000000,55125.000000,43254.000000,14602.000000
3679.000000,55403.000000,43704.000000,14984.000000
4016.000000,55687.000000,44169.000000,15378.000000
4354.000000,55968.000000,44636.000000,15775.000000
4683.000000,56241.000000,45091.000000,16162.000000
4998.000000,56500.000000,45524.000000,16532.000000
5290.000000,56738.000000,45926.000000,16880.000000
5554.000000,56955.000000,46291.000000,17197.000000
5791.000000,57151.000000,46616.000000,17484.000000
6000.000000,57324.000000,46902.000000,17742.000000
6178.000000,57475.000000,47151.000000,17973.000000
6329.000000,57602.000000,47366.000000,18174.000000
6456.000000,57708.000000,47548.000000,18344.000000
6563.000000,57796.000000,47700.000000,18485.000000
6649.000000,57868.000000,47822.000000,18601.000000
6716.000000,57924.000000,47916.000000,18691.000000
6769.000000,57967.000000,47988.000000,18760.000000
6808.000000,58001.000000,48040.000000,18810.000000
6834.000000,58025.000000,48074.000000,18844.000000
6851.000000,58041.000000,48097.000000,18864.000000
6862.000000,58050.000000,48113.000000,18876.000000
6868.000000,58053.000000,48124.000000,18882.000000
6868.000000,58051.000000,48128.000000,18883.000000
6864.000000,58045.000000,48125.000000,18880.000000
6857.000000,58037.000000,48119.000000,18874.000000
6850.000000,58030.000000,48111.000000,18869.000000
6841.000000,58023.000000,48105.000000,18868.000000
6832.000000,58016.000000,48099.000000,18868.000000
6826.000000,58010.000000,48093.000000,18869.000000
6822.000000,58005.000000,48087.000000,18869.000000
6820.000000,58001.000000,48086.000000,18869.000000
6819.000000,57996.000000,48085.000000,18869.000000
6817.000000,57991.000000,48081.000000,18865.000000
6811.000000,57984.000000,48071.000000,18857.000000
6800.000000,57973.000000,48051.000000,18843.000000
6786.000000,57957.000000,48023.000000,18822.000000
6768.000000,57938.000000,47989.000000,18796.000000
6748.000000,57916.000000,47950.000000,18767.000000
6723.000000,57891.000000,47907.000000,18734.000000
6694.000000,57864.000000,47859.000000,18695.000000
6662.000000,57834.000000,47806.000000,18653.000000
6625.000000,57800.000000,47748.000000,18611.000000
6582.000000,57761.000000,47684.000000,18566.000000
6533.000000,57721.000000,47615.000000,18514.000000
6483.000000,57684.000000,47543.000000,18456.000000
6433.000000,57649.000000,47475.000000,18396.000000
6384.000000,57617.000000,47412.000000,18334.000000
6338.000000,57587.000000,47354.000000,18272.000000
6300.000000,57561.000000,47300.000000,18215.000000
6268.000000,57537.000000,47252.000000,18164.000000
6244.000000,57515.000000,47210.000000,18119.000000
6224.000000,57497.000000,47176.000000,18085.000000
6208.000000,57482.000000,47146.000000,18059.000000
6194.000000,57469.000000,47122.000000,18038.000000
6185.000000,57460.000000,47103.000000,18020.000000
6181.000000,57454.000000,47089.000000,18006.000000
6178.000000,57450.000000,47084.000000,18000.000000
6177.000000,57447.000000,47083.000000,17998.000000
6178.000000,57446.000000,47083.000000,17995.000000
6182.000000,57444.000000,47080.000000,17987.000000
6187.000000,57441.000000,47073.000000,17976.000000
6191.000000,57436.000000,47063.000000,17965.000000
6188.000000,57430.000000,47051.000000,17956.000000
6182.000000,57422.000000,47035.000000,17947.000000
6173.000000,57414.000000,47016.000000,17937.000000
6162.000000,57402.000000,46994.000000,17924.000000
6147.000000,57389.000000,46972.000000,17907.000000
6131.000000,57377.000000,46949.000000,17885.000000
6114.000000,57364.000000,46923.000000,17859.000000
6093.000000,57346.000000,46891.000000,17829.000000
6069.000000,57325.000000,46853.000000,17797.000000
6042.000000,57303.000000,46811.000000,17760.000000
6009.000000,57279.000000,46766.000000,17719.000000
5969.000000,57251.000000,46717.000000,17675.000000
5923.000000,57220.000000,46662.000000,17625.000000
5878.000000,57187.000000,46603.000000,17567.000000
5833.000000,57151.000000,46541.000000,17502.000000
5787.000000,57110.000000,46472.000000,17434.000000
5739.000000,57063.000000,46398.000000,17366.000000
5688.000000,57013.000000,46322.000000,17297.000000
5634.000000,56959.000000,46245.000000,17226.000000
5576.000000,56902.000000,46166.000000,17154.000000
5516.000000,56844.000000,46083.000000,17080.000000
5454.000000,56784.000000,45998.000000,17004.000000
5392.000000,56726.000000,45909.000000,16926.000000
5327.000000,56667.000000,45818.000000,16848.000000
5261.000000,56612.000000,45729.000000,16770.000000
5196.000000,56563.000000,45643.000000,16694.000000
5133.000000,56516.000000,45563.000000,16624.000000
5073.000000,56469.000000,45488.000000,16559.000000
5018.000000,56422.000000,45415.000000,16496.000000
4966.000000,56375.000000,45342.000000,16434.000000
4916.000000,56329.000000,45269.000000,16372.000000
4865.000000,56283.000000,45195.000000,16310.000000
4814.000000,56240.000000,45125.000000,16250.000000
4764.000000,56201.000000,45059.000000,16193.000000
4714.000000,56167.000000,44998.000000,16139.000000
4668.000000,56135.000000,44940.000000,16085.000000
4626.000000,56102.000000,44880.000000,16029.000000
4583.000000,56066.000000,44823.000000,15975.000000
4540.000000,56031.000000,44769.000000,15923.000000
4499.000000,55997.000000,44714.000000,15870.000000
4460.000000,55965.000000,44655.000000,15816.000000
4423.000000,55933.000000,44596.000000,15763.000000
4387.000000,55900.000000,44536.000000,15714.000000
4353.000000,55867.000000,44477.000000,15666.000000
4322.000000,55838.000000,44420.000000,15618.000000
4289.000000,55810.000000,44367.000000,15571.000000
4252.000000,55779.000000,44314.000000,15525.000000
4211.000000,55745.000000,44258.000000,15476.000000
4168.000000,55707.000000,44199.000000,15422.000000
4123.000000,55667.000000,44138.000000,15367.000000
4076.000000,55626.000000,44078.000000,15314.000000
4031.000000,55587.000000,44023.000000,15266.000000
3985.000000,55552.000000,43969.000000,15218.000000
3941.000000,55518.000000,43914.000000,15168.000000
3900.000000,55484.000000,43860.000000,15118.000000
3861.000000,55453.000000,43809.000000,15069.000000
3822.000000,55425.000000,43761.000000,15024.000000
3783.000000,55397.000000,43712.000000,14983.000000
3742.000000,55364.000000,43660.000000,14942.000000
3702.000000,55327.000000,43604.000000,14897.000000
3663.000000,55293.000000,43545.000000,14846.000000
3621.000000,55257.000000,43483.000000,14794.000000
3575.000000,55220.000000,43417.000000,14742.000000
3526.000000,55180.000000,43347.000000,14690.000000
3476.000000,55138.000000,43276.000000,14636.000000
3428.000000,55095.000000,43204.000000,14580.000000
3380.000000,55051.000000,43133.000000,14521.000000
3329.000000,55008.000000,43065.000000,14460.000000
3274.000000,54965.000000,42995.000000,14398.000000
3216.000000,54918.000000,42921.000000,14332.000000
3155.000000,54866.000000,42843.000000,14262.000000
3094.000000,54812.000000,42759.000000,14187.000000
3032.000000,54757.000000,42669.000000,14108.000000
2966.000000,54700.000000,42576.000000,14028.000000
2897.000000,54641.000000,42480.000000,13948.000000
2828.000000,54581.000000,42384.000000,13864.000000
2760.000000,54521.000000,42286.000000,13776.000000
2693.000000,54457.000000,42187.000000,13685.000000
2625.000000,54393.000000,42090.000000,13597.000000
2556.000000,54331.000000,41994.000000,13510.000000
2486.000000,54271.000000,41897.000000,13425.000000
2416.000000,54219.000000,41806.000000,13344.000000
2349.000000,54176.000000,41723.000000,13271.000000
2291.000000,54144.000000,41653.000000,13209.000000
2250.000000,54123.000000,41605.000000,13163.000000
2230.000000,54115.000000,41585.000000,13139.000000
2231.000000,54125.000000,41594.000000,13141.000000
2261.000000,54159.000000,41639.000000,13175.000000
2325.000000,54220.000000,41726.000000,13248.000000
2424.000000,54309.000000,41863.000000,13367.000000
2561.000000,54425.000000,42053.000000,13536.000000
2738.000000,54573.000000,42298.000000,13749.000000
2955.000000,54753.000000,42593.000000,14003.000000
3205.000000,54962.000000,42931.000000,14297.000000
3483.000000,55194.000000,43308.000000,14622.000000
3783.000000,55444.000000,43713.000000,14970.000000
4094.000000,55703.000000,44134.000000,15332.000000
4407.000000,55963.000000,44558.000000,15697.000000
4714.000000,56216.000000,44974.000000,16055.000000
5007.000000,56456.000000,45371.000000,16396.000000
5277.000000,56679.000000,45742.000000,16717.000000
5524.000000,56884.000000,46080.000000,17018.000000
5745.000000,57068.000000,46385.000000,17290.000000
5941.000000,57231.000000,46656.000000,17532.000000
6110.000000,57372.000000,46893.000000,17745.000000
6254.000000,57493.000000,47095.000000,17930.000000
6376.000000,57598.000000,47265.000000,18086.000000
6479.000000,57686.000000,47404.000000,18215.000000
6559.000000,57756.000000,47515.000000,18318.000000
6618.000000,57805.000000,47599.000000,18398.000000
6657.000000,57839.000000,47658.000000,18455.000000
6680.000000,57859.000000,47698.000000,18495.000000
6688.000000,57867.000000,47721.000000,18518.000000
6687.000000,57863.000000,47731.000000,18530.000000
6683.000000,57855.000000,47730.000000,18532.000000
6677.000000,57848.000000,47721.000000,18527.000000
6667.000000,57839.000000,47704.000000,18518.000000
6655.000000,57828.000000,47682.000000,18504.000000
6643.000000,57814.000000,47658.000000,18487.000000
6629.000000,57799.000000,47633.000000,18468.000000
6612.000000,57779.000000,47606.000000,18446.000000
6594.000000,57757.000000,47577.000000,18423.000000
6578.000000,57736.000000,47547.000000,18400.000000
6561.000000,57716.000000,47518.000000,18376.000000
6538.000000,57695.000000,47489.000000,18349.000000
6510.000000,57673.000000,47457.000000,18316.000000
6479.000000,57648.000000,47419.000000,18274.000000
6449.000000,57620.000000,47372.000000,18228.000000
6416.000000,57589.000000,47321.000000,18184.000000
6380.000000,57556.000000,47267.000000,18138.000000
6340.000000,57523.000000,47206.000000,18086.000000
6294.000000,57486.000000,47137.000000,18029.000000
6241.000000,57444.000000,47062.000000,17966.000000
6184.000000,57400.000000,46984.000000,17899.000000
6126.000000,57351.000000,46903.000000,17832.000000
6066.000000,57300.000000,46820.000000,17764.000000
6006.000000,57250.000000,46738.000000,17693.000000
5948.000000,57202.000000,46661.000000,17624.000000
5895.000000,57158.000000,46590.000000,17559.000000
5849.000000,57120.000000,46527.000000,17502.000000
5810.000000,57092.000000,46473.000000,17453.000000
5779.000000,57068.000000,46424.000000,17411.000000
5752.000000,57047.000000,46382.000000,17375.000000
5729.000000,57030.000000,46348.000000,17343.000000
5709.000000,57015.000000,46321.000000,17317.000000
5695.000000,57003.000000,46301.000000,17297.000000
5686.000000,56995.000000,46287.000000,17284.000000
5681.000000,56989.000000,46277.000000,17273.000000
5677.000000,56985.000000,46268.000000,17264.000000
5675.000000,56985.000000,46259.000000,17258.000000
5675.000000,56987.000000,46251.000000,17254.000000
5675.000000,56987.000000,46245.000000,17250.000000
5675.000000,56984.000000,46242.000000,17244.000000
5678.000000,56979.000000,46241.000000,17240.000000
5680.000000,56973.000000,46241.000000,17236.000000
5678.000000,56966.000000,46236.000000,17228.000000
5671.000000,56956.000000,46225.000000,17216.000000
5662.000000,56946.000000,46208.000000,17199.000000
5650.000000,56936.000000,46185.000000,17176.000000
5634.000000,56924.000000,46158.000000,17151.000000
5613.000000,56910.000000,46127.000000,17122.000000
5587.000000,56891.000000,46087.000000,17084.000000
5557.000000,56865.000000,46037.000000,17040.000000
5524.000000,56836.000000,45983.000000,16993.000000
5491.000000,56804.000000,45926.000000,16947.000000
5455.000000,56770.000000,45867.000000,16898.000000
5412.000000,56731.000000,45803.000000,16844.000000
5362.000000,56687.000000,45735.000000,16784.000000
5307.000000,56638.000000,45662.000000,16717.000000
5248.000000,56585.000000,45584.000000,16642.000000
5184.000000,56530.000000,45502.000000,16565.000000
5117.000000,56472.000000,45417.000000,16489.000000
5047.000000,56414.000000,45328.000000,16416.000000
4978.000000,56356.000000,45236.000000,16341.000000
4912.000000,56297.000000,45143.000000,16263.000000
4847.000000,56239.000000,45048.000000,16181.000000
4781.000000,56179.000000,44950.000000,16095.000000
4716.000000,56119.000000,44854.000000,16008.000000
4654.000000,56061.000000,44763.000000,15925.000000
4594.000000,56010.000000,44678.000000,15846.000000
4536.000000,55964.000000,44594.000000,15770.000000
4478.000000,55918.000000,44511.000000,15697.000000
4418.000000,55870.000000,44430.000000,15626.000000
4358.000000,55821.000000,44350.000000,15555.000000
4300.000000,55772.000000,44271.000000,15487.000000
4244.000000,55723.000000,44190.000000,15420.000000
4190.000000,55675.000000,44109.000000,15354.000000
4135.000000,55626.000000,44028.000000,15287.000000
4080.000000,55576.000000,43947.000000,15219.000000
4025.000000,55526.000000,43868.000000,15151.000000
3971.000000,55479.000000,43792.000000,15085.000000
3918.000000,55434.000000,43719.000000,15023.000000
3868.000000,55393.000000,43648.000000,14963.000000
3818.000000,55353.000000,43578.000000,14903.000000
3764.000000,55309.000000,43508.000000,14843.000000
3710.000000,55262.000000,43439.000000,14782.000000
3659.000000,55216.000000,43372.000000,14719.000000
3613.000000,55172.000000,43303.000000,14656.000000
3569.000000,55130.000000,43234.000000,14593.000000
3523.000000,55091.000000,43166.000000,14534.000000
3475.000000,55056.000000,43100.000000,14475.000000
3426.000000,55020.000000,43034.000000,14419.000000
3376.000000,54982.000000,42968.000000,14364.000000
3328.000000,54943.000000,42906.000000,14311.000000
3282.000000,54907.000000,42849.000000,14258.000000
3240.000000,54877.000000,42792.000000,14207.000000
3201.000000,54846.000000,42733.000000,14158.000000
3161.000000,54816.000000,42673.000000,14110.000000
3125.000000,54785.000000,42613.000000,14059.000000
3089.000000,54755.000000,42555.000000,14006.000000
3050.000000,54724.000000,42498.000000,13954.000000
3009.000000,54693.000000,42444.000000,13899.000000
2969.000000,54662.000000,42390.000000,13843.000000
2927.000000,54628.000000,42334.000000,13787.000000
2881.000000,54591.000000,42276.000000,13730.000000
2835.000000,54553.000000,42217.000000,13675.000000
2791.000000,54516.000000,42158.000000,13621.000000
2746.000000,54476.000000,42097.000000,13567.000000
2697.000000,54435.000000,42035.000000,13512.000000
2650.000000,54396.000000,41973.000000,13455.000000
2605.000000,54358.000000,41911.000000,13398.000000
2561.000000,54319.000000,41848.000000,13341.000000
2516.000000,54280.000000,41783.000000,13282.000000
2468.000000,54238.000000,41715.000000,13217.000000
2417.000000,54195.000000,41643.000000,13149.000000
2363.000000,54151.000000,41570.000000,13081.000000
2307.000000,54107.000000,41495.000000,13016.000000
2252.000000,54061.000000,41418.000000,12951.000000
2198.000000,54012.000000,41339.000000,12886.000000
2141.000000,53959.000000,41258.000000,12820.000000
2082.000000,53904.000000,41177.000000,12752.000000
2022.000000,53849.000000,41092.000000,12680.000000
1960.000000,53794.000000,41002.000000,12606.000000
1897.000000,53739.000000,40909.000000,12532.000000
1834.000000,53684.000000,40814.000000,12457.000000
1771.000000,53630.000000,40717.000000,12380.000000
1705.000000,53579.000000,40619.000000,12299.000000
1636.000000,53529.000000,40520.000000,12214.000000
1565.000000,53479.000000,40421.000000,12126.000000
1491.000000,53428.000000,40323.000000,12038.000000
1417.000000,53376.000000,40228.000000,11953.000000
1347.000000,53324.000000,40139.000000,11872.000000
1285.000000,53272.000000,40058.000000,11799.000000
1237.000000,53227.000000,39988.000000,11737.000000
1203.000000,53194.000000,39941.000000,11693.000000
1187.000000,53178.000000,39924.000000,11677.000000
1195.000000,53186.000000,39946.000000,11693.000000
1238.000000,53224.000000,40015.000000,11748.000000
1318.000000,53298.000000,40138.000000,11846.000000
1444.000000,53408.000000,40320.000000,11993.000000
1619.000000,53559.000000,40564.000000,12194.000000
1846.000000,53752.000000,40870.000000,12452.000000
2119.000000,53982.000000,41236.000000,12766.000000
2432.000000,54244.000000,41654.000000,13129.000000
2780.000000,54533.000000,42116.000000,13533.000000
3152.000000,54841.000000,42610.000000,13964.000000
3535.000000,55157.000000,43123.000000,14409.000000
3915.000000,55469.000000,43642.000000,14857.000000
4279.000000,55769.000000,44149.000000,15298.000000
4624.000000,56053.000000,44630.000000,15717.000000
4944.000000,56318.000000,45079.000000,16107.000000
5237.000000,56563.000000,45490.000000,16464.000000
5498.000000,56784.000000,45860.000000,16785.000000
5726.000000,56980.000000,46185.000000,17069.000000
5921.000000,57148.000000,46465.000000,17315.000000
6084.000000,57290.000000,46705.000000,17525.000000
6222.000000,57409.000000,46907.000000,17701.000000
6338.000000,57506.000000,47072.000000,17848.000000
6431.000000,57583.000000,47205.000000,17969.000000
6504.000000,57642.000000,47309.000000,18063.000000
6560.000000,57686.000000,47387.000000,18135.000000
6603.000000,57718.000000,47443.000000,18190.000000
6632.000000,57738.000000,47481.000000,18232.000000
6650.000000,57748.000000,47503.000000,18262.000000
6663.000000,57754.000000,47517.000000,18279.000000
6673.000000,57759.000000,47525.000000,18292.000000
6682.000000,57763.000000,47530.000000,18305.000000
6689.000000,57765.000000,47532.000000,18316.000000
6693.000000,57763.000000,47533.000000,18323.000000
6694.000000,57760.000000,47536.000000,18329.000000
6693.000000,57755.000000,47539.000000,18331.000000
6691.000000,57749.000000,47537.000000,18329.000000
6687.000000,57746.000000,47534.000000,18328.000000
6680.000000,57747.000000,47533.000000,18330.000000
6673.000000,57749.000000,47534.000000,18335.000000
6667.000000,57748.000000,47532.000000,18336.000000
6661.000000,57747.000000,47526.000000,18332.000000
6657.000000,57744.000000,47516.000000,18325.000000
6650.000000,57738.000000,47499.000000,18314.000000
6638.000000,57726.000000,47475.000000,18295.000000
6619.000000,57708.000000,47444.000000,18270.000000
6593.000000,57683.000000,47407.000000,18241.000000
6561.000000,57654.000000,47363.000000,18206.000000
6527.000000,57622.000000,47312.000000,18163.000000
6489.000000,57587.000000,47253.000000,18114.000000
6445.000000,57546.000000,47188.000000,18060.000000
6397.000000,57501.000000,47119.000000,18002.000000
6346.000000,57453.000000,47046.000000,17936.000000
6293.000000,57404.000000,46968.000000,17867.000000
6240.000000,57355.000000,46888.000000,17801.000000
6189.000000,57306.000000,46812.000000,17739.000000
6143.000000,57262.000000,46742.000000,17678.000000
6102.000000,57226.000000,46679.000000,17616.000000
6063.000000,57195.000000,46622.000000,17558.000000
6028.000000,57167.000000,46571.000000,17506.000000
5997.000000,57142.000000,46526.000000,17461.000000
5970.000000,57124.000000,46488.000000,17426.000000
5949.000000,57111.000000,46457.000000,17398.000000
5933.000000,57101.000000,46430.000000,17375.000000
5921.000000,57093.000000,46407.000000,17357.000000
5911.000000,57087.000000,46389.000000,17341.000000
5900.000000,57080.000000,46375.000000,17331.000000
5891.000000,57071.000000,46365.000000,17323.000000
5884.000000,57063.000000,46358.000000,17312.000000
5880.000000,57051.000000,46350.000000,17301.000000
5877.000000,57040.000000,46340.000000,17291.000000
5875.000000,57035.000000,46329.000000,17284.000000
5872.000000,57036.000000,46318.000000,17275.000000
5870.000000,57036.000000,46305.000000,17262.000000
5863.000000,57032.000000,46290.000000,17248.000000
5852.000000,57024.000000,46270.000000,17232.000000
5836.000000,57010.000000,46243.000000,17209.000000
5813.000000,56990.000000,46212.000000,17178.000000
5782.000000,56965.000000,46177.000000,17142.000000
5747.000000,56939.000000,46139.000000,17103.000000
5711.000000,56911.000000,46097.000000,17061.000000
5671.000000,56882.000000,46047.000000,17016.000000
5630.000000,56850.000000,45991.000000,16967.000000
5588.000000,56816.000000,45928.000000,16914.000000
5545.000000,56780.000000,45861.000000,16857.000000
5500.000000,56739.000000,45788.000000,16796.000000
5449.000000,56691.000000,45710.000000,16728.000000
5392.000000,56638.000000,45628.000000,16655.000000
5332.000000,56585.000000,45544.000000,16580.000000
5270.000000,56533.000000,45461.000000,16505.000000
5209.000000,56480.000000,45378.000000,16429.000000
5149.000000,56430.000000,45294.000000,16350.000000
5091.000000,56381.000000,45207.000000,16272.000000
5033.000000,56332.000000,45122.000000,16195.000000
4974.000000,56280.000000,45039.000000,16116.000000
4913.000000,56227.000000,44955.000000,16034.000000
4850.000000,56174.000000,44870.000000,15950.000000
4785.000000,56120.000000,44784.000000,15871.000000
4719.000000,56063.000000,44696.000000,15798.000000
4657.000000,56008.000000,44609.000000,15729.000000
4600.000000,55956.000000,44527.000000,15664.000000
4543.000000,55906.000000,44451.000000,15602.000000
4486.000000,55858.000000,44378.000000,15539.000000
4430.000000,55815.000000,44306.000000,15472.000000
4377.000000,55775.000000,44236.000000,15402.000000
4325.000000,55735.000000,44166.000000,15333.000000
4272.000000,55694.000000,44094.000000,15268.000000
4221.000000,55653.000000,44020.000000,15204.000000
4171.000000,55611.000000,43945.000000,15138.000000
4121.000000,55569.000000,43870.000000,15070.000000
4073.000000,55527.000000,43795.000000,15003.000000
4027.000000,55485.000000,43723.000000,14940.000000
3984.000000,55446.000000,43656.000000,14883.000000
3939.000000,55407.000000,43591.000000,14829.000000
3892.000000,55368.000000,43525.000000,14773.000000
3846.000000,55330.000000,43457.000000,14718.000000
3802.000000,55293.000000,43390.000000,14664.000000
3757.000000,55255.000000,43325.000000,14607.000000
3710.000000,55217.000000,43262.000000,14547.000000
3661.000000,55181.000000,43199.000000,14486.000000
3613.000000,55146.000000,43135.000000,14423.000000
3564.000000,55110.000000,43070.000000,14358.000000
3512.000000,55071.000000,43001.000000,14295.000000
3458.000000,55030.000000,42930.000000,14232.000000
3406.000000,54987.000000,42859.000000,14169.000000
3353.000000,54940.000000,42788.000000,14107.000000
3302.000000,54894.000000,42719.000000,14045.000000
3255.000000,54850.000000,42648.000000,13985.000000
3209.000000,54806.000000,42579.000000,13925.000000
3163.000000,54760.000000,42512.000000,13867.000000
3117.000000,54715.000000,42446.000000,13809.000000
3072.000000,54671.000000,42381.000000,13753.000000
3025.000000,54629.000000,42316.000000,13699.000000
2977.000000,54588.000000,42249.000000,13644.000000
2929.000000,54548.000000,42183.000000,13586.000000
2882.000000,54508.000000,42119.000000,13526.000000
2830.000000,54465.000000,42052.000000,13466.000000
2773.000000,54419.000000,41982.000000,13404.000000
2716.000000,54372.000000,41909.000000,13343.000000
2661.000000,54325.000000,41833.000000,13280.000000
2609.000000,54275.000000,41758.000000,13215.000000
2555.000000,54226.000000,41683.000000,13148.000000
2498.000000,54178.000000,41609.000000,13078.000000
2440.000000,54132.000000,41532.000000,13003.000000
2380.000000,54084.000000,41451.000000,12925.000000
2317.000000,54035.000000,41366.000000,12847.000000
2256.000000,53986.000000,41279.000000,12774.000000
2197.000000,53938.000000,41193.000000,12705.000000
2134.000000,53887.000000,41105.000000,12635.000000
2066.000000,53832.000000,41015.000000,12561.000000
1997.000000,53775.000000,40922.000000,12484.000000
1929.000000,53719.000000,40827.000000,12408.000000
1860.000000,53662.000000,40732.000000,12331.000000
1787.000000,53603.000000,40635.000000,12251.000000
1715.000000,53544.000000,40538.000000,12170.000000
1646.000000,53487.000000,40441.000000,12089.000000
1578.000000,53430.000000,40345.000000,12009.000000
1512.000000,53374.000000,40251.000000,11928.000000
1448.000000,53322.000000,40161.000000,11850.000000
1386.000000,53274.000000,40081.000000,11781.000000
1328.000000,53231.000000,40013.000000,11717.000000
1281.000000,53198.000000,39963.000000,11660.000000
1256.000000,53180.000000,39935.000000,11622.000000
1257.000000,53182.000000,39937.000000,11615.000000
1288.000000,53208.000000,39979.000000,11645.000000
1355.000000,53266.000000,40070.000000,11718.000000
1462.000000,53360.000000,40219.000000,11841.000000
1614.000000,53492.000000,40427.000000,12018.000000
1810.000000,53662.000000,40698.000000,12252.000000
2054.000000,53871.000000,41033.000000,12539.000000
2342.000000,54116.000000,41428.000000,12876.000000
2669.000000,54389.000000,41875.000000,13257.000000
3025.000000,54684.000000,42360.000000,13670.000000
3398.000000,54992.000000,42868.000000,14102.000000
3776.000000,55306.000000,43380.000000,14544.000000
4147.000000,55613.000000,43882.000000,14983.000000
4499.000000,55907.000000,44364.000000,15408.000000
4828.000000,56182.000000,44815.000000,15806.000000
5131.000000,56435.000000,45229.000000,16171.000000
5406.000000,56665.000000,45605.000000,16502.000000
5651.000000,56868.000000,45944.000000,16799.000000
5867.000000,57045.000000,46242.000000,17059.000000
6053.000000,57198.000000,46498.000000,17285.000000
6209.000000,57330.000000,46716.000000,17478.000000
6338.000000,57441.000000,46899.000000,17638.000000
6442.000000,57532.000000,47049.000000,17770.000000
6524.000000,57606.000000,47171.000000,17878.000000
6588.000000,57662.000000,47269.000000,17967.000000
6636.000000,57702.000000,47343.000000,18039.000000
6672.000000,57731.000000,47397.000000,18095.000000
6694.000000,57748.000000,47432.000000,18136.000000
6705.000000,57756.000000,47452.000000,18165.000000
6710.000000,57757.000000,47462.000000,18183.000000
6713.000000,57754.000000,47463.000000,18191.000000
6715.000000,57751.000000,47459.000000,18190.000000
6713.000000,57748.000000,47453.000000,18182.000000
6709.000000,57740.000000,47445.000000,18172.000000
6707.000000,57729.000000,47434.000000,18160.000000
6706.000000,57714.000000,47424.000000,18152.000000
6701.000000,57699.000000,47417.000000,18146.000000
6693.000000,57686.000000,47408.000000,18139.000000
6687.000000,57678.000000,47398.000000,18129.000000
6681.000000,57674.000000,47388.000000,18121.000000
6674.000000,57670.000000,47381.000000,18115.000000
6664.000000,57663.000000,47371.000000,18109.000000
6650.000000,57654.000000,47355.000000,18098.000000
6631.000000,57644.000000,47331.000000,18083.000000
6607.000000,57627.000000,47299.000000,18059.000000
6575.000000,57606.000000,47258.000000,18024.000000
6538.000000,57580.000000,47211.000000,17980.000000
6498.000000,57549.000000,47158.000000,17929.000000
6456.000000,57513.000000,47098.000000,17873.000000
6413.000000,57474.000000,47030.000000,17814.000000
6368.000000,57431.000000,46957.000000,17752.000000
6318.000000,57387.000000,46880.000000,17688.000000
6264.000000,57342.000000,46801.000000,17622.000000
6208.000000,57297.000000,46725.000000,17557.000000
6154.000000,57254.000000,46652.000000,17492.000000
6102.000000,57213.000000,46584.000000,17432.000000
6051.000000,57174.000000,46520.000000,17375.000000
6001.000000,57135.000000,46461.000000,17320.000000
5952.000000,57099.000000,46406.000000,17270.000000
5907.000000,57066.000000,46357.000000,17226.000000
5866.000000,57036.000000,46311.000000,17187.000000
5829.000000,57008.000000,46267.000000,17150.000000
5798.000000,56983.000000,46224.000000,17119.000000
5773.000000,56961.000000,46186.000000,17095.000000
5754.000000,56943.000000,46156.000000,17077.000000
5740.000000,56931.000000,46130.000000,17061.000000
5729.000000,56922.000000,46108.000000,17046.000000
5720.000000,56913.000000,46089.000000,17034.000000
5711.000000,56905.000000,46070.000000,17024.000000
5700.000000,56896.000000,46051.000000,17015.000000
5688.000000,56884.000000,46034.000000,17006.000000
5674.000000,56869.000000,46016.000000,16992.000000
5653.000000,56852.000000,45994.000000,16968.000000
5627.000000,56832.000000,45966.000000,16936.000000
5598.000000,56811.000000,45937.000000,16904.000000
5569.000000,56786.000000,45908.000000,16875.000000
5539.000000,56757.000000,45874.000000,16846.000000
5509.000000,56727.000000,45832.000000,16811.000000
5476.000000,56695.000000,45784.000000,16770.000000
5438.000000,56660.000000,45730.000000,16721.000000
5398.000000,56622.000000,45671.000000,16663.000000
5357.000000,56583.000000,45607.000000,16600.000000
5312.000000,56541.000000,45535.000000,16532.000000
5259.000000,56495.000000,45459.000000,16461.000000
5203.000000,56445.000000,45379.000000,16388.000000
5144.000000,56395.000000,45294.000000,16310.000000
5082.000000,56342.000000,45205.000000,16229.000000
5013.000000,56283.000000,45110.000000,16146.000000
4939.000000,56224.000000,45012.000000,16065.000000
4866.000000,56167.000000,44914.000000,15986.000000
4793.000000,56111.000000,44818.000000,15906.000000
4720.000000,56055.000000,44721.000000,15826.000000
4647.000000,55998.000000,44622.000000,15744.000000
4575.000000,55940.000000,44522.000000,15663.000000
4504.000000,55881.000000,44424.000000,15583.000000
4432.000000,55822.000000,44329.000000,15503.000000
4359.000000,55761.000000,44234.000000,15421.000000
4288.000000,55700.000000,44138.000000,15337.000000
4214.000000,55640.000000,44040.000000,15253.000000
4136.000000,55581.000000,43941.000000,15171.000000
4059.000000,55522.000000,43841.000000,15088.000000
3984.000000,55464.000000,43743.000000,15005.000000
3909.000000,55406.000000,43645.000000,14924.000000
3837.000000,55349.000000,43548.000000,14844.000000
3769.000000,55295.000000,43453.000000,14767.000000
3704.000000,55242.000000,43360.000000,14692.000000
3640.000000,55189.000000,43269.000000,14620.000000
3576.000000,55138.000000,43182.000000,14552.000000
3514.000000,55089.000000,43102.000000,14488.000000
3457.000000,55043.000000,43024.000000,14423.000000
3401.000000,54994.000000,42947.000000,14358.000000
3345.000000,54943.000000,42869.000000,14291.000000
3287.000000,54893.000000,42789.000000,14223.000000
3229.000000,54844.000000,42712.000000,14157.000000
3172.000000,54794.000000,42637.000000,14091.000000
3115.000000,54747.000000,42562.000000,14024.000000
3058.000000,54704.000000,42485.000000,13958.000000
3004.000000,54664.000000,42408.000000,13895.000000
2951.000000,54621.000000,42332.000000,13834.000000
2900.000000,54576.000000,42258.000000,13772.000000
2852.000000,54535.000000,42187.000000,13709.000000
2804.000000,54496.000000,42117.000000,13648.000000
2756.000000,54457.000000,42048.000000,13589.000000
2704.000000,54419.000000,41980.000000,13529.000000
2652.000000,54381.000000,41912.000000,13469.000000
2602.000000,54342.000000,41845.000000,13410.000000
2551.000000,54300.000000,41776.000000,13351.000000
2496.000000,54257.000000,41705.000000,13288.000000
2439.000000,54217.000000,41633.000000,13220.000000
2383.000000,54180.000000,41563.000000,13151.000000
2329.000000,54143.000000,41494.000000,13086.000000
2279.000000,54105.000000,41423.000000,13025.000000
2229.000000,54063.000000,41353.000000,12967.000000
2178.000000,54019.000000,41286.000000,12910.000000
2124.000000,53979.000000,41221.000000,12850.000000
2067.000000,53939.000000,41155.000000,12784.000000
2007.000000,53897.000000,41087.000000,12715.000000
1945.000000,53849.000000,41016.000000,12647.000000
1882.000000,53798.000000,40940.000000,12579.000000
1820.000000,53748.000000,40862.000000,12512.000000
1760.000000,53699.000000,40782.000000,12447.000000
1699.000000,53651.000000,40700.000000,12382.000000
1637.000000,53602.000000,40616.000000,12315.000000
1574.000000,53551.000000,40529.000000,12243.000000
1506.000000,53496.000000,40439.000000,12165.000000
1433.000000,53439.000000,40347.000000,12080.000000
1357.000000,53381.000000,40253.000000,11992.000000
1281.000000,53324.000000,40157.000000,11904.000000
1206.000000,53265.000000,40058.000000,11818.000000
1128.000000,53201.000000,39958.000000,11734.000000
1049.000000,53137.000000,39856.000000,11650.000000
968.000000,53070.000000,39749.000000,11566.000000
884.000000,53001.000000,39638.000000,11479.000000
796.000000,52932.000000,39527.000000,11388.000000
706.000000,52863.000000,39413.000000,11291.000000
619.000000,52797.000000,39298.000000,11191.000000
533.000000,52734.000000,39184.000000,11093.000000
450.000000,52673.000000,39079.000000,11003.000000
377.000000,52618.000000,38991.000000,10926.000000
323.000000,52572.000000,38926.000000,10869.000000
289.000000,52545.000000,38890.000000,10837.000000
278.000000,52540.000000,38887.000000,10834.000000
299.000000,52563.000000,38928.000000,10865.000000
361.000000,52620.000000,39024.000000,10938.000000
469.000000,52713.000000,39180.000000,11065.000000
624.000000,52846.000000,39398.000000,11252.000000
830.000000,53020.000000,39683.000000,11497.000000
1086.000000,53234.000000,40036.000000,11798.000000
1388.000000,53487.000000,40454.000000,12151.000000
1730.000000,53774.000000,40928.000000,12550.000000
2104.000000,54090.000000,41443.000000,12987.000000
2502.000000,54424.000000,41985.000000,13453.000000
2909.000000,54764.000000,42539.000000,13933.000000
3312.000000,55101.000000,43091.000000,14410.000000
3697.000000,55425.000000,43623.000000,14870.000000
4061.000000,55729.000000,44121.000000,15303.000000
4396.000000,56005.000000,44577.000000,15704.000000
4695.000000,56251.000000,44984.000000,16065.000000
4954.000000,56463.000000,45339.000000,16379.000000
5174.000000,56645.000000,45642.000000,16646.000000
5356.000000,56799.000000,45895.000000,16869.000000
5504.000000,56929.000000,46103.000000,17053.000000
5623.000000,57036.000000,46271.000000,17204.000000
5716.000000,57121.000000,46404.000000,17326.000000
5785.000000,57183.000000,46505.000000,17425.000000
5835.000000,57225.000000,46574.000000,17498.000000
5870.000000,57250.000000,46616.000000,17547.000000
5891.000000,57263.000000,46640.000000,17576.000000
5899.000000,57265.000000,46652.000000,17588.000000
5898.000000,57256.000000,46652.000000,17585.000000
5887.000000,57239.000000,46637.000000,17573.000000
5868.000000,57217.000000,46611.000000,17558.000000
5842.000000,57191.000000,46578.000000,17538.000000
5812.000000,57165.000000,46544.000000,17515.000000
5780.000000,57141.000000,46511.000000,17491.000000
5750.000000,57121.000000,46475.000000,17466.000000
5719.000000,57101.000000,46438.000000,17441.000000
5690.000000,57081.000000,46400.000000,17416.000000
5663.000000,57060.000000,46360.000000,17387.000000
5638.000000,57039.000000,46322.000000,17353.000000
5612.000000,57016.000000,46285.000000,17321.000000
5582.000000,56990.000000,46243.000000,17290.000000
5550.000000,56962.000000,46198.000000,17254.000000
5514.000000,56932.000000,46150.000000,17215.000000
5476.000000,56900.000000,46095.000000,17171.000000
5435.000000,56867.000000,46033.000000,17123.000000
5388.000000,56831.000000,45965.000000,17068.000000
5333.000000,56787.000000,45893.000000,17005.000000
5274.000000,56737.000000,45816.000000,16937.000000
5214.000000,56685.000000,45734.000000,16863.000000
5153.000000,56633.000000,45650.000000,16785.000000
5090.000000,56582.000000,45567.000000,16708.000000
5026.000000,56529.000000,45485.000000,16633.000000
4962.000000,56478.000000,45408.000000,16562.000000
4901.000000,56433.000000,45337.000000,16498.000000
4845.000000,56392.000000,45272.000000,16440.000000
4794.000000,56355.000000,45212.000000,16385.000000
4751.000000,56324.000000,45155.000000,16334.000000
4716.000000,56295.000000,45103.000000,16290.000000
4689.000000,56270.000000,45056.000000,16257.000000
4673.000000,56252.000000,45018.000000,16231.000000
4665.000000,56239.000000,44994.000000,16214.000000
4662.000000,56232.000000,44982.000000,16204.000000
4662.000000,56230.000000,44979.000000,16200.000000
4663.000000,56230.000000,44980.000000,16202.000000
4668.000000,56234.000000,44987.000000,16207.000000
4679.000000,56240.000000,45000.000000,16215.000000
4690.000000,56247.000000,45015.000000,16225.000000
4700.000000,56255.000000,45030.000000,16235.000000
4709.000000,56265.000000,45044.000000,16245.000000
4717.000000,56275.000000,45055.000000,16255.000000
4721.000000,56285.000000,45061.000000,16263.000000
4717.000000,56291.000000,45061.000000,16264.000000
4707.000000,56291.000000,45054.000000,16256.000000
4692.000000,56287.000000,45041.000000,16241.000000
4671.000000,56276.000000,45020.000000,16220.000000
4645.000000,56260.000000,44991.000000,16191.000000
4613.000000,56238.000000,44954.000000,16156.000000
4576.000000,56211.000000,44904.000000,16112.000000
4533.000000,56177.000000,44845.000000,16062.000000
4483.000000,56140.000000,44779.000000,16006.000000
4429.000000,56100.000000,44708.000000,15942.000000
4371.000000,56057.000000,44630.000000,15875.000000
4307.000000,56008.000000,44549.000000,15807.000000
4240.000000,55953.000000,44462.000000,15738.000000
4171.000000,55893.000000,44370.000000,15665.000000
4098.000000,55827.000000,44272.000000,15589.000000
4023.000000,55757.000000,44170.000000,15508.000000
3946.000000,55687.000000,44065.000000,15422.000000
3871.000000,55621.000000,43959.000000,15331.000000
3794.000000,55556.000000,43855.000000,15237.000000
3715.000000,55492.000000,43752.000000,15143.000000
3638.000000,55432.000000,43651.000000,15051.000000
3565.000000,55377.000000,43551.000000,14964.000000
3494.000000,55324.000000,43453.000000,14883.000000
3423.000000,55272.000000,43355.000000,14805.000000
3354.000000,55217.000000,43258.000000,14727.000000
3288.000000,55161.000000,43161.000000,14650.000000
3220.000000,55105.000000,43065.000000,14572.000000
3151.000000,55048.000000,42971.000000,14490.000000
3082.000000,54991.000000,42878.000000,14407.000000
3015.000000,54934.000000,42786.000000,14326.000000
2952.000000,54878.000000,42696.000000,14251.000000
2894.000000,54829.000000,42612.000000,14185.000000
2841.000000,54784.000000,42533.000000,14122.000000
2791.000000,54741.000000,42460.000000,14058.000000
2741.000000,54697.000000,42392.000000,13993.000000
2687.000000,54653.000000,42327.000000,13927.000000
2632.000000,54609.000000,42261.000000,13861.000000
2582.000000,54569.000000,42197.000000,13799.000000
2537.000000,54530.000000,42135.000000,13741.000000
2494.000000,54491.000000,42076.000000,13685.000000
2452.000000,54455.000000,42018.000000,13631.000000
2411.000000,54420.000000,41959.000000,13578.000000
2370.000000,54384.000000,41900.000000,13530.000000
2328.000000,54346.000000,41840.000000,13486.000000
2285.000000,54308.000000,41780.000000,13445.000000
2243.000000,54274.000000,41721.000000,13404.000000
2203.000000,54241.000000,41665.000000,13364.000000
2165.000000,54209.000000,41610.000000,13321.000000
2131.000000,54178.000000,41557.000000,13273.000000
2098.000000,54148.000000,41503.000000,13222.000000
2062.000000,54118.000000,41451.000000,13172.000000
2023.000000,54089.000000,41400.000000,13124.000000
1985.000000,54061.000000,41347.000000,13076.000000
1947.000000,54032.000000,41292.000000,13028.000000
1908.000000,53999.000000,41235.000000,12979.000000
1870.000000,53962.000000,41175.000000,12932.000000
1831.000000,53923.000000,41113.000000,12887.000000
1791.000000,53885.000000,41051.000000,12840.000000
1749.000000,53851.000000,40992.000000,12788.000000
1707.000000,53820.000000,40933.000000,12731.000000
1664.000000,53787.000000,40871.000000,12673.000000
1616.000000,53747.000000,40805.000000,12615.000000
1565.000000,53704.000000,40737.000000,12557.000000
1513.000000,53660.000000,40667.000000,12495.000000
1459.000000,53618.000000,40592.000000,12432.000000
1401.000000,53577.000000,40514.000000,12368.000000
1337.000000,53531.000000,40433.000000,12297.000000
1272.000000,53479.000000,40347.000000,12219.000000
1206.000000,53423.000000,40257.000000,12137.000000
1141.000000,53365.000000,40167.000000,12054.000000
1076.000000,53305.000000,40075.000000,11970.000000
1012.000000,53245.000000,39980.000000,11887.000000
947.000000,53185.000000,39885.000000,11805.000000
882.000000,53125.000000,39791.000000,11726.000000
816.000000,53067.000000,39699.000000,11648.000000
751.000000,53011.000000,39609.000000,11571.000000
687.000000,52959.000000,39526.000000,11494.000000
628.000000,52915.000000,39454.000000,11421.000000
578.000000,52881.000000,39398.000000,11361.000000
545.000000,52862.000000,39363.000000,11322.000000
532.000000,52861.000000,39356.000000,11311.000000
549.000000,52881.000000,39384.000000,11334.000000
599.000000,52928.000000,39456.000000,11395.000000
688.000000,53010.000000,39577.000000,11499.000000
818.000000,53129.000000,39756.000000,11649.000000
993.000000,53284.000000,39999.000000,11850.000000
1214.000000,53476.000000,40306.000000,12104.000000
1479.000000,53703.000000,40672.000000,12413.000000
1783.000000,53958.000000,41089.000000,12770.000000
2117.000000,54237.000000,41548.000000,13163.000000
2475.000000,54532.000000,42036.000000,13584.000000
2849.000000,54836.000000,42538.000000,14021.000000
3226.000000,55138.000000,43038.000000,14462.000000
3590.000000,55431.000000,43526.000000,14893.000000
3933.000000,55710.000000,43990.000000,15305.000000
4251.000000,55970.000000,44420.000000,15687.000000
4541.000000,56206.000000,44809.000000,16034.000000
4797.000000,56415.000000,45154.000000,16340.000000
5019.000000,56598.000000,45454.000000,16606.000000
5206.000000,56753.000000,45708.000000,16832.000000
5358.000000,56880.000000,45918.000000,17018.000000
5475.000000,56979.000000,46086.000000,17168.000000
5563.000000,57055.000000,46217.000000,17287.000000
5625.000000,57113.000000,46318.000000,17378.000000
5665.000000,57151.000000,46395.000000,17445.000000
5689.000000,57173.000000,46444.000000,17490.000000
5703.000000,57182.000000,46470.000000,17516.000000
5710.000000,57180.000000,46478.000000,17528.000000
5705.000000,57169.000000,46471.000000,17527.000000
5691.000000,57155.000000,46452.000000,17519.000000
5673.000000,57137.000000,46422.000000,17503.000000
5650.000000,57114.000000,46381.000000,17478.000000
5621.000000,57081.000000,46331.000000,17444.000000
5587.000000,57044.000000,46278.000000,17403.000000
5550.000000,57007.000000,46222.000000,17354.000000
5510.000000,56969.000000,46167.000000,17302.000000
5470.000000,56929.000000,46113.000000,17248.000000
5430.000000,56890.000000,46058.000000,17192.000000
5393.000000,56854.000000,46002.000000,17135.000000
5358.000000,56820.000000,45945.000000,17081.000000
5322.000000,56788.000000,45888.000000,17029.000000
5281.000000,56756.000000,45829.000000,16974.000000
5233.000000,56719.000000,45765.000000,16911.000000
5181.000000,56677.000000,45695.000000,16844.000000
5124.000000,56629.000000,45620.000000,16775.000000
5064.000000,56579.000000,45538.000000,16705.000000
5002.000000,56528.000000,45452.000000,16635.000000
4941.000000,56477.000000,45366.000000,16567.000000
4880.000000,56428.000000,45279.000000,16501.000000
4820.000000,56380.000000,45191.000000,16435.000000
4765.000000,56336.000000,45107.000000,16369.000000
4711.000000,56295.000000,45028.000000,16306.000000
4662.000000,56256.000000,44957.000000,16245.000000
4618.000000,56219.000000,44894.000000,16190.000000
4578.000000,56186.000000,44840.000000,16143.000000
4540.000000,56157.000000,44794.000000,16105.000000
4509.000000,56133.000000,44760.000000,16074.000000
4487.000000,56116.000000,44736.000000,16049.000000
4477.000000,56106.000000,44723.000000,16033.000000
4476.000000,56101.000000,44717.000000,16026.000000
4479.000000,56100.000000,44714.000000,16024.000000
4485.000000,56104.000000,44714.000000,16025.000000
4494.000000,56113.000000,44714.000000,16026.000000
4505.000000,56124.000000,44718.000000,16031.000000
4518.000000,56137.000000,44725.000000,16039.000000
4534.000000,56150.000000,44732.000000,16046.000000
4550.000000,56162.000000,44739.000000,16048.000000
4560.000000,56171.000000,44745.000000,16050.000000
4563.000000,56175.000000,44748.000000,16050.000000
4561.000000,56175.000000,44748.000000,16047.000000
4557.000000,56171.000000,44743.000000,16043.000000
4547.000000,56163.000000,44735.000000,16037.000000
4535.000000,56151.000000,44723.000000,16025.000000
4521.000000,56135.000000,44705.000000,16003.000000
4505.000000,56116.000000,44679.000000,15973.000000
4483.000000,56094.000000,44648.000000,15938.000000
4452.000000,56065.000000,44609.000000,15897.000000
4415.000000,56030.000000,44563.000000,15850.000000
4375.000000,55994.000000,44511.000000,15801.000000
4330.000000,55958.000000,44452.000000,15749.000000
4282.000000,55919.000000,44386.000000,15695.000000
4231.000000,55878.000000,44315.000000,15640.000000
4177.000000,55836.000000,44241.000000,15579.000000
4117.000000,55790.000000,44162.000000,15513.000000
4054.000000,55740.000000,44078.000000,15441.000000
3989.000000,55688.000000,43989.000000,15361.000000
3925.000000,55634.000000,43898.000000,15278.000000
3859.000000,55574.000000,43802.000000,15193.000000
3790.000000,55511.000000,43704.000000,15109.000000
3722.000000,55449.000000,43606.000000,15026.000000
3655.000000,55387.000000,43509.000000,14945.000000
3587.000000,55327.000000,43415.000000,14866.000000
3521.000000,55269.000000,43321.000000,14789.000000
3458.000000,55215.000000,43230.000000,14713.000000
3396.000000,55162.000000,43141.000000,14639.000000
3332.000000,55111.000000,43054.000000,14570.000000
3269.000000,55062.000000,42969.000000,14498.000000
3207.000000,55016.000000,42886.000000,14423.000000
3146.000000,54971.000000,42803.000000,14348.000000
3083.000000,54925.000000,42720.000000,14272.000000
3020.000000,54878.000000,42639.000000,14194.000000
2959.000000,54832.000000,42560.000000,14117.000000
2903.000000,54784.000000,42483.000000,14043.000000
2853.000000,54736.000000,42409.000000,13970.000000
2807.000000,54689.000000,42339.000000,13899.000000
2764.000000,54646.000000,42272.000000,13829.000000
2718.000000,54603.000000,42206.000000,13763.000000
2670.000000,54561.000000,42143.000000,13702.000000
2621.000000,54521.000000,42082.000000,13647.000000
2574.000000,54483.000000,42020.000000,13597.000000
2529.000000,54446.000000,41959.000000,13551.000000
2485.000000,54411.000000,41900.000000,13507.000000
2445.000000,54379.000000,41845.000000,13460.000000
2410.000000,54351.000000,41795.000000,13413.000000
2378.000000,54323.000000,41748.000000,13365.000000
2343.000000,54297.000000,41701.000000,13317.000000
2309.000000,54273.000000,41653.000000,13270.000000
2275.000000,54249.000000,41603.000000,13224.000000
2240.000000,54222.000000,41553.000000,13176.000000
2206.000000,54194.000000,41502.000000,13129.000000
2172.000000,54164.000000,41449.000000,13085.000000
2138.000000,54133.000000,41397.000000,13044.000000
2104.000000,54100.000000,41345.000000,13003.000000
2072.000000,54069.000000,41292.000000,12961.000000
2042.000000,54038.000000,41238.000000,12917.000000
2010.000000,54008.000000,41186.000000,12872.000000
1974.000000,53979.000000,41135.000000,12827.000000
1936.000000,53949.000000,41085.000000,12781.000000
1898.000000,53915.000000,41032.000000,12733.000000
1860.000000,53880.000000,40976.000000,12679.000000
1820.000000,53844.000000,40919.000000,12623.000000
1780.000000,53807.000000,40864.000000,12566.000000
1737.000000,53768.000000,40808.000000,12507.000000
1691.000000,53730.000000,40749.000000,12444.000000
1642.000000,53692.000000,40687.000000,12381.000000
1591.000000,53653.000000,40622.000000,12319.000000
1539.000000,53613.000000,40553.000000,12254.000000
1488.000000,53570.000000,40479.000000,12185.000000
1437.000000,53526.000000,40402.000000,12112.000000
1386.000000,53479.000000,40325.000000,12039.000000
1334.000000,53431.000000,40245.000000,11966.000000
1278.000000,53382.000000,40159.000000,11894.000000
1219.000000,53329.000000,40069.000000,11824.000000
1159.000000,53277.000000,39978.000000,11756.000000
1101.000000,53229.000000,39892.000000,11690.000000
1045.000000,53185.000000,39813.000000,11628.000000
993.000000,53146.000000,39745.000000,11574.000000
952.000000,53117.000000,39697.000000,11530.000000
928.000000,53104.000000,39672.000000,11505.000000
927.000000,53110.000000,39678.000000,11504.000000
955.000000,53140.000000,39722.000000,11537.000000
1017.000000,53199.000000,39812.000000,11609.000000
1121.000000,53288.000000,39955.000000,11726.000000
1265.000000,53409.000000,40156.000000,11895.000000
1450.000000,53565.000000,40414.000000,12117.000000
1679.000000,53757.000000,40731.000000,12390.000000
1954.000000,53984.000000,41107.000000,12712.000000
2270.000000,54241.000000,41537.000000,13079.000000
2617.000000,54527.000000,42011.000000,13481.000000
2986.000000,54832.000000,42512.000000,13907.000000
3368.000000,55146.000000,43022.000000,14344.000000
3751.000000,55458.000000,43529.000000,14783.000000
4121.000000,55759.000000,44020.000000,15216.000000
4469.000000,56043.000000,44485.000000,15628.000000
4792.000000,56308.000000,44920.000000,16011.000000
5085.000000,56549.000000,45320.000000,16358.000000
5342.000000,56762.000000,45677.000000,16669.000000
5569.000000,56952.000000,45991.000000,16944.000000
5768.000000,57118.000000,46263.000000,17184.000000
5940.000000,57258.000000,46495.000000,17389.000000
6083.000000,57378.000000,46691.000000,17562.000000
6198.000000,57483.000000,46855.000000,17709.000000
6289.000000,57568.000000,46991.000000,17831.000000
6360.000000,57634.000000,47102.000000,17927.000000
6416.000000,57682.000000,47187.000000,17999.000000
6464.000000,57717.000000,47252.000000,18053.000000
6503.000000,57742.000000,47302.000000,18093.000000
6533.000000,57759.000000,47337.000000,18126.000000
6555.000000,57769.000000,47363.000000,18153.000000
6570.000000,57777.000000,47385.000000,18174.000000
6578.000000,57782.000000,47401.000000,18193.000000
6583.000000,57781.000000,47409.000000,18211.000000
6585.000000,57777.000000,47411.000000,18226.000000
6586.000000,57774.000000,47410.000000,18238.000000
6586.000000,57771.000000,47411.000000,18250.000000
6582.000000,57770.000000,47411.000000,18263.000000
6576.000000,57771.000000,47413.000000,18275.000000
6571.000000,57775.000000,47416.000000,18289.000000
6569.000000,57780.000000,47420.000000,18303.000000
6568.000000,57785.000000,47420.000000,18313.000000
6568.000000,57788.000000,47415.000000,18317.000000
6566.000000,57789.000000,47408.000000,18316.000000
6559.000000,57786.000000,47399.000000,18307.000000
6548.000000,57779.000000,47385.000000,18287.000000
6532.000000,57766.000000,47362.000000,18256.000000
6511.000000,57746.000000,47329.000000,18215.000000
6484.000000,57720.000000,47287.000000,18164.000000
6452.000000,57687.000000,47237.000000,18105.000000
6416.000000,57650.000000,47177.000000,18044.000000
6377.000000,57609.000000,47112.000000,17987.000000
6335.000000,57566.000000,47043.000000,17931.000000
6289.000000,57523.000000,46971.000000,17876.000000
6244.000000,57483.000000,46903.000000,17822.000000
6201.000000,57443.000000,46839.000000,17772.000000
6160.000000,57407.000000,46780.000000,17726.000000
6122.000000,57376.000000,46726.000000,17682.000000
6090.000000,57352.000000,46678.000000,17643.000000
6064.000000,57332.000000,46637.000000,17610.000000
6044.000000,57314.000000,46603.000000,17582.000000
6027.000000,57299.000000,46573.000000,17559.000000
6014.000000,57288.000000,46548.000000,17542.000000
6004.000000,57280.000000,46527.000000,17530.000000
5998.000000,57272.000000,46510.000000,17520.000000
5996.000000,57267.000000,46498.000000,17510.000000
6002.000000,57263.000000,46489.000000,17500.000000
6013.000000,57261.000000,46483.000000,17492.000000
6022.000000,57260.000000,46481.000000,17486.000000
6025.000000,57260.000000,46483.000000,17480.000000
6024.000000,57260.000000,46484.000000,17474.000000
6022.000000,57258.000000,46482.000000,17469.000000
6021.000000,57257.000000,46474.000000,17464.000000
6021.000000,57254.000000,46462.000000,17455.000000
6021.000000,57252.000000,46448.000000,17442.000000
6019.000000,57245.000000,46435.000000,17424.000000
6012.000000,57234.000000,46419.000000,17403.000000
6002.000000,57219.000000,46398.000000,17376.000000
5989.000000,57202.000000,46371.000000,17347.000000
5970.000000,57183.000000,46340.000000,17319.000000
5944.000000,57163.000000,46306.000000,17292.000000
5911.000000,57142.000000,46267.000000,17262.000000
5875.000000,57115.000000,46226.000000,17227.000000
5834.000000,57082.000000,46184.000000,17186.000000
5789.000000,57043.000000,46136.000000,17137.000000
5742.000000,57002.000000,46080.000000,17080.000000
5691.000000,56956.000000,46014.000000,17018.000000
5639.000000,56908.000000,45942.000000,16952.000000
5588.000000,56860.000000,45866.000000,16884.000000
5536.000000,56816.000000,45789.000000,16818.000000
5484.000000,56775.000000,45715.000000,16754.000000
5433.000000,56735.000000,45642.000000,16689.000000
5385.000000,56694.000000,45569.000000,16621.000000
5338.000000,56654.000000,45495.000000,16552.000000
5289.000000,56612.000000,45419.000000,16482.000000
5239.000000,56568.000000,45345.000000,16412.000000
5190.000000,56523.000000,45272.000000,16341.000000
5141.000000,56480.000000,45198.000000,16268.000000
5092.000000,56436.000000,45124.000000,16198.000000
5041.000000,56391.000000,45051.000000,16133.000000
4991.000000,56348.000000,44979.000000,16069.000000
4940.000000,56306.000000,44908.000000,16009.000000
4891.000000,56268.000000,44842.000000,15954.000000
4845.000000,56231.000000,44780.000000,15901.000000
4800.000000,56195.000000,44719.000000,15847.000000
4757.000000,56161.000000,44661.000000,15795.000000
4715.000000,56126.000000,44605.000000,15747.000000
4673.000000,56088.000000,44549.000000,15698.000000
4632.000000,56047.000000,44492.000000,15646.000000
4590.000000,56007.000000,44436.000000,15592.000000
4546.000000,55968.000000,44381.000000,15541.000000
4501.000000,55931.000000,44326.000000,15492.000000
4459.000000,55895.000000,44270.000000,15445.000000
4420.000000,55863.000000,44214.000000,15399.000000
4381.000000,55834.000000,44158.000000,15358.000000
4343.000000,55807.000000,44106.000000,15318.000000
4310.000000,55780.000000,44056.000000,15274.000000
4279.000000,55751.000000,44005.000000,15227.000000
4249.000000,55722.000000,43955.000000,15183.000000
4220.000000,55691.000000,43903.000000,15143.000000
4191.000000,55659.000000,43848.000000,15104.000000
4160.000000,55627.000000,43792.000000,15065.000000
4126.000000,55593.000000,43736.000000,15025.000000
4088.000000,55559.000000,43685.000000,14983.000000
4050.000000,55529.000000,43638.000000,14940.000000
4013.000000,55502.000000,43595.000000,14898.000000
3977.000000,55475.000000,43553.000000,14858.000000
3944.000000,55447.000000,43510.000000,14816.000000
3914.000000,55421.000000,43462.000000,14771.000000
3882.000000,55395.000000,43411.000000,14726.000000
3845.000000,55365.000000,43356.000000,14680.000000
3804.000000,55333.000000,43297.000000,14632.000000
3763.000000,55298.000000,43235.000000,14580.000000
3718.000000,55262.000000,43171.000000,14525.000000
3670.000000,55224.000000,43105.000000,14466.000000
3617.000000,55186.000000,43037.000000,14405.000000
3565.000000,55144.000000,42968.000000,14341.000000
3512.000000,55100.000000,42899.000000,14277.000000
3458.000000,55055.000000,42831.000000,14217.000000
3402.000000,55009.000000,42763.000000,14158.000000
3344.000000,54962.000000,42692.000000,14097.000000
3286.000000,54915.000000,42615.000000,14031.000000
3229.000000,54867.000000,42535.000000,13960.000000
3172.000000,54817.000000,42455.000000,13883.000000
3115.000000,54764.000000,42374.000000,13805.000000
3056.000000,54706.000000,42291.000000,13728.000000
2994.000000,54649.000000,42210.000000,13651.000000
2933.000000,54595.000000,42130.000000,13575.000000
2872.000000,54548.000000,42052.000000,13502.000000
2812.000000,54505.000000,41977.000000,13433.000000
2754.000000,54466.000000,41906.000000,13367.000000
2703.000000,54430.000000,41840.000000,13308.000000
2666.000000,54402.000000,41787.000000,13264.000000
2646.000000,54385.000000,41757.000000,13241.000000
2648.000000,54387.000000,41757.000000,13243.000000
2678.000000,54411.000000,41794.000000,13278.000000
2740.000000,54465.000000,41876.000000,13352.000000
2834.000000,54551.000000,42013.000000,13468.000000
2967.000000,54669.000000,42206.000000,13631.000000
3145.000000,54824.000000,42454.000000,13844.000000
3365.000000,55014.000000,42753.000000,14104.000000
3618.000000,55231.000000,43099.000000,14403.000000
3901.000000,55471.000000,43486.000000,14734.000000
4206.000000,55729.000000,43903.000000,15090.000000
4519.000000,55996.000000,44336.000000,15458.000000
4829.000000,56263.000000,44770.000000,15828.000000
5132.000000,56521.000000,45194.000000,16192.000000
5427.000000,56767.000000,45600.000000,16546.000000
5710.000000,56999.000000,45986.000000,16888.000000
5976.000000,57214.000000,46349.000000,17212.000000
6220.000000,57412.000000,46683.000000,17512.000000
6445.000000,57594.000000,46988.000000,17782.000000
6648.000000,57760.000000,47264.000000,18025.000000
6830.000000,57907.000000,47510.000000,18244.000000
6990.000000,58036.000000,47725.000000,18435.000000
7131.000000,58148.000000,47912.000000,18598.000000
7251.000000,58242.000000,48074.000000,18739.000000
7351.000000,58320.000000,48212.000000,18862.000000
7432.000000,58386.000000,48329.000000,18965.000000
7499.000000,58440.000000,48424.000000,19049.000000
7555.000000,58485.000000,48502.000000,19118.000000
7601.000000,58525.000000,48565.000000,19173.000000
7638.000000,58559.000000,48615.000000,19218.000000
7668.000000,58588.000000,48654.000000,19256.000000
7691.000000,58613.000000,48684.000000,19288.000000
7708.000000,58632.000000,48709.000000,19313.000000
7723.000000,58645.000000,48725.000000,19333.000000
7735.000000,58652.000000,48733.000000,19350.000000
7745.000000,58657.000000,48741.000000,19367.000000
7753.000000,58660.000000,48751.000000,19382.000000
7762.000000,58663.000000,48761.000000,19395.000000
7774.000000,58668.000000,48770.000000,19406.000000
7788.000000,58674.000000,48780.000000,19415.000000
7800.000000,58679.000000,48791.000000,19421.000000
7810.000000,58682.000000,48801.000000,19424.000000
7820.000000,58684.000000,48809.000000,19425.000000
7826.000000,58683.000000,48815.000000,19427.000000
7829.000000,58678.000000,48815.000000,19431.000000
7830.000000,58672.000000,48809.000000,19433.000000
7828.000000,58666.000000,48800.000000,19430.000000
7818.000000,58656.000000,48782.000000,19418.000000
7800.000000,58637.000000,48753.000000,19396.000000
7772.000000,58612.000000,48714.000000,19361.000000
7737.000000,58584.000000,48665.000000,19318.000000
7694.000000,58549.000000,48606.000000,19267.000000
7646.000000,58510.000000,48540.000000,19208.000000
7596.000000,58471.000000,48472.000000,19148.000000
7548.000000,58434.000000,48406.000000,19090.000000
7498.000000,58401.000000,48340.000000,19035.000000
7451.000000,58369.000000,48275.000000,18981.000000
7409.000000,58338.000000,48212.000000,18931.000000
7368.000000,58305.000000,48156.000000,18886.000000
7331.000000,58274.000000,48108.000000,18847.000000
7302.000000,58245.000000,48069.000000,18816.000000
7279.000000,58222.000000,48037.000000,18790.000000
7261.000000,58203.000000,48011.000000,18772.000000
7246.000000,58186.000000,47989.000000,18758.000000
7232.000000,58174.000000,47968.000000,18746.000000
7220.000000,58165.000000,47947.000000,18735.000000
7210.000000,58161.000000,47928.000000,18725.000000
7204.000000,58160.000000,47915.000000,18714.000000
7200.000000,58158.000000,47905.000000,18702.000000
7195.000000,58154.000000,47895.000000,18692.000000
7190.000000,58150.000000,47884.000000,18685.000000
7182.000000,58148.000000,47872.000000,18676.000000
7176.000000,58149.000000,47860.000000,18660.000000
7173.000000,58149.000000,47844.000000,18640.000000
7169.000000,58143.000000,47823.000000,18619.000000
7163.000000,58132.000000,47801.000000,18600.000000
7156.000000,58117.000000,47779.000000,18582.000000
7146.000000,58100.000000,47758.000000,18561.000000
7131.000000,58081.000000,47732.000000,18536.000000
7109.000000,58060.000000,47703.000000,18506.000000
7083.000000,58036.000000,47670.000000,18472.000000
7052.000000,58009.000000,47632.000000,18435.000000
7017.000000,57975.000000,47586.000000,18396.000000
6978.000000,57937.000000,47534.000000,18353.000000
6935.000000,57899.000000,47474.000000,18305.000000
6889.000000,57858.000000,47410.000000,18255.000000
6840.000000,57817.000000,47347.000000,18205.000000
6791.000000,57779.000000,47285.000000,18157.000000
6744.000000,57741.000000,47220.000000,18110.000000
6699.000000,57701.000000,47152.000000,18060.000000
6651.000000,57656.000000,47082.000000,18003.000000
6601.000000,57610.000000,47010.000000,17939.000000
6551.000000,57566.000000,46938.000000,17873.000000
6501.000000,57525.000000,46869.000000,17810.000000
6450.000000,57484.000000,46802.000000,17748.000000
6399.000000,57443.000000,46735.000000,17687.000000
6349.000000,57404.000000,46667.000000,17626.000000
6301.000000,57365.000000,46600.000000,17564.000000
6254.000000,57325.000000,46536.000000,17502.000000
6209.000000,57287.000000,46473.000000,17442.000000
6170.000000,57252.000000,46414.000000,17387.000000
6135.000000,57219.000000,46358.000000,17336.000000
6098.000000,57187.000000,46303.000000,17287.000000
6061.000000,57154.000000,46250.000000,17237.000000
6022.000000,57118.000000,46196.000000,17186.000000
5979.000000,57079.000000,46139.000000,17133.000000
5935.000000,57042.000000,46082.000000,17082.000000
5893.000000,57012.000000,46026.000000,17033.000000
5856.000000,56985.000000,45971.000000,16986.000000
5820.000000,56957.000000,45919.000000,16940.000000
5782.000000,56926.000000,45867.000000,16896.000000
5743.000000,56892.000000,45814.000000,16851.000000
5705.000000,56857.000000,45759.000000,16806.000000
5666.000000,56820.000000,45704.000000,16763.000000
5624.000000,56782.000000,45648.000000,16719.000000
5583.000000,56745.000000,45590.000000,16673.000000
5544.000000,56707.000000,45531.000000,16627.000000
5505.000000,56669.000000,45472.000000,16582.000000
5464.000000,56633.000000,45414.000000,16535.000000
5421.000000,56598.000000,45358.000000,16484.000000
5380.000000,56567.000000,45302.000000,16433.000000
5339.000000,56536.000000,45247.000000,16383.000000
5297.000000,56504.000000,45193.000000,16334.000000
5256.000000,56471.000000,45137.000000,16285.000000
5212.000000,56434.000000,45079.000000,16234.000000
5166.000000,56393.000000,45020.000000,16181.000000
5117.000000,56352.000000,44960.000000,16126.000000
5067.000000,56313.000000,44902.000000,16071.000000
5016.000000,56274.000000,44843.000000,16016.000000
4967.000000,56237.000000,44781.000000,15961.000000
4921.000000,56203.000000,44720.000000,15908.000000
4879.000000,56172.000000,44662.000000,15857.000000
4836.000000,56140.000000,44604.000000,15806.000000
4791.000000,56106.000000,44546.000000,15757.000000
4745.000000,56071.000000,44484.000000,15705.000000
4701.000000,56037.000000,44422.000000,15652.000000
4659.000000,55999.000000,44361.000000,15600.000000
4617.000000,55959.000000,44301.000000,15549.000000
4573.000000,55918.000000,44242.000000,15494.000000
4527.000000,55877.000000,44179.000000,15433.000000
4481.000000,55834.000000,44112.000000,15372.000000
4433.000000,55788.000000,44042.000000,15308.000000
4383.000000,55741.000000,43968.000000,15237.000000
4328.000000,55695.000000,43889.000000,15161.000000
4271.000000,55650.000000,43809.000000,15086.000000
4212.000000,55603.000000,43727.000000,15011.000000
4152.000000,55555.000000,43645.000000,14937.000000
4091.000000,55508.000000,43564.000000,14865.000000
4031.000000,55458.000000,43484.000000,14796.000000
3970.000000,55403.000000,43401.000000,14732.000000
3911.000000,55347.000000,43320.000000,14667.000000
3853.000000,55297.000000,43244.000000,14602.000000
3796.000000,55252.000000,43172.000000,14538.000000
3739.000000,55210.000000,43105.000000,14476.000000
3690.000000,55172.000000,43044.000000,14420.000000
3653.000000,55142.000000,42996.000000,14375.000000
3630.000000,55122.000000,42964.000000,14347.000000
3623.000000,55117.000000,42953.000000,14341.000000
3637.000000,55133.000000,42974.000000,14361.000000
3680.000000,55177.000000,43034.000000,14414.000000
3759.000000,55250.000000,43142.000000,14508.000000
3875.000000,55353.000000,43304.000000,14648.000000
4029.000000,55492.000000,43520.000000,14833.000000
4222.000000,55663.000000,43789.000000,15063.000000
4450.000000,55859.000000,44103.000000,15334.000000
4704.000000,56076.000000,44453.000000,15639.000000
4976.000000,56306.000000,44827.000000,15967.000000
5259.000000,56547.000000,45216.000000,16309.000000
5546.000000,56793.000000,45613.000000,16659.000000
5829.000000,57038.000000,46009.000000,17011.000000
6108.000000,57277.000000,46395.000000,17353.000000
6376.000000,57504.000000,46766.000000,17680.000000
6628.000000,57715.000000,47118.000000,17986.000000
6862.000000,57911.000000,47447.000000,18270.000000
7076.000000,58091.000000,47750.000000,18533.000000
7270.000000,58256.000000,48027.000000,18777.000000
7443.000000,58404.000000,48273.000000,18998.000000
7596.000000,58534.000000,48484.000000,19194.000000
7731.000000,58643.000000,48662.000000,19361.000000
7845.000000,58731.000000,48812.000000,19503.000000
7935.000000,58802.000000,48939.000000,19623.000000
8007.000000,58860.000000,49042.000000,19721.000000
8065.000000,58907.000000,49125.000000,19800.000000
8111.000000,58945.000000,49191.000000,19864.000000
8149.000000,58974.000000,49242.000000,19913.000000
8181.000000,58997.000000,49281.000000,19948.000000
8208.000000,59015.000000,49310.000000,19975.000000
8227.000000,59026.000000,49331.000000,19997.000000
8237.000000,59033.000000,49344.000000,20015.000000
8240.000000,59039.000000,49350.000000,20027.000000
8242.000000,59042.000000,49351.000000,20033.000000
8244.000000,59044.000000,49351.000000,20036.000000
8244.000000,59045.000000,49351.000000,20042.000000
8241.000000,59047.000000,49352.000000,20050.000000
8241.000000,59051.000000,49358.000000,20059.000000
8243.000000,59058.000000,49367.000000,20068.000000
8247.000000,59065.000000,49376.000000,20078.000000
8250.000000,59070.000000,49383.000000,20087.000000
8250.000000,59074.000000,49387.000000,20092.000000
8244.000000,59074.000000,49387.000000,20090.000000
8234.000000,59070.000000,49380.000000,20085.000000
8220.000000,59060.000000,49366.000000,20076.000000
