660nm,730nm,850nm,940nm
49210.000000,35941.000000,22442.000000,35112.000000
49152.000000,35885.000000,22366.000000,35035.000000
49071.000000,35807.000000,22266.000000,34943.000000
49005.000000,35750.000000,22188.000000,34888.000000
48965.000000,35726.000000,22139.000000,34868.000000
48910.000000,35689.000000,22071.000000,34814.000000
48831.000000,35630.000000,21985.000000,34730.000000
48778.000000,35598.000000,21930.000000,34687.000000
48766.000000,35601.000000,21910.000000,34682.000000
48756.000000,35597.000000,21885.000000,34652.000000
48746.000000,35593.000000,21867.000000,34617.000000
48791.000000,35641.000000,21915.000000,34656.000000
48893.000000,35737.000000,22021.000000,34766.000000
49006.000000,35830.000000,22144.000000,34882.000000
49138.000000,35937.000000,22304.000000,35022.000000
49336.000000,36112.000000,22547.000000,35251.000000
49586.000000,36336.000000,22849.000000,35542.000000
49840.000000,36557.000000,23156.000000,35824.000000
50103.000000,36783.000000,23479.000000,36115.000000
50411.000000,37052.000000,23850.000000,36476.000000
50739.000000,37336.000000,24238.000000,36872.000000
51032.000000,37586.000000,24595.000000,37230.000000
51302.000000,37821.000000,24937.000000,37570.000000
51586.000000,38075.000000,25291.000000,37931.000000
51859.000000,38315.000000,25625.000000,38266.000000
52078.000000,38499.000000,25902.000000,38523.000000
52263.000000,38652.000000,26148.000000,38743.000000
52452.000000,38815.000000,26394.000000,38980.000000
52618.000000,38955.000000,26605.000000,39193.000000
52726.000000,39038.000000,26749.000000,39341.000000
52807.000000,39101.000000,26860.000000,39470.000000
52895.000000,39176.000000,26970.000000,39614.000000
52958.000000,39227.000000,27044.000000,39715.000000
52967.000000,39223.000000,27055.000000,39737.000000
52958.000000,39204.000000,27045.000000,39742.000000
52959.000000,39201.000000,27044.000000,39763.000000
52930.000000,39172.000000,27012.000000,39735.000000
52849.000000,39093.000000,26932.000000,39644.000000
52758.000000,39009.000000,26846.000000,39554.000000
52685.000000,38947.000000,26772.000000,39474.000000
52596.000000,38871.000000,26675.000000,39356.000000
52477.000000,38767.000000,26544.000000,39202.000000
52369.000000,38679.000000,26430.000000,39082.000000
52291.000000,38624.000000,26346.000000,39006.000000
52204.000000,38561.000000,26253.000000,38912.000000
52096.000000,38474.000000,26139.000000,38790.000000
52005.000000,38406.000000,26043.000000,38699.000000
51943.000000,38367.000000,25974.000000,38640.000000
51871.000000,38314.000000,25892.000000,38559.000000
51786.000000,38244.000000,25797.000000,38469.000000
51727.000000,38197.000000,25729.000000,38418.000000
51692.000000,38172.000000,25678.000000,38386.000000
51641.000000,38121.000000,25605.000000,38321.000000
51576.000000,38054.000000,25519.000000,38240.000000
51538.000000,38019.000000,25465.000000,38198.000000
51523.000000,38007.000000,25429.000000,38172.000000
51486.000000,37971.000000,25369.000000,38100.000000
51442.000000,37923.000000,25299.000000,38014.000000
51439.000000,37913.000000,25268.000000,37986.000000
51464.000000,37928.000000,25264.000000,37997.000000
51470.000000,37924.000000,25247.000000,37991.000000
51469.000000,37917.000000,25232.000000,37989.000000
51502.000000,37944.000000,25256.000000,38036.000000
51554.000000,37988.000000,25296.000000,38098.000000
51582.000000,38007.000000,25312.000000,38125.000000
51605.000000,38020.000000,25328.000000,38149.000000
51662.000000,38068.000000,25379.000000,38216.000000
51724.000000,38121.000000,25434.000000,38279.000000
51754.000000,38144.000000,25460.000000,38296.000000
51783.000000,38165.000000,25493.000000,38313.000000
51845.000000,38223.000000,25568.000000,38372.000000
51913.000000,38286.000000,25652.000000,38440.000000
51957.000000,38320.000000,25709.000000,38476.000000
52001.000000,38356.000000,25772.000000,38516.000000
52077.000000,38428.000000,25872.000000,38604.000000
52151.000000,38497.000000,25970.000000,38696.000000
52191.000000,38532.000000,26035.000000,38754.000000
52230.000000,38570.000000,26099.000000,38828.000000
52293.000000,38635.000000,26186.000000,38942.000000
52338.000000,38680.000000,26253.000000,39020.000000
52335.000000,38680.000000,26275.000000,39024.000000
52325.000000,38676.000000,26292.000000,39015.000000
52336.000000,38692.000000,26320.000000,39016.000000
52332.000000,38686.000000,26319.000000,38979.000000
52292.000000,38645.000000,26277.000000,38903.000000
52256.000000,38611.000000,26241.000000,38861.000000
52239.000000,38594.000000,26219.000000,38853.000000
52200.000000,38549.000000,26168.000000,38797.000000
52130.000000,38475.000000,26086.000000,38692.000000
52073.000000,38421.000000,26017.000000,38615.000000
52034.000000,38387.000000,25960.000000,38561.000000
51971.000000,38328.000000,25872.000000,38468.000000
51884.000000,38249.000000,25762.000000,38361.000000
51817.000000,38199.000000,25676.000000,38311.000000
51765.000000,38170.000000,25605.000000,38288.000000
51680.000000,38107.000000,25496.000000,38209.000000
51567.000000,38018.000000,25364.000000,38089.000000
51473.000000,37953.000000,25260.000000,37988.000000
51394.000000,37902.000000,25173.000000,37889.000000
51291.000000,37821.000000,25060.000000,37751.000000
51180.000000,37723.000000,24939.000000,37613.000000
51104.000000,37657.000000,24851.000000,37534.000000
51048.000000,37604.000000,24779.000000,37481.000000
50972.000000,37525.000000,24685.000000,37402.000000
50895.000000,37446.000000,24593.000000,37325.000000
50851.000000,37406.000000,24537.000000,37292.000000
50816.000000,37374.000000,24485.000000,37260.000000
50745.000000,37306.000000,24397.000000,37178.000000
50667.000000,37232.000000,24306.000000,37090.000000
50622.000000,37196.000000,24252.000000,37035.000000
50583.000000,37165.000000,24201.000000,36972.000000
50510.000000,37102.000000,24119.000000,36869.000000
50429.000000,37038.000000,24036.000000,36777.000000
50384.000000,37012.000000,23989.000000,36731.000000
50345.000000,36988.000000,23940.000000,36675.000000
50275.000000,36928.000000,23858.000000,36569.000000
50206.000000,36872.000000,23781.000000,36467.000000
50172.000000,36849.000000,23739.000000,36409.000000
50138.000000,36818.000000,23692.000000,36348.000000
50073.000000,36752.000000,23616.000000,36257.000000
50015.000000,36697.000000,23555.000000,36196.000000
49991.000000,36681.000000,23533.000000,36193.000000
49962.000000,36664.000000,23506.000000,36179.000000
49906.000000,36623.000000,23453.000000,36125.000000
49861.000000,36594.000000,23414.000000,36081.000000
49841.000000,36590.000000,23398.000000,36064.000000
49806.000000,36568.000000,23362.000000,36017.000000
49742.000000,36519.000000,23298.000000,35934.000000
49696.000000,36492.000000,23253.000000,35879.000000
49679.000000,36492.000000,23232.000000,35856.000000
49645.000000,36469.000000,23187.000000,35805.000000
49585.000000,36419.000000,23117.000000,35736.000000
49544.000000,36386.000000,23072.000000,35701.000000
49523.000000,36373.000000,23047.000000,35685.000000
49482.000000,36336.000000,22999.000000,35636.000000
49420.000000,36280.000000,22933.000000,35571.000000
49378.000000,36248.000000,22889.000000,35543.000000
49350.000000,36233.000000,22858.000000,35523.000000
49293.000000,36190.000000,22798.000000,35456.000000
49217.000000,36134.000000,22721.000000,35374.000000
49170.000000,36110.000000,22669.000000,35336.000000
49134.000000,36093.000000,22619.000000,35305.000000
49064.000000,36036.000000,22532.000000,35218.000000
48977.000000,35961.000000,22432.000000,35113.000000
48918.000000,35913.000000,22362.000000,35050.000000
48868.000000,35872.000000,22301.000000,34995.000000
48786.000000,35794.000000,22206.000000,34896.000000
48691.000000,35706.000000,22104.000000,34790.000000
48624.000000,35645.000000,22030.000000,34728.000000
48559.000000,35585.000000,21954.000000,34663.000000
48457.000000,35490.000000,21841.000000,34553.000000
48345.000000,35390.000000,21724.000000,34448.000000
48262.000000,35326.000000,21639.000000,34386.000000
48181.000000,35264.000000,21554.000000,34314.000000
48069.000000,35169.000000,21439.000000,34189.000000
47961.000000,35081.000000,21332.000000,34067.000000
47900.000000,35042.000000,21271.000000,34003.000000
47863.000000,35022.000000,21231.000000,33960.000000
47823.000000,34997.000000,21198.000000,33914.000000
47822.000000,35012.000000,21221.000000,33918.000000
47895.000000,35099.000000,21330.000000,34007.000000
48009.000000,35217.000000,21486.000000,34133.000000
48137.000000,35335.000000,21663.000000,34261.000000
48310.000000,35492.000000,21896.000000,34438.000000
48552.000000,35706.000000,22199.000000,34689.000000
48820.000000,35935.000000,22527.000000,34963.000000
49083.000000,36152.000000,22855.000000,35250.000000
49371.000000,36393.000000,23212.000000,35591.000000
49684.000000,36659.000000,23594.000000,35970.000000
49977.000000,36900.000000,23950.000000,36312.000000
50232.000000,37105.000000,24271.000000,36618.000000
50482.000000,37317.000000,24591.000000,36931.000000
50730.000000,37534.000000,24906.000000,37238.000000
50935.000000,37711.000000,25171.000000,37478.000000
51095.000000,37848.000000,25387.000000,37670.000000
51256.000000,37990.000000,25601.000000,37882.000000
51413.000000,38127.000000,25796.000000,38098.000000
51511.000000,38204.000000,25920.000000,38242.000000
51552.000000,38228.000000,25989.000000,38325.000000
51592.000000,38258.000000,26058.000000,38413.000000
51627.000000,38287.000000,26115.000000,38497.000000
51612.000000,38270.000000,26117.000000,38511.000000
51560.000000,38221.000000,26078.000000,38473.000000
51522.000000,38193.000000,26046.000000,38452.000000
51486.000000,38172.000000,26006.000000,38425.000000
51409.000000,38107.000000,25917.000000,38331.000000
51306.000000,38019.000000,25803.000000,38203.000000
51223.000000,37959.000000,25711.000000,38110.000000
51142.000000,37902.000000,25621.000000,38031.000000
51024.000000,37805.000000,25493.000000,37898.000000
50895.000000,37697.000000,25360.000000,37748.000000
50801.000000,37627.000000,25266.000000,37656.000000
50719.000000,37568.000000,25181.000000,37582.000000
50612.000000,37478.000000,25068.000000,37467.000000
50512.000000,37392.000000,24965.000000,37361.000000
50453.000000,37349.000000,24905.000000,37309.000000
50405.000000,37311.000000,24853.000000,37264.000000
50331.000000,37241.000000,24771.000000,37181.000000
50263.000000,37174.000000,24693.000000,37100.000000
50226.000000,37141.000000,24645.000000,37046.000000
50184.000000,37104.000000,24586.000000,36973.000000
50107.000000,37034.000000,24494.000000,36870.000000
50029.000000,36970.000000,24406.000000,36783.000000
49978.000000,36937.000000,24344.000000,36729.000000
49925.000000,36900.000000,24272.000000,36671.000000
49849.000000,36838.000000,24176.000000,36592.000000
49784.000000,36790.000000,24100.000000,36537.000000
49747.000000,36769.000000,24057.000000,36505.000000
49701.000000,36734.000000,24005.000000,36441.000000
49638.000000,36681.000000,23938.000000,36365.000000
49607.000000,36660.000000,23903.000000,36337.000000
49613.000000,36675.000000,23902.000000,36343.000000
49615.000000,36682.000000,23894.000000,36327.000000
49607.000000,36674.000000,23883.000000,36306.000000
49628.000000,36695.000000,23909.000000,36337.000000
49678.000000,36740.000000,23963.000000,36395.000000
49711.000000,36762.000000,23997.000000,36415.000000
49732.000000,36767.000000,24020.000000,36425.000000
49787.000000,36806.000000,24081.000000,36493.000000
49865.000000,36872.000000,24166.000000,36588.000000
49917.000000,36911.000000,24221.000000,36644.000000
49949.000000,36932.000000,24258.000000,36687.000000
50012.000000,36986.000000,24324.000000,36776.000000
50086.000000,37055.000000,24397.000000,36864.000000
50118.000000,37082.000000,24426.000000,36888.000000
50122.000000,37083.000000,24431.000000,36893.000000
50150.000000,37108.000000,24462.000000,36934.000000
50185.000000,37139.000000,24496.000000,36975.000000
50186.000000,37136.000000,24492.000000,36966.000000
50166.000000,37119.000000,24475.000000,36939.000000
50161.000000,37127.000000,24479.000000,36944.000000
50152.000000,37130.000000,24470.000000,36937.000000
50098.000000,37089.000000,24414.000000,36873.000000
50027.000000,37031.000000,24342.000000,36795.000000
49978.000000,36994.000000,24287.000000,36756.000000
49926.000000,36952.000000,24222.000000,36716.000000
49835.000000,36871.000000,24120.000000,36625.000000
49737.000000,36787.000000,24016.000000,36525.000000
49668.000000,36733.000000,23938.000000,36463.000000
49596.000000,36674.000000,23853.000000,36386.000000
49491.000000,36578.000000,23732.000000,36251.000000
49390.000000,36487.000000,23616.000000,36115.000000
49320.000000,36432.000000,23532.000000,36021.000000
49242.000000,36371.000000,23443.000000,35914.000000
49128.000000,36274.000000,23321.000000,35763.000000
49018.000000,36184.000000,23205.000000,35627.000000
48937.000000,36125.000000,23116.000000,35534.000000
48849.000000,36059.000000,23014.000000,35429.000000
48739.000000,35970.000000,22891.000000,35304.000000
48651.000000,35903.000000,22794.000000,35221.000000
48599.000000,35868.000000,22730.000000,35176.000000
48541.000000,35819.000000,22653.000000,35104.000000
48466.000000,35748.000000,22559.000000,35003.000000
48412.000000,35702.000000,22492.000000,34943.000000
48387.000000,35687.000000,22454.000000,34923.000000
48348.000000,35659.000000,22399.000000,34878.000000
48292.000000,35617.000000,22330.000000,34819.000000
48261.000000,35600.000000,22289.000000,34803.000000
48254.000000,35602.000000,22264.000000,34809.000000
48225.000000,35574.000000,22208.000000,34769.000000
48176.000000,35524.000000,22134.000000,34697.000000
48152.000000,35502.000000,22088.000000,34647.000000
48142.000000,35493.000000,22053.000000,34600.000000
48100.000000,35450.000000,21986.000000,34506.000000
48037.000000,35388.000000,21900.000000,34401.000000
47996.000000,35352.000000,21839.000000,34342.000000
47970.000000,35329.000000,21791.000000,34303.000000
47913.000000,35277.000000,21720.000000,34233.000000
47845.000000,35220.000000,21651.000000,34168.000000
47813.000000,35201.000000,21623.000000,34155.000000
47793.000000,35194.000000,21606.000000,34148.000000
47749.000000,35159.000000,21564.000000,34110.000000
47708.000000,35125.000000,21524.000000,34083.000000
47706.000000,35132.000000,21520.000000,34101.000000
47714.000000,35146.000000,21518.000000,34116.000000
47695.000000,35127.000000,21486.000000,34086.000000
47675.000000,35107.000000,21457.000000,34058.000000
47685.000000,35118.000000,21461.000000,34073.000000
47696.000000,35123.000000,21462.000000,34080.000000
47676.000000,35092.000000,21430.000000,34041.000000
47657.000000,35068.000000,21406.000000,34010.000000
47670.000000,35078.000000,21414.000000,34018.000000
47674.000000,35078.000000,21406.000000,34006.000000
47633.000000,35037.000000,21358.000000,33941.000000
47587.000000,34996.000000,21315.000000,33883.000000
47568.000000,34984.000000,21302.000000,33860.000000
47545.000000,34969.000000,21276.000000,33829.000000
47493.000000,34927.000000,21218.000000,33775.000000
47446.000000,34894.000000,21163.000000,33742.000000
47424.000000,34883.000000,21129.000000,33734.000000
47389.000000,34852.000000,21075.000000,33687.000000
47324.000000,34788.000000,20993.000000,33592.000000
47271.000000,34738.000000,20931.000000,33520.000000
47243.000000,34711.000000,20888.000000,33481.000000
47196.000000,34662.000000,20817.000000,33410.000000
47123.000000,34586.000000,20720.000000,33308.000000
47068.000000,34533.000000,20648.000000,33248.000000
47035.000000,34507.000000,20603.000000,33228.000000
46978.000000,34456.000000,20533.000000,33164.000000
46897.000000,34385.000000,20448.000000,33064.000000
46840.000000,34339.000000,20394.000000,33005.000000
46801.000000,34312.000000,20361.000000,32975.000000
46738.000000,34258.000000,20300.000000,32915.000000
46660.000000,34190.000000,20222.000000,32837.000000
46614.000000,34151.000000,20167.000000,32781.000000
46590.000000,34130.000000,20124.000000,32731.000000
46546.000000,34090.000000,20055.000000,32654.000000
46498.000000,34052.000000,19990.000000,32588.000000
46497.000000,34064.000000,19980.000000,32595.000000
46535.000000,34109.000000,20010.000000,32642.000000
46574.000000,34144.000000,20044.000000,32680.000000
46641.000000,34202.000000,20118.000000,32755.000000
46779.000000,34328.000000,20277.000000,32925.000000
46965.000000,34495.000000,20494.000000,33143.000000
47156.000000,34659.000000,20731.000000,33352.000000
47380.000000,34850.000000,21016.000000,33600.000000
47669.000000,35104.000000,21377.000000,33933.000000
47989.000000,35383.000000,21771.000000,34302.000000
48294.000000,35645.000000,22155.000000,34657.000000
48607.000000,35915.000000,22552.000000,35031.000000
48950.000000,36216.000000,22980.000000,35444.000000
49279.000000,36501.000000,23385.000000,35825.000000
49554.000000,36732.000000,23730.000000,36137.000000
49804.000000,36943.000000,24050.000000,36431.000000
50062.000000,37165.000000,24375.000000,36747.000000
50292.000000,37359.000000,24666.000000,37034.000000
50465.000000,37499.000000,24899.000000,37258.000000
50616.000000,37625.000000,25111.000000,37480.000000
50771.000000,37760.000000,25317.000000,37721.000000
50886.000000,37856.000000,25469.000000,37902.000000
50940.000000,37891.000000,25553.000000,37990.000000
50973.000000,37910.000000,25611.000000,38049.000000
51008.000000,37936.000000,25664.000000,38110.000000
51009.000000,37933.000000,25675.000000,38124.000000
50966.000000,37890.000000,25638.000000,38086.000000
50921.000000,37851.000000,25595.000000,38052.000000
50885.000000,37823.000000,25553.000000,38028.000000
50817.000000,37762.000000,25472.000000,37952.000000
50712.000000,37667.000000,25358.000000,37839.000000
50619.000000,37588.000000,25261.000000,37762.000000
50540.000000,37527.000000,25177.000000,37699.000000
50433.000000,37436.000000,25058.000000,37581.000000
50310.000000,37330.000000,24921.000000,37439.000000
50218.000000,37262.000000,24818.000000,37347.000000
50150.000000,37215.000000,24736.000000,37271.000000
50058.000000,37141.000000,24629.000000,37150.000000
49957.000000,37054.000000,24513.000000,37017.000000
49897.000000,37006.000000,24438.000000,36933.000000
49867.000000,36984.000000,24387.000000,36875.000000
49813.000000,36939.000000,24315.000000,36790.000000
49747.000000,36891.000000,24244.000000,36708.000000
49714.000000,36880.000000,24208.000000,36678.000000
49692.000000,36876.000000,24177.000000,36656.000000
49641.000000,36837.000000,24110.000000,36595.000000
49581.000000,36789.000000,24036.000000,36537.000000
49549.000000,36769.000000,23994.000000,36526.000000
49519.000000,36750.000000,23950.000000,36511.000000
49456.000000,36694.000000,23872.000000,36445.000000
49385.000000,36633.000000,23792.000000,36372.000000
49342.000000,36604.000000,23744.000000,36338.000000
49302.000000,36571.000000,23692.000000,36301.000000
49236.000000,36506.000000,23611.000000,36221.000000
49180.000000,36452.000000,23544.000000,36153.000000
49167.000000,36441.000000,23523.000000,36127.000000
49159.000000,36431.000000,23503.000000,36084.000000
49127.000000,36393.000000,23461.000000,36000.000000
49106.000000,36371.000000,23436.000000,35934.000000
49126.000000,36390.000000,23454.000000,35919.000000
49154.000000,36412.000000,23477.000000,35919.000000
49160.000000,36410.000000,23486.000000,35917.000000
49177.000000,36421.000000,23514.000000,35943.000000
49222.000000,36460.000000,23568.000000,35997.000000
49255.000000,36484.000000,23609.000000,36021.000000
49259.000000,36481.000000,23623.000000,36005.000000
49278.000000,36492.000000,23654.000000,36022.000000
49325.000000,36531.000000,23706.000000,36077.000000
49353.000000,36549.000000,23732.000000,36102.000000
49354.000000,36540.000000,23731.000000,36103.000000
49369.000000,36551.000000,23750.000000,36152.000000
49398.000000,36581.000000,23782.000000,36231.000000
49392.000000,36582.000000,23779.000000,36259.000000
49353.000000,36558.000000,23749.000000,36249.000000
49329.000000,36555.000000,23739.000000,36264.000000
49315.000000,36567.000000,23736.000000,36290.000000
49272.000000,36548.000000,23699.000000,36274.000000
49212.000000,36509.000000,23644.000000,36238.000000
49180.000000,36496.000000,23616.000000,36238.000000
49163.000000,36493.000000,23593.000000,36236.000000
49108.000000,36448.000000,23530.000000,36176.000000
49032.000000,36380.000000,23444.000000,36092.000000
48984.000000,36340.000000,23384.000000,36038.000000
48947.000000,36311.000000,23329.000000,35977.000000
48879.000000,36247.000000,23240.000000,35861.000000
48802.000000,36174.000000,23144.000000,35737.000000
48763.000000,36134.000000,23081.000000,35667.000000
48737.000000,36100.000000,23022.000000,35609.000000
48678.000000,36029.000000,22928.000000,35504.000000
48607.000000,35949.000000,22832.000000,35392.000000
48562.000000,35902.000000,22770.000000,35327.000000
48517.000000,35858.000000,22707.000000,35269.000000
48434.000000,35781.000000,22611.000000,35168.000000
48343.000000,35702.000000,22517.000000,35068.000000
48284.000000,35659.000000,22457.000000,35011.000000
48227.000000,35619.000000,22396.000000,34954.000000
48141.000000,35547.000000,22302.000000,34865.000000
48057.000000,35481.000000,22214.000000,34787.000000
48007.000000,35451.000000,22158.000000,34742.000000
47955.000000,35417.000000,22094.000000,34681.000000
47876.000000,35350.000000,21996.000000,34581.000000
47809.000000,35290.000000,21905.000000,34495.000000
47774.000000,35261.000000,21844.000000,34448.000000
47730.000000,35222.000000,21772.000000,34380.000000
47658.000000,35155.000000,21677.000000,34283.000000
47601.000000,35105.000000,21602.000000,34221.000000
47577.000000,35088.000000,21559.000000,34199.000000
47544.000000,35061.000000,21505.000000,34153.000000
47488.000000,35014.000000,21434.000000,34079.000000
47450.000000,34989.000000,21385.000000,34037.000000
47440.000000,34991.000000,21359.000000,34018.000000
47417.000000,34972.000000,21316.000000,33965.000000
47377.000000,34933.000000,21259.000000,33897.000000
47358.000000,34916.000000,21231.000000,33870.000000
47354.000000,34915.000000,21221.000000,33866.000000
47320.000000,34882.000000,21184.000000,33828.000000
47267.000000,34830.000000,21131.000000,33778.000000
47241.000000,34807.000000,21104.000000,33765.000000
47231.000000,34801.000000,21088.000000,33759.000000
47188.000000,34765.000000,21039.000000,33704.000000
47122.000000,34709.000000,20971.000000,33626.000000
47075.000000,34677.000000,20927.000000,33578.000000
47035.000000,34653.000000,20889.000000,33532.000000
46960.000000,34596.000000,20816.000000,33435.000000
46875.000000,34531.000000,20734.000000,33331.000000
46827.000000,34502.000000,20685.000000,33279.000000
46794.000000,34486.000000,20643.000000,33239.000000
46736.000000,34437.000000,20569.000000,33158.000000
46674.000000,34383.000000,20492.000000,33077.000000
46648.000000,34363.000000,20452.000000,33049.000000
46632.000000,34352.000000,20421.000000,33036.000000
46588.000000,34310.000000,20359.000000,32990.000000
46541.000000,34265.000000,20296.000000,32947.000000
46526.000000,34252.000000,20268.000000,32948.000000
46513.000000,34238.000000,20240.000000,32943.000000
46467.000000,34190.000000,20180.000000,32887.000000
46418.000000,34142.000000,20125.000000,32828.000000
46396.000000,34125.000000,20101.000000,32802.000000
46368.000000,34102.000000,20066.000000,32763.000000
46306.000000,34048.000000,19996.000000,32686.000000
46246.000000,34002.000000,19928.000000,32624.000000
46217.000000,33988.000000,19885.000000,32597.000000
46183.000000,33960.000000,19827.000000,32554.000000
46116.000000,33896.000000,19741.000000,32481.000000
46053.000000,33839.000000,19670.000000,32434.000000
46016.000000,33812.000000,19629.000000,32421.000000
45965.000000,33773.000000,19571.000000,32381.000000
45887.000000,33707.000000,19487.000000,32304.000000
45828.000000,33661.000000,19424.000000,32244.000000
45802.000000,33647.000000,19392.000000,32212.000000
45772.000000,33625.000000,19351.000000,32160.000000
45740.000000,33595.000000,19305.000000,32099.000000
45754.000000,33606.000000,19310.000000,32094.000000
45823.000000,33666.000000,19376.000000,32143.000000
45911.000000,33741.000000,19470.000000,32202.000000
46027.000000,33838.000000,19606.000000,32298.000000
46212.000000,34005.000000,19827.000000,32492.000000
46460.000000,34233.000000,20122.000000,32764.000000
46717.000000,34464.000000,20434.000000,33046.000000
46986.000000,34701.000000,20763.000000,33350.000000
47301.000000,34985.000000,21147.000000,33729.000000
47648.000000,35296.000000,21564.000000,34143.000000
47974.000000,35579.000000,21965.000000,34526.000000
48283.000000,35842.000000,22358.000000,34906.000000
48613.000000,36128.000000,22778.000000,35326.000000
48946.000000,36415.000000,23194.000000,35741.000000
49230.000000,36650.000000,23554.000000,36089.000000
49474.000000,36849.000000,23871.000000,36396.000000
49713.000000,37052.000000,24181.000000,36711.000000
49921.000000,37231.000000,24452.000000,36992.000000
50064.000000,37347.000000,24648.000000,37186.000000
50171.000000,37427.000000,24801.000000,37338.000000
50279.000000,37509.000000,24950.000000,37500.000000
50361.000000,37564.000000,25062.000000,37634.000000
50386.000000,37568.000000,25107.000000,37690.000000
50392.000000,37561.000000,25126.000000,37713.000000
50410.000000,37573.000000,25150.000000,37740.000000
50405.000000,37570.000000,25146.000000,37723.000000
50349.000000,37522.000000,25087.000000,37640.000000
50278.000000,37468.000000,25016.000000,37548.000000
50228.000000,37436.000000,24962.000000,37480.000000
50166.000000,37390.000000,24890.000000,37394.000000
50069.000000,37310.000000,24780.000000,37275.000000
49976.000000,37235.000000,24673.000000,37177.000000
49910.000000,37187.000000,24588.000000,37106.000000
49832.000000,37122.000000,24485.000000,36995.000000
49718.000000,37023.000000,24350.000000,36843.000000
49613.000000,36936.000000,24232.000000,36726.000000
49540.000000,36882.000000,24148.000000,36656.000000
49462.000000,36815.000000,24057.000000,36569.000000
49364.000000,36724.000000,23947.000000,36459.000000
49286.000000,36655.000000,23860.000000,36383.000000
49239.000000,36614.000000,23799.000000,36340.000000
49177.000000,36553.000000,23716.000000,36264.000000
49090.000000,36470.000000,23614.000000,36162.000000
49018.000000,36412.000000,23538.000000,36103.000000
48968.000000,36378.000000,23479.000000,36067.000000
48897.000000,36319.000000,23388.000000,35986.000000
48805.000000,36239.000000,23277.000000,35876.000000
48742.000000,36188.000000,23196.000000,35798.000000
48706.000000,36163.000000,23139.000000,35744.000000
48650.000000,36115.000000,23061.000000,35664.000000
48581.000000,36051.000000,22974.000000,35577.000000
48545.000000,36021.000000,22925.000000,35536.000000
48536.000000,36015.000000,22901.000000,35516.000000
48509.000000,35986.000000,22860.000000,35468.000000
48480.000000,35956.000000,22825.000000,35428.000000
48490.000000,35968.000000,22836.000000,35452.000000
48517.000000,35992.000000,22863.000000,35494.000000
48519.000000,35988.000000,22865.000000,35490.000000
48521.000000,35984.000000,22870.000000,35482.000000
48562.000000,36023.000000,22917.000000,35529.000000
48613.000000,36071.000000,22975.000000,35591.000000
48639.000000,36093.000000,23005.000000,35624.000000
48664.000000,36117.000000,23040.000000,35673.000000
48719.000000,36178.000000,23114.000000,35766.000000
48780.000000,36241.000000,23189.000000,35840.000000
48808.000000,36264.000000,23224.000000,35852.000000
48833.000000,36282.000000,23253.000000,35863.000000
48886.000000,36327.000000,23311.000000,35921.000000
48929.000000,36360.000000,23358.000000,35969.000000
48925.000000,36346.000000,23362.000000,35965.000000
48911.000000,36329.000000,23363.000000,35962.000000
48927.000000,36342.000000,23388.000000,35992.000000
48939.000000,36350.000000,23401.000000,36001.000000
48917.000000,36326.000000,23376.000000,35964.000000
48894.000000,36307.000000,23351.000000,35936.000000
48892.000000,36312.000000,23340.000000,35931.000000
48872.000000,36300.000000,23306.000000,35889.000000
48819.000000,36261.000000,23240.000000,35804.000000
48774.000000,36235.000000,23183.000000,35743.000000
48748.000000,36225.000000,23140.000000,35712.000000
48699.000000,36186.000000,23067.000000,35646.000000
48622.000000,36114.000000,22963.000000,35546.000000
48557.000000,36058.000000,22875.000000,35475.000000
48508.000000,36019.000000,22806.000000,35430.000000
48438.000000,35953.000000,22712.000000,35346.000000
48346.000000,35865.000000,22599.000000,35234.000000
48277.000000,35804.000000,22516.000000,35158.000000
48229.000000,35763.000000,22452.000000,35107.000000
48153.000000,35693.000000,22356.000000,35020.000000
48055.000000,35603.000000,22239.000000,34910.000000
47984.000000,35546.000000,22152.000000,34842.000000
47932.000000,35507.000000,22080.000000,34795.000000
47850.000000,35439.000000,21977.000000,34713.000000
47753.000000,35360.000000,21865.000000,34618.000000
47687.000000,35314.000000,21787.000000,34559.000000
47633.000000,35277.000000,21719.000000,34501.000000
47558.000000,35207.000000,21621.000000,34395.000000
47482.000000,35128.000000,21520.000000,34289.000000
47442.000000,35088.000000,21459.000000,34237.000000
47416.000000,35060.000000,21413.000000,34200.000000
47364.000000,35005.000000,21338.000000,34122.000000
47307.000000,34949.000000,21265.000000,34040.000000
47280.000000,34929.000000,21229.000000,34001.000000
47257.000000,34916.000000,21196.000000,33963.000000
47207.000000,34876.000000,21135.000000,33889.000000
47161.000000,34843.000000,21079.000000,33830.000000
47150.000000,34847.000000,21057.000000,33819.000000
47140.000000,34847.000000,21028.000000,33801.000000
47096.000000,34809.000000,20960.000000,33738.000000
47055.000000,34774.000000,20896.000000,33678.000000
47051.000000,34774.000000,20867.000000,33658.000000
47042.000000,34768.000000,20832.000000,33630.000000
46994.000000,34723.000000,20769.000000,33566.000000
46944.000000,34680.000000,20718.000000,33522.000000
46918.000000,34660.000000,20692.000000,33517.000000
46880.000000,34624.000000,20652.000000,33489.000000
46811.000000,34562.000000,20585.000000,33421.000000
46755.000000,34518.000000,20534.000000,33375.000000
46728.000000,34504.000000,20505.000000,33355.000000
46691.000000,34478.000000,20458.000000,33299.000000
46635.000000,34432.000000,20392.000000,33212.000000
46603.000000,34410.000000,20353.000000,33162.000000
46603.000000,34415.000000,20342.000000,33147.000000
46592.000000,34399.000000,20312.000000,33101.000000
46562.000000,34361.000000,20261.000000,33034.000000
46548.000000,34343.000000,20233.000000,33014.000000
46547.000000,34343.000000,20224.000000,33019.000000
46517.000000,34314.000000,20187.000000,32983.000000
46470.000000,34269.000000,20131.000000,32928.000000
46452.000000,34255.000000,20098.000000,32913.000000
46450.000000,34260.000000,20080.000000,32916.000000
46419.000000,34234.000000,20033.000000,32881.000000
46374.000000,34192.000000,19972.000000,32825.000000
46358.000000,34178.000000,19940.000000,32795.000000
46355.000000,34177.000000,19920.000000,32769.000000
46320.000000,34141.000000,19869.000000,32699.000000
46263.000000,34086.000000,19803.000000,32623.000000
46223.000000,34056.000000,19762.000000,32596.000000
46189.000000,34032.000000,19721.000000,32576.000000
46122.000000,33974.000000,19643.000000,32505.000000
46049.000000,33908.000000,19558.000000,32423.000000
46008.000000,33869.000000,19503.000000,32387.000000
45972.000000,33834.000000,19450.000000,32355.000000
45906.000000,33765.000000,19364.000000,32278.000000
45834.000000,33694.000000,19278.000000,32201.000000
45788.000000,33657.000000,19223.000000,32168.000000
45741.000000,33623.000000,19164.000000,32131.000000
45662.000000,33559.000000,19076.000000,32049.000000
45591.000000,33504.000000,18998.000000,31972.000000
45565.000000,33493.000000,18967.000000,31940.000000
45551.000000,33493.000000,18952.000000,31912.000000
45525.000000,33475.000000,18930.000000,31863.000000
45530.000000,33485.000000,18944.000000,31850.000000
45603.000000,33556.000000,19027.000000,31904.000000
45717.000000,33660.000000,19155.000000,31992.000000
45848.000000,33776.000000,19314.000000,32109.000000
46030.000000,33942.000000,19546.000000,32303.000000
46282.000000,34171.000000,19856.000000,32579.000000
46557.000000,34414.000000,20193.000000,32875.000000
46829.000000,34651.000000,20534.000000,33178.000000
47135.000000,34917.000000,20918.000000,33539.000000
47482.000000,35220.000000,21342.000000,33957.000000
47818.000000,35509.000000,21755.000000,34362.000000
48128.000000,35768.000000,22142.000000,34733.000000
48441.000000,36032.000000,22536.000000,35120.000000
48753.000000,36299.000000,22924.000000,35510.000000
49016.000000,36521.000000,23255.000000,35829.000000
49223.000000,36697.000000,23529.000000,36080.000000
49422.000000,36871.000000,23790.000000,36334.000000
49607.000000,37033.000000,24029.000000,36575.000000
49731.000000,37133.000000,24198.000000,36736.000000
49805.000000,37183.000000,24308.000000,36836.000000
49881.000000,37236.000000,24410.000000,36947.000000
49947.000000,37279.000000,24490.000000,37051.000000
49956.000000,37266.000000,24508.000000,37089.000000
49920.000000,37218.000000,24488.000000,37084.000000
49890.000000,37189.000000,24472.000000,37089.000000
49856.000000,37163.000000,24435.000000,37070.000000
49779.000000,37092.000000,24342.000000,36979.000000
49681.000000,37002.000000,24227.000000,36864.000000
49603.000000,36938.000000,24133.000000,36785.000000
49520.000000,36871.000000,24033.000000,36705.000000
49396.000000,36763.000000,23890.000000,36570.000000
49261.000000,36649.000000,23737.000000,36417.000000
49157.000000,36569.000000,23615.000000,36291.000000
49058.000000,36493.000000,23493.000000,36153.000000
48931.000000,36387.000000,23343.000000,35967.000000
48807.000000,36288.000000,23203.000000,35794.000000
48723.000000,36233.000000,23108.000000,35687.000000
48651.000000,36183.000000,23022.000000,35600.000000
48560.000000,36103.000000,22913.000000,35496.000000
48481.000000,36031.000000,22821.000000,35417.000000
48440.000000,35998.000000,22767.000000,35378.000000
48398.000000,35960.000000,22708.000000,35322.000000
48326.000000,35891.000000,22619.000000,35230.000000
48260.000000,35829.000000,22537.000000,35157.000000
48222.000000,35795.000000,22476.000000,35110.000000
48176.000000,35749.000000,22398.000000,35031.000000
48102.000000,35675.000000,22293.000000,34914.000000
48046.000000,35623.000000,22210.000000,34841.000000
48023.000000,35607.000000,22166.000000,34827.000000
47991.000000,35579.000000,22115.000000,34795.000000
47938.000000,35528.000000,22045.000000,34729.000000
47910.000000,35504.000000,22005.000000,34692.000000
47917.000000,35519.000000,22003.000000,34695.000000
47915.000000,35526.000000,21992.000000,34678.000000
47904.000000,35521.000000,21974.000000,34648.000000
47929.000000,35553.000000,21999.000000,34684.000000
47988.000000,35615.000000,22058.000000,34771.000000
48034.000000,35658.000000,22101.000000,34836.000000
48065.000000,35686.000000,22136.000000,34887.000000
48123.000000,35744.000000,22204.000000,34972.000000
48196.000000,35817.000000,22289.000000,35063.000000
48240.000000,35861.000000,22349.000000,35114.000000
48271.000000,35891.000000,22399.000000,35160.000000
48334.000000,35953.000000,22480.000000,35250.000000
48412.000000,36028.000000,22572.000000,35345.000000
48462.000000,36071.000000,22632.000000,35405.000000
48501.000000,36106.000000,22678.000000,35459.000000
48565.000000,36168.000000,22751.000000,35541.000000
48629.000000,36231.000000,22823.000000,35604.000000
48653.000000,36252.000000,22853.000000,35604.000000
48657.000000,36254.000000,22863.000000,35585.000000
48681.000000,36279.000000,22892.000000,35599.000000
48707.000000,36301.000000,22914.000000,35614.000000
48700.000000,36285.000000,22896.000000,35589.000000
48684.000000,36259.000000,22869.000000,35556.000000
48689.000000,36256.000000,22862.000000,35550.000000
48685.000000,36242.000000,22841.000000,35529.000000
48641.000000,36188.000000,22778.000000,35464.000000
48592.000000,36136.000000,22714.000000,35416.000000
48569.000000,36115.000000,22678.000000,35413.000000
48538.000000,36086.000000,22632.000000,35395.000000
48473.000000,36019.000000,22547.000000,35332.000000
48412.000000,35954.000000,22461.000000,35279.000000
48384.000000,35924.000000,22401.000000,35259.000000
48346.000000,35887.000000,22328.000000,35207.000000
48266.000000,35815.000000,22221.000000,35099.000000
48187.000000,35750.000000,22125.000000,35013.000000
48132.000000,35715.000000,22054.000000,34965.000000
48061.000000,35664.000000,21965.000000,34876.000000
47956.000000,35581.000000,21843.000000,34734.000000
47861.000000,35507.000000,21734.000000,34611.000000
47788.000000,35453.000000,21650.000000,34518.000000
47702.000000,35377.000000,21548.000000,34403.000000
47594.000000,35276.000000,21428.000000,34278.000000
47507.000000,35199.000000,21336.000000,34203.000000
47443.000000,35143.000000,21269.000000,34154.000000
47362.000000,35066.000000,21180.000000,34063.000000
47267.000000,34975.000000,21077.000000,33952.000000
47204.000000,34920.000000,21007.000000,33885.000000
47170.000000,34893.000000,20962.000000,33845.000000
47122.000000,34846.000000,20891.000000,33771.000000
47062.000000,34785.000000,20802.000000,33682.000000
47032.000000,34756.000000,20745.000000,33634.000000
47023.000000,34747.000000,20710.000000,33597.000000
46987.000000,34716.000000,20655.000000,33522.000000
46939.000000,34677.000000,20597.000000,33455.000000
46922.000000,34671.000000,20572.000000,33443.000000
46919.000000,34672.000000,20554.000000,33434.000000
46886.000000,34637.000000,20504.000000,33367.000000
46840.000000,34593.000000,20448.000000,33291.000000
46823.000000,34583.000000,20426.000000,33267.000000
46816.000000,34580.000000,20413.000000,33258.000000
46780.000000,34548.000000,20366.000000,33212.000000
46733.000000,34512.000000,20314.000000,33156.000000
46716.000000,34507.000000,20292.000000,33138.000000
46706.000000,34505.000000,20273.000000,33132.000000
46668.000000,34472.000000,20222.000000,33088.000000
46630.000000,34438.000000,20173.000000,33050.000000
46624.000000,34438.000000,20157.000000,33059.000000
46623.000000,34438.000000,20139.000000,33063.000000
46597.000000,34407.000000,20093.000000,33026.000000
46581.000000,34385.000000,20058.000000,32998.000000
46602.000000,34401.000000,20061.000000,33011.000000
46624.000000,34415.000000,20060.000000,33020.000000
46613.000000,34394.000000,20026.000000,32994.000000
46604.000000,34377.000000,19999.000000,32978.000000
46619.000000,34385.000000,19997.000000,32993.000000
46617.000000,34379.000000,19983.000000,32980.000000
46579.000000,34338.000000,19941.000000,32922.000000
46541.000000,34307.000000,19910.000000,32881.000000
46517.000000,34297.000000,19895.000000,32864.000000
46467.000000,34265.000000,19848.000000,32803.000000
46384.000000,34196.000000,19764.000000,32694.000000
46310.000000,34136.000000,19688.000000,32601.000000
46254.000000,34095.000000,19627.000000,32532.000000
46174.000000,34030.000000,19541.000000,32436.000000
46073.000000,33945.000000,19435.000000,32330.000000
45996.000000,33887.000000,19357.000000,32275.000000
45947.000000,33854.000000,19299.000000,32255.000000
45881.000000,33799.000000,19216.000000,32199.000000
45801.000000,33727.000000,19121.000000,32114.000000
45758.000000,33694.000000,19072.000000,32072.000000
45757.000000,33701.000000,19067.000000,32065.000000
45761.000000,33708.000000,19066.000000,32044.000000
45783.000000,33728.000000,19089.000000,32047.000000
45869.000000,33811.000000,19192.000000,32147.000000
46013.000000,33949.000000,19363.000000,32319.000000
46173.000000,34095.000000,19558.000000,32503.000000
46360.000000,34261.000000,19791.000000,32721.000000
46612.000000,34485.000000,20096.000000,33011.000000
46906.000000,34739.000000,20443.000000,33332.000000
47191.000000,34973.000000,20784.000000,33630.000000
47475.000000,35207.000000,21137.000000,33935.000000
47791.000000,35480.000000,21529.000000,34291.000000
48109.000000,35759.000000,21925.000000,34656.000000
48390.000000,36002.000000,22279.000000,34983.000000
48659.000000,36235.000000,22617.000000,35313.000000
48946.000000,36487.000000,22967.000000,35664.000000
49213.000000,36715.000000,23288.000000,35979.000000
49421.000000,36882.000000,23544.000000,36219.000000
49598.000000,37024.000000,23770.000000,36438.000000
49771.000000,37170.000000,23992.000000,36663.000000
49908.000000,37283.000000,24169.000000,36837.000000
49979.000000,37329.000000,24272.000000,36935.000000
50022.000000,37350.000000,24339.000000,37009.000000
50065.000000,37379.000000,24398.000000,37081.000000
50078.000000,37381.000000,24414.000000,37106.000000
50039.000000,37337.000000,24377.000000,37071.000000
49984.000000,37285.000000,24328.000000,37026.000000
49931.000000,37239.000000,24280.000000,36977.000000
49842.000000,37160.000000,24191.000000,36873.000000
49708.000000,37037.000000,24055.000000,36714.000000
49575.000000,36919.000000,23921.000000,36570.000000
49464.000000,36824.000000,23801.000000,36456.000000
49334.000000,36708.000000,23652.000000,36316.000000
49180.000000,36571.000000,23476.000000,36151.000000
49048.000000,36465.000000,23327.000000,36020.000000
48944.000000,36389.000000,23204.000000,35915.000000
48825.000000,36292.000000,23058.000000,35770.000000
48690.000000,36181.000000,22898.000000,35603.000000
48587.000000,36106.000000,22780.000000,35486.000000
48514.000000,36059.000000,22693.000000,35413.000000
48419.000000,35986.000000,22583.000000,35312.000000
48308.000000,35892.000000,22459.000000,35196.000000
48229.000000,35824.000000,22371.000000,35120.000000
48171.000000,35775.000000,22301.000000,35060.000000
48087.000000,35697.000000,22198.000000,34950.000000
47987.000000,35606.000000,22078.000000,34816.000000
47917.000000,35548.000000,21985.000000,34716.000000
47863.000000,35501.000000,21900.000000,34627.000000
47786.000000,35424.000000,21790.000000,34506.000000
47705.000000,35345.000000,21685.000000,34394.000000
47663.000000,35309.000000,21627.000000,34345.000000
47643.000000,35296.000000,21592.000000,34321.000000
47604.000000,35265.000000,21539.000000,34266.000000
47569.000000,35244.000000,21497.000000,34220.000000
47576.000000,35271.000000,21502.000000,34224.000000
47599.000000,35311.000000,21521.000000,34236.000000
47608.000000,35325.000000,21525.000000,34225.000000
47635.000000,35352.000000,21552.000000,34249.000000
47716.000000,35425.000000,21634.000000,34346.000000
47813.000000,35505.000000,21730.000000,34455.000000
47882.000000,35553.000000,21800.000000,34529.000000
47951.000000,35605.000000,21876.000000,34615.000000
48048.000000,35689.000000,21985.000000,34738.000000
48133.000000,35757.000000,22083.000000,34835.000000
48178.000000,35786.000000,22146.000000,34881.000000
48223.000000,35822.000000,22214.000000,34942.000000
48289.000000,35882.000000,22305.000000,35033.000000
48339.000000,35921.000000,22371.000000,35087.000000
48354.000000,35922.000000,22395.000000,35096.000000
48375.000000,35930.000000,22422.000000,35132.000000
48412.000000,35960.000000,22463.000000,35192.000000
48422.000000,35966.000000,22472.000000,35199.000000
48399.000000,35940.000000,22442.000000,35154.000000
48382.000000,35926.000000,22421.000000,35126.000000
48377.000000,35929.000000,22412.000000,35114.000000
48346.000000,35906.000000,22376.000000,35069.000000
48286.000000,35859.000000,22316.000000,34999.000000
48243.000000,35832.000000,22273.000000,34963.000000
48218.000000,35824.000000,22238.000000,34950.000000
48170.000000,35785.000000,22172.000000,34893.000000
48103.000000,35720.000000,22085.000000,34813.000000
48063.000000,35682.000000,22026.000000,34778.000000
48037.000000,35660.000000,21982.000000,34759.000000
47976.000000,35603.000000,21902.000000,34685.000000
47888.000000,35519.000000,21798.000000,34586.000000
47818.000000,35458.000000,21715.000000,34523.000000
47754.000000,35404.000000,21634.000000,34458.000000
47656.000000,35311.000000,21513.000000,34331.000000
47541.000000,35201.000000,21376.000000,34187.000000
47454.000000,35122.000000,21268.000000,34088.000000
47377.000000,35056.000000,21169.000000,33999.000000
47274.000000,34964.000000,21040.000000,33868.000000
47168.000000,34873.000000,20912.000000,33739.000000
47101.000000,34817.000000,20822.000000,33667.000000
47044.000000,34769.000000,20740.000000,33606.000000
46955.000000,34689.000000,20628.000000,33500.000000
46860.000000,34607.000000,20520.000000,33386.000000
46800.000000,34561.000000,20452.000000,33313.000000
46750.000000,34518.000000,20391.000000,33243.000000
46679.000000,34451.000000,20307.000000,33148.000000
46619.000000,34399.000000,20237.000000,33086.000000
46598.000000,34388.000000,20210.000000,33084.000000
46574.000000,34374.000000,20184.000000,33072.000000
46518.000000,34325.000000,20126.000000,33013.000000
46468.000000,34284.000000,20077.000000,32956.000000
46452.000000,34278.000000,20056.000000,32925.000000
46429.000000,34260.000000,20022.000000,32874.000000
46375.000000,34206.000000,19960.000000,32790.000000
46328.000000,34165.000000,19913.000000,32735.000000
46310.000000,34155.000000,19893.000000,32728.000000
46282.000000,34130.000000,19852.000000,32698.000000
46226.000000,34076.000000,19780.000000,32626.000000
46187.000000,34041.000000,19725.000000,32573.000000
46177.000000,34038.000000,19698.000000,32547.000000
46154.000000,34022.000000,19656.000000,32486.000000
46105.000000,33981.000000,19595.000000,32392.000000
46075.000000,33960.000000,19558.000000,32333.000000
46070.000000,33963.000000,19542.000000,32304.000000
46045.000000,33942.000000,19499.000000,32241.000000
45997.000000,33899.000000,19436.000000,32159.000000
45973.000000,33884.000000,19402.000000,32137.000000
45971.000000,33889.000000,19391.000000,32163.000000
45945.000000,33863.000000,19354.000000,32162.000000
45896.000000,33817.000000,19300.000000,32135.000000
45872.000000,33801.000000,19275.000000,32141.000000
45865.000000,33805.000000,19264.000000,32158.000000
45825.000000,33775.000000,19213.000000,32117.000000
45763.000000,33722.000000,19141.000000,32047.000000
45726.000000,33696.000000,19099.000000,32013.000000
45705.000000,33681.000000,19067.000000,31987.000000
45654.000000,33631.000000,19002.000000,31916.000000
45589.000000,33567.000000,18927.000000,31836.000000
45548.000000,33532.000000,18883.000000,31792.000000
45512.000000,33501.000000,18844.000000,31746.000000
45444.000000,33435.000000,18773.000000,31654.000000
45372.000000,33364.000000,18697.000000,31567.000000
45338.000000,33333.000000,18660.000000,31545.000000
45325.000000,33318.000000,18636.000000,31546.000000
45301.000000,33288.000000,18597.000000,31517.000000
45295.000000,33281.000000,18585.000000,31506.000000
45349.000000,33340.000000,18644.000000,31572.000000
45441.000000,33431.000000,18745.000000,31675.000000
45541.000000,33524.000000,18860.000000,31774.000000
45684.000000,33657.000000,19033.000000,31913.000000
45899.000000,33862.000000,19291.000000,32131.000000
46149.000000,34093.000000,19594.000000,32381.000000
46401.000000,34317.000000,19909.000000,32636.000000
46690.000000,34571.000000,20268.000000,32946.000000
47029.000000,34866.000000,20679.000000,33323.000000
47365.000000,35153.000000,21086.000000,33695.000000
47667.000000,35407.000000,21465.000000,34034.000000
47968.000000,35667.000000,21852.000000,34394.000000
48283.000000,35940.000000,22248.000000,34779.000000
48567.000000,36179.000000,22606.000000,35127.000000
48804.000000,36370.000000,22919.000000,35435.000000
49032.000000,36559.000000,23223.000000,35756.000000
49257.000000,36748.000000,23513.000000,36066.000000
49429.000000,36885.000000,23738.000000,36285.000000
49546.000000,36972.000000,23904.000000,36434.000000
49658.000000,37063.000000,24066.000000,36600.000000
49770.000000,37158.000000,24216.000000,36773.000000
49835.000000,37205.000000,24304.000000,36878.000000
49849.000000,37210.000000,24341.000000,36921.000000
49864.000000,37222.000000,24375.000000,36971.000000
49880.000000,37236.000000,24399.000000,37026.000000
49847.000000,37206.000000,24367.000000,37021.000000
49777.000000,37141.000000,24294.000000,36956.000000
49718.000000,37091.000000,24229.000000,36891.000000
49662.000000,37042.000000,24159.000000,36816.000000
49569.000000,36952.000000,24046.000000,36690.000000
49460.000000,36846.000000,23915.000000,36549.000000
49374.000000,36769.000000,23807.000000,36440.000000
49293.000000,36699.000000,23703.000000,36326.000000
49182.000000,36596.000000,23569.000000,36176.000000
49068.000000,36492.000000,23436.000000,36045.000000
48991.000000,36427.000000,23341.000000,35976.000000
48922.000000,36371.000000,23251.000000,35908.000000
48821.000000,36282.000000,23130.000000,35799.000000
48718.000000,36193.000000,23013.000000,35698.000000
48645.000000,36140.000000,22931.000000,35628.000000
48572.000000,36087.000000,22847.000000,35534.000000
48469.000000,35997.000000,22730.000000,35391.000000
48372.000000,35913.000000,22620.000000,35263.000000
48313.000000,35870.000000,22548.000000,35193.000000
48257.000000,35830.000000,22478.000000,35136.000000
48175.000000,35759.000000,22381.000000,35046.000000
48105.000000,35699.000000,22294.000000,34968.000000
48083.000000,35682.000000,22244.000000,34944.000000
48070.000000,35667.000000,22193.000000,34917.000000
48035.000000,35630.000000,22122.000000,34858.000000
48015.000000,35613.000000,22076.000000,34835.000000
48031.000000,35635.000000,22067.000000,34864.000000
48042.000000,35650.000000,22055.000000,34877.000000
48031.000000,35646.000000,22034.000000,34867.000000
48035.000000,35662.000000,22047.000000,34891.000000
48068.000000,35707.000000,22097.000000,34939.000000
48091.000000,35737.000000,22137.000000,34952.000000
48098.000000,35747.000000,22166.000000,34938.000000
48134.000000,35782.000000,22225.000000,34972.000000
48209.000000,35846.000000,22314.000000,35050.000000
48276.000000,35892.000000,22383.000000,35095.000000
48327.000000,35921.000000,22437.000000,35116.000000
48401.000000,35978.000000,22516.000000,35183.000000
48487.000000,36046.000000,22606.000000,35268.000000
48542.000000,36077.000000,22662.000000,35311.000000
48574.000000,36087.000000,22694.000000,35338.000000
48624.000000,36125.000000,22746.000000,35394.000000
48678.000000,36179.000000,22802.000000,35456.000000
48693.000000,36196.000000,22815.000000,35476.000000
48682.000000,36190.000000,22803.000000,35465.000000
48690.000000,36208.000000,22813.000000,35473.000000
48700.000000,36230.000000,22826.000000,35480.000000
48669.000000,36210.000000,22803.000000,35438.000000
48624.000000,36174.000000,22768.000000,35401.000000
48609.000000,36165.000000,22762.000000,35417.000000
48603.000000,36157.000000,22756.000000,35425.000000
48564.000000,36112.000000,22709.000000,35367.000000
48514.000000,36058.000000,22649.000000,35295.000000
48490.000000,36036.000000,22618.000000,35270.000000
48468.000000,36015.000000,22583.000000,35250.000000
48412.000000,35956.000000,22509.000000,35180.000000
48352.000000,35893.000000,22428.000000,35114.000000
48321.000000,35861.000000,22375.000000,35091.000000
48282.000000,35825.000000,22310.000000,35051.000000
48202.000000,35753.000000,22203.000000,34956.000000
48120.000000,35686.000000,22096.000000,34871.000000
48068.000000,35652.000000,22020.000000,34831.000000
48008.000000,35604.000000,21937.000000,34774.000000
47914.000000,35518.000000,21824.000000,34664.000000
47829.000000,35441.000000,21724.000000,34562.000000
47781.000000,35400.000000,21656.000000,34499.000000
47729.000000,35351.000000,21581.000000,34421.000000
47646.000000,35273.000000,21481.000000,34310.000000
47571.000000,35208.000000,21397.000000,34222.000000
47526.000000,35172.000000,21342.000000,34175.000000
47472.000000,35122.000000,21276.000000,34109.000000
47394.000000,35047.000000,21184.000000,34009.000000
47332.000000,34992.000000,21111.000000,33938.000000
47297.000000,34966.000000,21063.000000,33905.000000
47246.000000,34921.000000,20998.000000,33846.000000
47175.000000,34850.000000,20912.000000,33755.000000
47125.000000,34802.000000,20847.000000,33691.000000
47102.000000,34782.000000,20804.000000,33658.000000
47063.000000,34748.000000,20742.000000,33600.000000
47008.000000,34701.000000,20666.000000,33516.000000
46976.000000,34682.000000,20620.000000,33457.000000
46958.000000,34680.000000,20587.000000,33408.000000
46909.000000,34645.000000,20524.000000,33315.000000
46844.000000,34591.000000,20451.000000,33216.000000
46814.000000,34572.000000,20419.000000,33193.000000
46811.000000,34576.000000,20407.000000,33213.000000
46787.000000,34557.000000,20369.000000,33201.000000
46751.000000,34531.000000,20325.000000,33177.000000
46744.000000,34534.000000,20313.000000,33186.000000
46752.000000,34545.000000,20311.000000,33204.000000
46732.000000,34525.000000,20280.000000,33188.000000
46701.000000,34498.000000,20243.000000,33172.000000
46695.000000,34502.000000,20236.000000,33194.000000
46689.000000,34505.000000,20227.000000,33199.000000
46648.000000,34469.000000,20181.000000,33145.000000
46601.000000,34428.000000,20132.000000,33085.000000
46587.000000,34423.000000,20120.000000,33071.000000
46579.000000,34422.000000,20108.000000,33056.000000
46542.000000,34387.000000,20062.000000,32996.000000
46509.000000,34351.000000,20020.000000,32945.000000
46511.000000,34346.000000,20009.000000,32943.000000
46507.000000,34332.000000,19985.000000,32931.000000
46464.000000,34276.000000,19920.000000,32866.000000
46419.000000,34219.000000,19856.000000,32808.000000
46406.000000,34194.000000,19826.000000,32788.000000
46388.000000,34166.000000,19788.000000,32750.000000
46338.000000,34111.000000,19721.000000,32674.000000
46291.000000,34070.000000,19662.000000,32614.000000
46269.000000,34058.000000,19630.000000,32583.000000
46235.000000,34030.000000,19580.000000,32522.000000
46169.000000,33970.000000,19500.000000,32423.000000
46117.000000,33927.000000,19440.000000,32356.000000
46096.000000,33917.000000,19413.000000,32324.000000
46065.000000,33893.000000,19376.000000,32268.000000
46015.000000,33850.000000,19327.000000,32201.000000
46000.000000,33843.000000,19322.000000,32193.000000
46037.000000,33886.000000,19368.000000,32247.000000
46090.000000,33937.000000,19426.000000,32295.000000
46159.000000,33999.000000,19508.000000,32356.000000
46295.000000,34125.000000,19671.000000,32519.000000
46495.000000,34312.000000,19908.000000,32767.000000
46712.000000,34510.000000,20169.000000,33020.000000
46951.000000,34726.000000,20461.000000,33297.000000
47252.000000,35000.000000,20828.000000,33663.000000
47593.000000,35308.000000,21246.000000,34078.000000
47917.000000,35591.000000,21654.000000,34462.000000
48232.000000,35857.000000,22057.000000,34836.000000
48577.000000,36146.000000,22492.000000,35245.000000
48928.000000,36436.000000,22928.000000,35647.000000
49231.000000,36677.000000,23312.000000,35985.000000
49496.000000,36890.000000,23659.000000,36289.000000
49765.000000,37115.000000,24007.000000,36613.000000
50014.000000,37324.000000,24330.000000,36919.000000
50197.000000,37470.000000,24582.000000,37150.000000
50337.000000,37579.000000,24789.000000,37344.000000
50478.000000,37699.000000,24989.000000,37553.000000
50598.000000,37800.000000,25153.000000,37729.000000
50659.000000,37843.000000,25245.000000,37829.000000
50690.000000,37865.000000,25303.000000,37915.000000
50728.000000,37901.000000,25363.000000,38019.000000
50745.000000,37915.000000,25388.000000,38075.000000
50709.000000,37874.000000,25353.000000,38049.000000
50658.000000,37823.000000,25299.000000,38008.000000
50627.000000,37797.000000,25258.000000,37996.000000
50583.000000,37757.000000,25190.000000,37953.000000
50498.000000,37674.000000,25076.000000,37838.000000
50407.000000,37592.000000,24963.000000,37719.000000
50343.000000,37541.000000,24879.000000,37635.000000
50273.000000,37480.000000,24787.000000,37534.000000
50175.000000,37390.000000,24666.000000,37394.000000
50088.000000,37316.000000,24562.000000,37265.000000
50038.000000,37279.000000,24493.000000,37176.000000
49989.000000,37237.000000,24420.000000,37085.000000
49921.000000,37174.000000,24330.000000,36982.000000
49874.000000,37132.000000,24262.000000,36913.000000
49856.000000,37122.000000,24223.000000,36881.000000
49826.000000,37096.000000,24171.000000,36837.000000
49775.000000,37049.000000,24104.000000,36787.000000
49742.000000,37021.000000,24061.000000,36779.000000
49728.000000,37012.000000,24032.000000,36794.000000
49687.000000,36974.000000,23975.000000,36766.000000
49617.000000,36912.000000,23899.000000,36706.000000
49565.000000,36875.000000,23851.000000,36677.000000
49532.000000,36854.000000,23817.000000,36662.000000
49475.000000,36802.000000,23748.000000,36591.000000
49405.000000,36734.000000,23662.000000,36499.000000
49369.000000,36703.000000,23612.000000,36458.000000
49359.000000,36695.000000,23583.000000,36432.000000
49330.000000,36665.000000,23533.000000,36369.000000
49297.000000,36632.000000,23485.000000,36303.000000
49305.000000,36640.000000,23483.000000,36294.000000
49334.000000,36666.000000,23504.000000,36310.000000
49337.000000,36663.000000,23500.000000,36285.000000
49333.000000,36659.000000,23498.000000,36260.000000
49369.000000,36699.000000,23541.000000,36308.000000
49424.000000,36754.000000,23602.000000,36385.000000
49459.000000,36784.000000,23639.000000,36427.000000
49496.000000,36816.000000,23676.000000,36468.000000
49567.000000,36883.000000,23746.000000,36544.000000
49636.000000,36946.000000,23817.000000,36608.000000
49668.000000,36972.000000,23854.000000,36627.000000
49698.000000,36998.000000,23893.000000,36663.000000
49755.000000,37053.000000,23963.000000,36742.000000
49806.000000,37098.000000,24021.000000,36805.000000
49820.000000,37099.000000,24040.000000,36817.000000
49832.000000,37097.000000,24059.000000,36830.000000
49874.000000,37125.000000,24107.000000,36883.000000
49905.000000,37145.000000,24141.000000,36920.000000
49892.000000,37126.000000,24136.000000,36908.000000
49874.000000,37107.000000,24133.000000,36912.000000
49875.000000,37110.000000,24146.000000,36945.000000
49856.000000,37089.000000,24127.000000,36935.000000
49800.000000,37029.000000,24067.000000,36871.000000
49752.000000,36980.000000,24011.000000,36819.000000
49724.000000,36956.000000,23967.000000,36788.000000
49673.000000,36908.000000,23892.000000,36717.000000
49587.000000,36824.000000,23781.000000,36602.000000
49513.000000,36754.000000,23683.000000,36516.000000
49462.000000,36708.000000,23606.000000,36455.000000
49386.000000,36640.000000,23506.000000,36354.000000
49281.000000,36549.000000,23384.000000,36235.000000
49190.000000,36482.000000,23284.000000,36162.000000
49116.000000,36434.000000,23202.000000,36113.000000
49020.000000,36361.000000,23094.000000,36015.000000
48904.000000,36269.000000,22969.000000,35878.000000
48813.000000,36207.000000,22870.000000,35768.000000
48743.000000,36166.000000,22790.000000,35680.000000
48649.000000,36096.000000,22683.000000,35553.000000
48543.000000,36010.000000,22563.000000,35403.000000
48476.000000,35957.000000,22477.000000,35299.000000
48434.000000,35926.000000,22408.000000,35216.000000
48369.000000,35867.000000,22313.000000,35097.000000
48296.000000,35801.000000,22215.000000,34990.000000
48257.000000,35771.000000,22158.000000,34950.000000
48229.000000,35748.000000,22114.000000,34920.000000
48170.000000,35690.000000,22041.000000,34849.000000
48100.000000,35619.000000,21960.000000,34764.000000
48056.000000,35578.000000,21908.000000,34710.000000
48014.000000,35540.000000,21857.000000,34660.000000
47937.000000,35468.000000,21771.000000,34564.000000
47855.000000,35392.000000,21683.000000,34468.000000
47809.000000,35352.000000,21631.000000,34426.000000
47771.000000,35320.000000,21583.000000,34397.000000
47708.000000,35263.000000,21512.000000,34337.000000
47655.000000,35216.000000,21453.000000,34283.000000
47642.000000,35208.000000,21433.000000,34268.000000
47634.000000,35198.000000,21409.000000,34245.000000
47597.000000,35159.000000,21357.000000,34186.000000
47567.000000,35132.000000,21318.000000,34156.000000
47571.000000,35142.000000,21311.000000,34178.000000
47566.000000,35142.000000,21292.000000,34183.000000
47524.000000,35108.000000,21241.000000,34144.000000
47491.000000,35083.000000,21203.000000,34122.000000
47489.000000,35087.000000,21191.000000,34129.000000
47470.000000,35073.000000,21158.000000,34092.000000
47420.000000,35028.000000,21097.000000,34010.000000
47384.000000,34997.000000,21055.000000,33956.000000
47375.000000,34993.000000,21038.000000,33935.000000
47352.000000,34974.000000,21003.000000,33892.000000
47311.000000,34938.000000,20949.000000,33829.000000
47294.000000,34929.000000,20924.000000,33802.000000
47300.000000,34941.000000,20923.000000,33800.000000
47285.000000,34925.000000,20894.000000,33762.000000
47250.000000,34886.000000,20841.000000,33706.000000
47235.000000,34871.000000,20809.000000,33686.000000
47230.000000,34869.000000,20786.000000,33671.000000
47192.000000,34831.000000,20727.000000,33604.000000
47133.000000,34771.000000,20648.000000,33510.000000
47100.000000,34740.000000,20595.000000,33453.000000
47077.000000,34724.000000,20552.000000,33412.000000
47020.000000,34674.000000,20480.000000,33336.000000
46946.000000,34607.000000,20396.000000,33253.000000
46898.000000,34570.000000,20344.000000,33208.000000
46861.000000,34544.000000,20303.000000,33172.000000
46792.000000,34486.000000,20229.000000,33099.000000
46708.000000,34416.000000,20144.000000,33012.000000
46653.000000,34380.000000,20094.000000,32961.000000
46613.000000,34360.000000,20058.000000,32919.000000
46557.000000,34321.000000,20010.000000,32861.000000
46522.000000,34299.000000,19988.000000,32840.000000
46550.000000,34333.000000,20034.000000,32896.000000
46619.000000,34397.000000,20121.000000,32977.000000
46699.000000,34464.000000,20223.000000,33048.000000
46823.000000,34575.000000,20382.000000,33171.000000
47030.000000,34767.000000,20634.000000,33402.000000
47285.000000,34998.000000,20936.000000,33700.000000
47546.000000,35225.000000,21251.000000,34018.000000
47836.000000,35478.000000,21605.000000,34388.000000
48178.000000,35778.000000,22015.000000,34824.000000
48524.000000,36076.000000,22433.000000,35256.000000
48837.000000,36340.000000,22828.000000,35644.000000
49146.000000,36602.000000,23229.000000,36028.000000
49469.000000,36881.000000,23644.000000,36419.000000
49766.000000,37133.000000,24025.000000,36762.000000
50014.000000,37336.000000,24355.000000,37046.000000
50250.000000,37529.000000,24671.000000,37337.000000
50490.000000,37729.000000,24979.000000,37648.000000
50689.000000,37887.000000,25233.000000,37908.000000
50829.000000,37991.000000,25420.000000,38097.000000
50953.000000,38087.000000,25589.000000,38274.000000
51072.000000,38184.000000,25745.000000,38445.000000
51146.000000,38236.000000,25844.000000,38540.000000
51168.000000,38245.000000,25889.000000,38564.000000
51186.000000,38257.000000,25929.000000,38594.000000
51210.000000,38273.000000,25964.000000,38637.000000
51196.000000,38250.000000,25947.000000,38633.000000
51146.000000,38194.000000,25888.000000,38587.000000
51101.000000,38150.000000,25838.000000,38552.000000
51058.000000,38110.000000,25787.000000,38513.000000
50979.000000,38030.000000,25696.000000,38422.000000
50877.000000,37925.000000,25577.000000,38304.000000
50798.000000,37850.000000,25477.000000,38216.000000
50732.000000,37794.000000,25381.000000,38141.000000
50641.000000,37716.000000,25258.000000,38033.000000
50543.000000,37635.000000,25136.000000,37918.000000
50480.000000,37594.000000,25055.000000,37852.000000
50435.000000,37571.000000,24991.000000,37798.000000
50366.000000,37521.000000,24899.000000,37697.000000
50291.000000,37463.000000,24806.000000,37588.000000
50251.000000,37439.000000,24748.000000,37520.000000
50222.000000,37419.000000,24698.000000,37453.000000
50163.000000,37362.000000,24620.000000,37345.000000
50100.000000,37301.000000,24543.000000,37251.000000
50072.000000,37275.000000,24503.000000,37223.000000
50045.000000,37251.000000,24459.000000,37201.000000
49984.000000,37193.000000,24376.000000,37138.000000
49926.000000,37138.000000,24296.000000,37083.000000
49906.000000,37119.000000,24253.000000,37073.000000
49886.000000,37097.000000,24209.000000,37056.000000
49834.000000,37041.000000,24136.000000,36997.000000
49790.000000,36994.000000,24079.000000,36954.000000
49787.000000,36990.000000,24067.000000,36961.000000
49788.000000,36991.000000,24057.000000,36956.000000
49767.000000,36972.000000,24027.000000,36912.000000
49762.000000,36975.000000,24023.000000,36900.000000
49793.000000,37013.000000,24056.000000,36935.000000
49817.000000,37041.000000,24076.000000,36943.000000
49820.000000,37046.000000,24075.000000,36923.000000
49841.000000,37074.000000,24102.000000,36943.000000
49891.000000,37131.000000,24165.000000,37003.000000
49926.000000,37172.000000,24218.000000,37036.000000
49938.000000,37190.000000,24252.000000,37040.000000
49969.000000,37224.000000,24308.000000,37076.000000
50024.000000,37275.000000,24379.000000,37135.000000
50061.000000,37296.000000,24420.000000,37155.000000
50079.000000,37294.000000,24441.000000,37156.000000
50118.000000,37320.000000,24492.000000,37199.000000
50172.000000,37366.000000,24556.000000,37262.000000
50195.000000,37379.000000,24581.000000,37278.000000
50196.000000,37370.000000,24581.000000,37263.000000
50219.000000,37389.000000,24600.000000,37280.000000
50252.000000,37417.000000,24623.000000,37306.000000
50247.000000,37406.000000,24606.000000,37281.000000
50218.000000,37368.000000,24565.000000,37237.000000
50210.000000,37353.000000,24541.000000,37233.000000
50208.000000,37345.000000,24522.000000,37234.000000
50170.000000,37304.000000,24469.000000,37190.000000
50114.000000,37253.000000,24406.000000,37133.000000
50078.000000,37228.000000,24365.000000,37106.000000
50038.000000,37200.000000,24319.000000,37070.000000
49959.000000,37133.000000,24232.000000,36986.000000
49870.000000,37058.000000,24135.000000,36904.000000
49809.000000,37013.000000,24064.000000,36863.000000
49751.000000,36966.000000,23987.000000,36801.000000
49659.000000,36879.000000,23872.000000,36670.000000
49567.000000,36788.000000,23756.000000,36540.000000
49506.000000,36731.000000,23677.000000,36472.000000
49443.000000,36674.000000,23597.000000,36409.000000
49346.000000,36584.000000,23485.000000,36306.000000
49252.000000,36499.000000,23377.000000,36210.000000
49187.000000,36446.000000,23299.000000,36142.000000
49119.000000,36385.000000,23213.000000,36053.000000
49024.000000,36298.000000,23103.000000,35934.000000
48939.000000,36225.000000,23008.000000,35840.000000
48889.000000,36189.000000,22943.000000,35783.000000
48839.000000,36147.000000,22866.000000,35706.000000
48770.000000,36085.000000,22766.000000,35604.000000
48717.000000,36042.000000,22686.000000,35532.000000
48689.000000,36026.000000,22632.000000,35487.000000
48647.000000,35993.000000,22561.000000,35409.000000
48579.000000,35936.000000,22473.000000,35307.000000
48531.000000,35905.000000,22414.000000,35248.000000
48513.000000,35904.000000,22383.000000,35220.000000
48487.000000,35885.000000,22335.000000,35164.000000
48448.000000,35850.000000,22274.000000,35099.000000
48435.000000,35845.000000,22251.000000,35092.000000
48450.000000,35865.000000,22257.000000,35128.000000
48444.000000,35860.000000,22241.000000,35131.000000
48415.000000,35833.000000,22207.000000,35111.000000
48409.000000,35831.000000,22205.000000,35131.000000
48423.000000,35845.000000,22221.000000,35169.000000
48411.000000,35827.000000,22203.000000,35155.000000
48379.000000,35789.000000,22167.000000,35113.000000
48369.000000,35775.000000,22156.000000,35102.000000
48369.000000,35767.000000,22147.000000,35090.000000
48335.000000,35722.000000,22098.000000,35031.000000
48283.000000,35665.000000,22034.000000,34964.000000
48258.000000,35643.000000,21999.000000,34939.000000
48243.000000,35633.000000,21970.000000,34920.000000
48196.000000,35591.000000,21907.000000,34854.000000
48140.000000,35544.000000,21842.000000,34789.000000
48113.000000,35526.000000,21808.000000,34766.000000
48086.000000,35511.000000,21772.000000,34729.000000
48025.000000,35463.000000,21703.000000,34654.000000
47958.000000,35415.000000,21638.000000,34589.000000
47924.000000,35399.000000,21608.000000,34562.000000
47902.000000,35385.000000,21578.000000,34534.000000
47857.000000,35340.000000,21518.000000,34473.000000
47817.000000,35296.000000,21464.000000,34423.000000
47807.000000,35286.000000,21441.000000,34402.000000
47787.000000,35267.000000,21406.000000,34354.000000
47728.000000,35210.000000,21332.000000,34263.000000
47673.000000,35158.000000,21264.000000,34194.000000
47649.000000,35140.000000,21223.000000,34157.000000
47619.000000,35116.000000,21170.000000,34103.000000
47558.000000,35064.000000,21091.000000,34024.000000
47500.000000,35019.000000,21025.000000,33960.000000
47465.000000,34999.000000,20985.000000,33926.000000
47418.000000,34960.000000,20931.000000,33881.000000
47345.000000,34892.000000,20853.000000,33810.000000
47289.000000,34842.000000,20793.000000,33756.000000
47267.000000,34823.000000,20763.000000,33728.000000
47242.000000,34791.000000,20730.000000,33675.000000
47212.000000,34749.000000,20698.000000,33612.000000
47231.000000,34756.000000,20725.000000,33618.000000
47312.000000,34825.000000,20816.000000,33701.000000
47411.000000,34909.000000,20927.000000,33789.000000
47527.000000,35013.000000,21067.000000,33905.000000
47712.000000,35186.000000,21293.000000,34135.000000
47958.000000,35414.000000,21590.000000,34445.000000
48210.000000,35641.000000,21898.000000,34742.000000
48468.000000,35872.000000,22220.000000,35048.000000
48773.000000,36152.000000,22597.000000,35428.000000
49105.000000,36454.000000,23008.000000,35842.000000
49412.000000,36722.000000,23398.000000,36225.000000
49702.000000,36965.000000,23772.000000,36590.000000
50007.000000,37225.000000,24164.000000,36976.000000
50307.000000,37479.000000,24547.000000,37346.000000
50552.000000,37681.000000,24872.000000,37645.000000
50760.000000,37848.000000,25157.000000,37911.000000
50970.000000,38019.000000,25437.000000,38190.000000
51159.000000,38169.000000,25680.000000,38431.000000
51290.000000,38263.000000,25852.000000,38595.000000
51386.000000,38331.000000,25982.000000,38722.000000
51482.000000,38406.000000,26104.000000,38841.000000
51555.000000,38460.000000,26191.000000,38919.000000
51571.000000,38459.000000,26216.000000,38937.000000
51562.000000,38442.000000,26216.000000,38946.000000
51563.000000,38446.000000,26227.000000,38979.000000
51544.000000,38437.000000,26214.000000,38976.000000
51475.000000,38377.000000,26146.000000,38896.000000
51393.000000,38308.000000,26065.000000,38799.000000
51327.000000,38265.000000,25999.000000,38724.000000
51246.000000,38208.000000,25910.000000,38629.000000
51130.000000,38115.000000,25780.000000,38501.000000
51023.000000,38028.000000,25653.000000,38396.000000
50947.000000,37970.000000,25552.000000,38322.000000
50864.000000,37900.000000,25437.000000,38216.000000
50754.000000,37802.000000,25294.000000,38065.000000
50665.000000,37724.000000,25173.000000,37944.000000
50614.000000,37683.000000,25090.000000,37876.000000
50555.000000,37633.000000,25003.000000,37803.000000
50472.000000,37562.000000,24903.000000,37710.000000
50410.000000,37513.000000,24828.000000,37649.000000
50381.000000,37495.000000,24781.000000,37624.000000
50341.000000,37461.000000,24716.000000,37579.000000
50281.000000,37404.000000,24631.000000,37514.000000
50241.000000,37370.000000,24573.000000,37483.000000
50221.000000,37354.000000,24533.000000,37469.000000
50177.000000,37306.000000,24461.000000,37403.000000
50111.000000,37236.000000,24365.000000,37300.000000
50069.000000,37197.000000,24299.000000,37232.000000
50047.000000,37182.000000,24255.000000,37179.000000
49997.000000,37139.000000,24186.000000,37082.000000
49934.000000,37083.000000,24112.000000,36978.000000
49910.000000,37065.000000,24081.000000,36932.000000
49909.000000,37066.000000,24073.000000,36906.000000
49890.000000,37042.000000,24045.000000,36844.000000
49867.000000,37016.000000,24022.000000,36788.000000
49882.000000,37035.000000,24044.000000,36801.000000
49917.000000,37075.000000,24085.000000,36847.000000
49933.000000,37091.000000,24107.000000,36874.000000
49945.000000,37102.000000,24133.000000,36915.000000
49987.000000,37144.000000,24194.000000,37002.000000
50035.000000,37189.000000,24259.000000,37082.000000
50056.000000,37205.000000,24294.000000,37116.000000
50078.000000,37223.000000,24338.000000,37151.000000
50136.000000,37278.000000,24418.000000,37227.000000
50194.000000,37330.000000,24491.000000,37288.000000
50213.000000,37340.000000,24519.000000,37287.000000
50228.000000,37346.000000,24544.000000,37282.000000
50272.000000,37385.000000,24602.000000,37327.000000
50309.000000,37419.000000,24654.000000,37376.000000
50303.000000,37412.000000,24664.000000,37383.000000
50294.000000,37403.000000,24667.000000,37390.000000
50313.000000,37422.000000,24688.000000,37416.000000
50324.000000,37426.000000,24686.000000,37408.000000
50298.000000,37394.000000,24644.000000,37357.000000
50272.000000,37367.000000,24603.000000,37325.000000
50262.000000,37359.000000,24574.000000,37316.000000
50227.000000,37325.000000,24516.000000,37266.000000
50153.000000,37255.000000,24419.000000,37164.000000
50079.000000,37190.000000,24329.000000,37071.000000
50021.000000,37146.000000,24255.000000,36996.000000
49944.000000,37080.000000,24157.000000,36885.000000
49840.000000,36987.000000,24034.000000,36750.000000
49753.000000,36911.000000,23930.000000,36655.000000
49688.000000,36855.000000,23845.000000,36585.000000
49601.000000,36775.000000,23731.000000,36473.000000
49487.000000,36672.000000,23595.000000,36330.000000
49391.000000,36593.000000,23484.000000,36223.000000
49313.000000,36536.000000,23391.000000,36142.000000
49210.000000,36456.000000,23275.000000,36029.000000
49094.000000,36360.000000,23150.000000,35907.000000
49013.000000,36297.000000,23060.000000,35834.000000
48957.000000,36252.000000,22988.000000,35782.000000
48877.000000,36179.000000,22891.000000,35689.000000
48780.000000,36091.000000,22784.000000,35579.000000
48715.000000,36038.000000,22711.000000,35514.000000
48674.000000,36001.000000,22654.000000,35464.000000
48613.000000,35940.000000,22572.000000,35373.000000
48543.000000,35875.000000,22488.000000,35281.000000
48501.000000,35847.000000,22442.000000,35239.000000
48469.000000,35829.000000,22406.000000,35207.000000
48413.000000,35782.000000,22340.000000,35143.000000
48356.000000,35734.000000,22273.000000,35089.000000
48331.000000,35722.000000,22241.000000,35085.000000
48315.000000,35718.000000,22215.000000,35079.000000
48272.000000,35683.000000,22157.000000,35028.000000
48230.000000,35648.000000,22102.000000,34979.000000
48217.000000,35647.000000,22084.000000,34966.000000
48203.000000,35642.000000,22064.000000,34944.000000
48155.000000,35601.000000,22008.000000,34876.000000
48110.000000,35560.000000,21953.000000,34810.000000
48103.000000,35554.000000,21931.000000,34782.000000
48097.000000,35543.000000,21904.000000,34741.000000
48058.000000,35491.000000,21844.000000,34660.000000
48018.000000,35439.000000,21793.000000,34598.000000
48008.000000,35421.000000,21775.000000,34580.000000
47993.000000,35399.000000,21751.000000,34554.000000
47950.000000,35352.000000,21706.000000,34505.000000
47914.000000,35323.000000,21676.000000,34482.000000
47906.000000,35324.000000,21670.000000,34490.000000
47887.000000,35314.000000,21647.000000,34475.000000
47843.000000,35281.000000,21597.000000,34428.000000
47816.000000,35266.000000,21558.000000,34399.000000
47813.000000,35274.000000,21538.000000,34384.000000
47793.000000,35260.000000,21495.000000,34329.000000
47747.000000,35215.000000,21428.000000,34248.000000
47713.000000,35183.000000,21384.000000,34210.000000
47695.000000,35167.000000,21355.000000,34201.000000
47652.000000,35122.000000,21294.000000,34151.000000
47583.000000,35055.000000,21211.000000,34073.000000
47535.000000,35014.000000,21155.000000,34034.000000
47502.000000,34993.000000,21112.000000,34005.000000
47436.000000,34939.000000,21038.000000,33919.000000
47352.000000,34866.000000,20945.000000,33806.000000
47301.000000,34821.000000,20878.000000,33737.000000
47268.000000,34789.000000,20821.000000,33690.000000
47205.000000,34726.000000,20736.000000,33606.000000
47129.000000,34657.000000,20651.000000,33514.000000
47086.000000,34629.000000,20611.000000,33473.000000
47070.000000,34627.000000,20599.000000,33461.000000
47044.000000,34612.000000,20580.000000,33433.000000
47032.000000,34612.000000,20580.000000,33430.000000
47078.000000,34668.000000,20640.000000,33510.000000
47168.000000,34764.000000,20743.000000,33638.000000
47270.000000,34862.000000,20864.000000,33765.000000
47411.000000,34989.000000,21033.000000,33932.000000
47622.000000,35176.000000,21284.000000,34184.000000
47871.000000,35392.000000,21580.000000,34474.000000
48112.000000,35597.000000,21882.000000,34754.000000
48368.000000,35821.000000,22212.000000,35066.000000
48666.000000,36090.000000,22593.000000,35444.000000
48969.000000,36355.000000,22982.000000,35829.000000
49244.000000,36580.000000,23341.000000,36169.000000
49518.000000,36800.000000,23697.000000,36502.000000
49810.000000,37041.000000,24073.000000,36861.000000
50082.000000,37262.000000,24426.000000,37199.000000
50303.000000,37439.000000,24731.000000,37493.000000
50509.000000,37607.000000,25020.000000,37781.000000
50719.000000,37783.000000,25302.000000,38061.000000
50892.000000,37925.000000,25529.000000,38274.000000
51006.000000,38014.000000,25690.000000,38411.000000
51104.000000,38099.000000,25828.000000,38535.000000
51201.000000,38191.000000,25953.000000,38651.000000
51257.000000,38241.000000,26022.000000,38704.000000
51262.000000,38244.000000,26035.000000,38704.000000
51257.000000,38244.000000,26037.000000,38719.000000
51254.000000,38247.000000,26032.000000,38740.000000
51214.000000,38210.000000,25978.000000,38700.000000
51138.000000,38137.000000,25887.000000,38607.000000
51073.000000,38082.000000,25810.000000,38530.000000
51017.000000,38038.000000,25740.000000,38461.000000
50925.000000,37954.000000,25629.000000,38340.000000
50805.000000,37840.000000,25491.000000,38188.000000
50706.000000,37751.000000,25376.000000,38073.000000
50623.000000,37682.000000,25275.000000,37976.000000
50513.000000,37584.000000,25147.000000,37842.000000
50394.000000,37476.000000,25013.000000,37709.000000
50315.000000,37412.000000,24924.000000,37641.000000
50262.000000,37374.000000,24858.000000,37604.000000
50188.000000,37311.000000,24766.000000,37524.000000
50109.000000,37238.000000,24669.000000,37430.000000
50061.000000,37198.000000,24605.000000,37378.000000
50023.000000,37166.000000,24547.000000,37322.000000
49951.000000,37100.000000,24454.000000,37213.000000
49869.000000,37025.000000,24355.000000,37100.000000
49814.000000,36980.000000,24286.000000,37031.000000
49760.000000,36934.000000,24214.000000,36960.000000
49671.000000,36853.000000,24106.000000,36842.000000
49583.000000,36774.000000,24001.000000,36730.000000
49533.000000,36737.000000,23934.000000,36665.000000
49493.000000,36709.000000,23869.000000,36606.000000
49432.000000,36657.000000,23781.000000,36522.000000
49384.000000,36622.000000,23714.000000,36461.000000
49385.000000,36636.000000,23698.000000,36458.000000
49400.000000,36658.000000,23695.000000,36462.000000
49397.000000,36653.000000,23675.000000,36447.000000
49408.000000,36655.000000,23675.000000,36464.000000
49460.000000,36696.000000,23717.000000,36530.000000
49514.000000,36735.000000,23761.000000,36581.000000
49544.000000,36751.000000,23786.000000,36595.000000
49589.000000,36785.000000,23837.000000,36631.000000
49667.000000,36855.000000,23926.000000,36709.000000
49736.000000,36916.000000,24006.000000,36775.000000
49782.000000,36952.000000,24064.000000,36821.000000
49839.000000,37003.000000,24139.000000,36909.000000
49916.000000,37077.000000,24231.000000,37030.000000
49966.000000,37124.000000,24293.000000,37113.000000
49982.000000,37137.000000,24321.000000,37152.000000
50009.000000,37163.000000,24363.000000,37210.000000
50049.000000,37205.000000,24415.000000,37282.000000
50059.000000,37211.000000,24428.000000,37300.000000
50036.000000,37184.000000,24406.000000,37279.000000
50021.000000,37172.000000,24396.000000,37277.000000
50013.000000,37168.000000,24391.000000,37275.000000
49970.000000,37126.000000,24343.000000,37219.000000
49900.000000,37059.000000,24266.000000,37138.000000
49850.000000,37018.000000,24208.000000,37090.000000
49805.000000,36985.000000,24157.000000,37039.000000
49720.000000,36914.000000,24071.000000,36935.000000
49619.000000,36831.000000,23971.000000,36824.000000
49545.000000,36780.000000,23897.000000,36759.000000
49476.000000,36735.000000,23824.000000,36695.000000
49371.000000,36651.000000,23713.000000,36575.000000
49251.000000,36550.000000,23584.000000,36442.000000
49155.000000,36473.000000,23476.000000,36346.000000
49064.000000,36398.000000,23367.000000,36251.000000
48940.000000,36286.000000,23221.000000,36107.000000
48800.000000,36165.000000,23063.000000,35935.000000
48688.000000,36072.000000,22932.000000,35791.000000
48580.000000,35981.000000,22804.000000,35649.000000
48443.000000,35855.000000,22646.000000,35467.000000
48305.000000,35729.000000,22490.000000,35292.000000
48199.000000,35641.000000,22369.000000,35160.000000
48092.000000,35551.000000,22247.000000,35015.000000
47956.000000,35429.000000,22096.000000,34839.000000
47830.000000,35320.000000,21959.000000,34704.000000
47747.000000,35255.000000,21864.000000,34636.000000
47668.000000,35191.000000,21772.000000,34566.000000
47566.000000,35101.000000,21662.000000,34461.000000
47480.000000,35027.000000,21568.000000,34376.000000
47435.000000,34992.000000,21509.000000,34332.000000
47389.000000,34954.000000,21444.000000,34270.000000
47322.000000,34894.000000,21364.000000,34186.000000
47278.000000,34856.000000,21309.000000,34147.000000
47270.000000,34854.000000,21288.000000,34154.000000
47251.000000,34838.000000,21253.000000,34132.000000
47205.000000,34797.000000,21196.000000,34069.000000
47181.000000,34783.000000,21165.000000,34038.000000
47188.000000,34799.000000,21163.000000,34035.000000
47177.000000,34796.000000,21137.000000,33984.000000
47141.000000,34769.000000,21093.000000,33907.000000
47128.000000,34769.000000,21081.000000,33885.000000
47137.000000,34786.000000,21089.000000,33890.000000
47119.000000,34768.000000,21067.000000,33849.000000
47079.000000,34724.000000,21025.000000,33786.000000
47063.000000,34703.000000,21007.000000,33756.000000
47059.000000,34696.000000,20998.000000,33739.000000
47024.000000,34660.000000,20954.000000,33689.000000
46975.000000,34614.000000,20899.000000,33644.000000
46960.000000,34604.000000,20881.000000,33655.000000
46963.000000,34611.000000,20878.000000,33680.000000
46942.000000,34588.000000,20840.000000,33659.000000
46912.000000,34558.000000,20794.000000,33620.000000
46914.000000,34566.000000,20785.000000,33618.000000
46929.000000,34587.000000,20787.000000,33630.000000
46917.000000,34576.000000,20757.000000,33610.000000
46895.000000,34557.000000,20717.000000,33587.000000
46902.000000,34572.000000,20706.000000,33598.000000
46912.000000,34588.000000,20695.000000,33599.000000
46892.000000,34567.000000,20652.000000,33556.000000
46869.000000,34542.000000,20613.000000,33529.000000
46873.000000,34549.000000,20608.000000,33554.000000
46874.000000,34553.000000,20595.000000,33566.000000
46837.000000,34514.000000,20538.000000,33518.000000
46794.000000,34471.000000,20479.000000,33470.000000
46777.000000,34459.000000,20450.000000,33460.000000
46751.000000,34441.000000,20418.000000,33432.000000
46691.000000,34389.000000,20356.000000,33359.000000
46636.000000,34343.000000,20301.000000,33300.000000
46612.000000,34326.000000,20269.000000,33274.000000
46582.000000,34300.000000,20222.000000,33223.000000
46525.000000,34244.000000,20147.000000,33134.000000
46480.000000,34203.000000,20087.000000,33072.000000
46467.000000,34194.000000,20059.000000,33050.000000
46444.000000,34175.000000,20021.000000,33007.000000
46401.000000,34137.000000,19968.000000,32937.000000
46391.000000,34133.000000,19958.000000,32906.000000
46436.000000,34182.000000,20009.000000,32932.000000
46505.000000,34244.000000,20086.000000,32974.000000
46595.000000,34319.000000,20193.000000,33047.000000
46747.000000,34448.000000,20375.000000,33217.000000
46960.000000,34631.000000,20629.000000,33467.000000
47188.000000,34822.000000,20908.000000,33726.000000
47427.000000,35019.000000,21216.000000,34003.000000
47720.000000,35266.000000,21591.000000,34361.000000
48052.000000,35550.000000,22016.000000,34771.000000
48363.000000,35812.000000,22429.000000,35152.000000
48657.000000,36057.000000,22833.000000,35520.000000
48985.000000,36336.000000,23268.000000,35944.000000
49327.000000,36627.000000,23712.000000,36387.000000
49625.000000,36878.000000,24108.000000,36773.000000
49885.000000,37097.000000,24461.000000,37115.000000
50146.000000,37322.000000,24810.000000,37463.000000
50392.000000,37533.000000,25131.000000,37786.000000
50578.000000,37685.000000,25380.000000,38034.000000
50722.000000,37800.000000,25580.000000,38244.000000
50865.000000,37921.000000,25771.000000,38456.000000
50988.000000,38024.000000,25927.000000,38633.000000
51054.000000,38073.000000,26013.000000,38732.000000
51086.000000,38096.000000,26057.000000,38783.000000
51122.000000,38132.000000,26098.000000,38827.000000
51137.000000,38149.000000,26108.000000,38827.000000
51096.000000,38112.000000,26055.000000,38751.000000
51033.000000,38058.000000,25982.000000,38660.000000
50989.000000,38024.000000,25925.000000,38604.000000
50935.000000,37975.000000,25856.000000,38537.000000
50844.000000,37885.000000,25747.000000,38430.000000
50753.000000,37797.000000,25639.000000,38324.000000
50693.000000,37743.000000,25559.000000,38251.000000
50634.000000,37687.000000,25477.000000,38174.000000
50550.000000,37606.000000,25372.000000,38074.000000
50480.000000,37540.000000,25284.000000,38006.000000
50447.000000,37511.000000,25235.000000,37986.000000
50409.000000,37479.000000,25180.000000,37951.000000
50346.000000,37427.000000,25107.000000,37884.000000
50300.000000,37396.000000,25057.000000,37847.000000
50284.000000,37396.000000,25037.000000,37845.000000
50256.000000,37378.000000,25001.000000,37813.000000
50203.000000,37329.000000,24939.000000,37746.000000
50164.000000,37294.000000,24894.000000,37695.000000
50147.000000,37280.000000,24869.000000,37662.000000
50112.000000,37241.000000,24818.000000,37594.000000
50052.000000,37178.000000,24742.000000,37509.000000
50008.000000,37137.000000,24686.000000,37472.000000
49983.000000,37116.000000,24642.000000,37452.000000
49936.000000,37070.000000,24567.000000,37375.000000
49873.000000,37008.000000,24477.000000,37271.000000
49840.000000,36976.000000,24424.000000,37220.000000
49832.000000,36965.000000,24395.000000,37204.000000
49799.000000,36928.000000,24343.000000,37161.000000
49751.000000,36880.000000,24282.000000,37112.000000
49740.000000,36876.000000,24259.000000,37117.000000
49759.000000,36899.000000,24263.000000,37144.000000
49763.000000,36904.000000,24253.000000,37131.000000
49769.000000,36908.000000,24253.000000,37111.000000
49814.000000,36953.000000,24300.000000,37144.000000
49877.000000,37013.000000,24363.000000,37192.000000
49910.000000,37041.000000,24400.000000,37206.000000
49934.000000,37064.000000,24437.000000,37228.000000
49984.000000,37121.000000,24506.000000,37301.000000
50034.000000,37180.000000,24571.000000,37374.000000
50050.000000,37204.000000,24599.000000,37399.000000
50066.000000,37227.000000,24628.000000,37431.000000
50116.000000,37281.000000,24689.000000,37509.000000
50160.000000,37325.000000,24741.000000,37573.000000
50163.000000,37323.000000,24750.000000,37580.000000
50159.000000,37317.000000,24754.000000,37589.000000
50179.000000,37339.000000,24782.000000,37630.000000
50188.000000,37348.000000,24788.000000,37647.000000
50151.000000,37310.000000,24747.000000,37607.000000
50103.000000,37263.000000,24702.000000,37557.000000
50074.000000,37236.000000,24679.000000,37524.000000
50032.000000,37194.000000,24634.000000,37468.000000
49957.000000,37116.000000,24552.000000,37375.000000
49890.000000,37048.000000,24476.000000,37298.000000
49853.000000,37009.000000,24423.000000,37258.000000
49805.000000,36959.000000,24351.000000,37193.000000
49727.000000,36881.000000,24248.000000,37089.000000
49659.000000,36819.000000,24159.000000,37017.000000
49618.000000,36787.000000,24098.000000,36989.000000
49559.000000,36739.000000,24020.000000,36931.000000
49474.000000,36673.000000,23922.000000,36836.000000
49408.000000,36632.000000,23846.000000,36770.000000
49366.000000,36613.000000,23786.000000,36728.000000
49301.000000,36561.000000,23692.000000,36643.000000
49208.000000,36479.000000,23573.000000,36523.000000
49135.000000,36418.000000,23478.000000,36431.000000
49080.000000,36373.000000,23398.000000,36350.000000
48998.000000,36295.000000,23286.000000,36223.000000
48898.000000,36197.000000,23159.000000,36075.000000
48826.000000,36128.000000,23067.000000,35978.000000
48770.000000,36073.000000,22992.000000,35911.000000
48680.000000,35985.000000,22885.000000,35803.000000
48568.000000,35883.000000,22762.000000,35678.000000
48487.000000,35815.000000,22670.000000,35598.000000
48423.000000,35759.000000,22587.000000,35529.000000
48331.000000,35669.000000,22471.000000,35422.000000
48230.000000,35573.000000,22354.000000,35319.000000
48162.000000,35519.000000,22277.000000,35269.000000
48106.000000,35478.000000,22213.000000,35229.000000
48024.000000,35407.000000,22119.000000,35146.000000
47942.000000,35335.000000,22025.000000,35055.000000
47896.000000,35302.000000,21968.000000,35007.000000
47856.000000,35276.000000,21915.000000,34962.000000
47783.000000,35214.000000,21827.000000,34862.000000
47712.000000,35152.000000,21744.000000,34761.000000
47679.000000,35128.000000,21702.000000,34708.000000
47650.000000,35101.000000,21661.000000,34648.000000
47590.000000,35042.000000,21593.000000,34546.000000
47541.000000,34993.000000,21537.000000,34463.000000
47530.000000,34986.000000,21520.000000,34441.000000
47516.000000,34976.000000,21499.000000,34423.000000
47471.000000,34937.000000,21449.000000,34375.000000
47432.000000,34908.000000,21408.000000,34345.000000
47424.000000,34911.000000,21396.000000,34346.000000
47413.000000,34907.000000,21373.000000,34321.000000
47376.000000,34878.000000,21324.000000,34261.000000
47356.000000,34865.000000,21290.000000,34234.000000
47365.000000,34876.000000,21279.000000,34254.000000
47357.000000,34866.000000,21249.000000,34250.000000
47317.000000,34829.000000,21194.000000,34204.000000
47288.000000,34810.000000,21160.000000,34175.000000
47281.000000,34811.000000,21148.000000,34161.000000
47252.000000,34786.000000,21108.000000,34104.000000
47195.000000,34733.000000,21040.000000,34017.000000
47155.000000,34698.000000,20993.000000,33968.000000
47138.000000,34684.000000,20960.000000,33942.000000
47098.000000,34644.000000,20898.000000,33876.000000
47037.000000,34585.000000,20816.000000,33790.000000
47001.000000,34556.000000,20765.000000,33753.000000
46983.000000,34547.000000,20735.000000,33752.000000
46937.000000,34507.000000,20679.000000,33718.000000
46869.000000,34447.000000,20608.000000,33660.000000
46825.000000,34416.000000,20563.000000,33629.000000
46795.000000,34398.000000,20527.000000,33601.000000
46732.000000,34343.000000,20456.000000,33520.000000
46654.000000,34275.000000,20371.000000,33426.000000
46608.000000,34243.000000,20320.000000,33378.000000
46573.000000,34221.000000,20277.000000,33335.000000
46506.000000,34163.000000,20198.000000,33247.000000
46430.000000,34093.000000,20111.000000,33153.000000
46383.000000,34054.000000,20057.000000,33104.000000
46347.000000,34027.000000,20015.000000,33069.000000
46296.000000,33981.000000,19955.000000,33014.000000
46263.000000,33954.000000,19920.000000,32987.000000
46290.000000,33988.000000,19951.000000,33038.000000
46352.000000,34053.000000,20025.000000,33127.000000
46421.000000,34117.000000,20111.000000,33214.000000
46532.000000,34219.000000,20254.000000,33357.000000
46720.000000,34396.000000,20489.000000,33602.000000
46950.000000,34608.000000,20776.000000,33889.000000
47183.000000,34813.000000,21077.000000,34177.000000
47448.000000,35045.000000,21423.000000,34516.000000
47769.000000,35325.000000,21825.000000,34921.000000
48101.000000,35606.000000,22234.000000,35313.000000
48409.000000,35857.000000,22619.000000,35655.000000
48718.000000,36115.000000,23012.000000,36011.000000
49041.000000,36389.000000,23420.000000,36392.000000
49333.000000,36631.000000,23796.000000,36736.000000
49580.000000,36830.000000,24127.000000,37039.000000
49814.000000,37024.000000,24448.000000,37345.000000
50043.000000,37218.000000,24760.000000,37636.000000
50228.000000,37367.000000,25015.000000,37854.000000
50362.000000,37467.000000,25212.000000,38015.000000
50485.000000,37568.000000,25395.000000,38189.000000
50602.000000,37669.000000,25561.000000,38366.000000
50671.000000,37720.000000,25661.000000,38470.000000
50690.000000,37726.000000,25703.000000,38510.000000
50709.000000,37740.000000,25741.000000,38562.000000
50730.000000,37761.000000,25772.000000,38616.000000
50710.000000,37741.000000,25749.000000,38603.000000
50656.000000,37690.000000,25688.000000,38541.000000
50616.000000,37658.000000,25637.000000,38495.000000
50582.000000,37634.000000,25584.000000,38452.000000
50514.000000,37576.000000,25491.000000,38362.000000
50426.000000,37504.000000,25382.000000,38255.000000
50369.000000,37464.000000,25302.000000,38188.000000
50329.000000,37442.000000,25237.000000,38132.000000
50264.000000,37393.000000,25147.000000,38034.000000
50191.000000,37336.000000,25055.000000,37933.000000
50152.000000,37312.000000,25000.000000,37890.000000
50124.000000,37298.000000,24957.000000,37866.000000
50065.000000,37252.000000,24891.000000,37804.000000
50001.000000,37201.000000,24828.000000,37742.000000
49970.000000,37185.000000,24798.000000,37716.000000
49946.000000,37173.000000,24768.000000,37682.000000
49889.000000,37125.000000,24707.000000,37612.000000
49829.000000,37073.000000,24646.000000,37561.000000
49802.000000,37052.000000,24611.000000,37561.000000
49771.000000,37025.000000,24565.000000,37545.000000
49703.000000,36959.000000,24480.000000,37467.000000
49631.000000,36892.000000,24395.000000,37389.000000
49591.000000,36855.000000,24340.000000,37346.000000
49544.000000,36809.000000,24272.000000,37278.000000
49458.000000,36729.000000,24166.000000,37158.000000
49375.000000,36657.000000,24067.000000,37056.000000
49329.000000,36624.000000,24003.000000,37002.000000
49287.000000,36594.000000,23941.000000,36938.000000
49232.000000,36550.000000,23869.000000,36852.000000
49205.000000,36533.000000,23832.000000,36806.000000
49219.000000,36554.000000,23841.000000,36813.000000
49233.000000,36564.000000,23851.000000,36822.000000
49228.000000,36552.000000,23846.000000,36821.000000
49242.000000,36560.000000,23865.000000,36847.000000
49287.000000,36596.000000,23913.000000,36895.000000
49321.000000,36614.000000,23946.000000,36909.000000
49337.000000,36613.000000,23965.000000,36910.000000
49377.000000,36644.000000,24017.000000,36967.000000
49441.000000,36700.000000,24088.000000,37052.000000
49482.000000,36728.000000,24125.000000,37090.000000
49500.000000,36734.000000,24134.000000,37103.000000
49535.000000,36765.000000,24163.000000,37141.000000
49575.000000,36808.000000,24198.000000,37173.000000
49574.000000,36812.000000,24191.000000,37149.000000
49543.000000,36791.000000,24161.000000,37106.000000
49530.000000,36792.000000,24156.000000,37102.000000
49527.000000,36803.000000,24160.000000,37113.000000
49489.000000,36775.000000,24124.000000,37084.000000
49429.000000,36726.000000,24062.000000,37034.000000
49393.000000,36700.000000,24020.000000,37013.000000
49363.000000,36679.000000,23980.000000,36987.000000
49299.000000,36619.000000,23903.000000,36907.000000
49221.000000,36547.000000,23816.000000,36817.000000
49169.000000,36505.000000,23753.000000,36761.000000
49119.000000,36463.000000,23685.000000,36697.000000
49034.000000,36387.000000,23578.000000,36584.000000
48943.000000,36308.000000,23466.000000,36468.000000
48885.000000,36266.000000,23391.000000,36405.000000
48833.000000,36229.000000,23320.000000,36360.000000
48751.000000,36158.000000,23218.000000,36284.000000
48667.000000,36087.000000,23121.000000,36217.000000
48616.000000,36053.000000,23062.000000,36195.000000
48563.000000,36018.000000,22999.000000,36161.000000
48476.000000,35946.000000,22902.000000,36072.000000
48390.000000,35876.000000,22812.000000,35984.000000
48334.000000,35837.000000,22754.000000,35929.000000
48273.000000,35790.000000,22686.000000,35854.000000
48185.000000,35713.000000,22592.000000,35751.000000
48115.000000,35652.000000,22515.000000,35683.000000
48082.000000,35624.000000,22471.000000,35662.000000
48043.000000,35582.000000,22412.000000,35618.000000
47975.000000,35505.000000,22322.000000,35531.000000
47915.000000,35440.000000,22239.000000,35459.000000
47879.000000,35404.000000,22175.000000,35412.000000
47827.000000,35355.000000,22093.000000,35336.000000
47748.000000,35283.000000,21988.000000,35230.000000
47684.000000,35229.000000,21903.000000,35148.000000
47644.000000,35198.000000,21840.000000,35090.000000
47587.000000,35150.000000,21757.000000,34998.000000
47511.000000,35087.000000,21660.000000,34887.000000
47461.000000,35056.000000,21599.000000,34827.000000
47435.000000,35049.000000,21564.000000,34806.000000
47383.000000,35010.000000,21504.000000,34745.000000
47313.000000,34949.000000,21427.000000,34656.000000
47273.000000,34917.000000,21382.000000,34601.000000
47250.000000,34902.000000,21354.000000,34559.000000
47201.000000,34857.000000,21297.000000,34476.000000
47140.000000,34799.000000,21229.000000,34384.000000
47115.000000,34773.000000,21194.000000,34347.000000
47107.000000,34759.000000,21171.000000,34327.000000
47068.000000,34711.000000,21118.000000,34259.000000
47013.000000,34654.000000,21057.000000,34179.000000
46985.000000,34631.000000,21026.000000,34140.000000
46966.000000,34616.000000,20997.000000,34105.000000
46916.000000,34566.000000,20932.000000,34028.000000
46859.000000,34512.000000,20859.000000,33951.000000
46836.000000,34495.000000,20817.000000,33926.000000
46822.000000,34483.000000,20780.000000,33908.000000
46777.000000,34438.000000,20712.000000,33849.000000
46727.000000,34390.000000,20646.000000,33800.000000
46707.000000,34375.000000,20614.000000,33794.000000
46681.000000,34356.000000,20580.000000,33768.000000
46616.000000,34303.000000,20513.000000,33685.000000
46548.000000,34252.000000,20447.000000,33600.000000
46507.000000,34232.000000,20408.000000,33544.000000
46460.000000,34207.000000,20360.000000,33476.000000
46385.000000,34149.000000,20280.000000,33380.000000
46321.000000,34097.000000,20205.000000,33301.000000
46292.000000,34078.000000,20158.000000,33263.000000
46263.000000,34052.000000,20104.000000,33221.000000
46207.000000,33999.000000,20027.000000,33155.000000
46164.000000,33960.000000,19969.000000,33119.000000
46148.000000,33949.000000,19938.000000,33121.000000
46111.000000,33912.000000,19885.000000,33086.000000
46042.000000,33839.000000,19800.000000,33011.000000
45987.000000,33784.000000,19733.000000,32968.000000
45961.000000,33756.000000,19695.000000,32959.000000
45916.000000,33711.000000,19635.000000,32909.000000
45843.000000,33641.000000,19547.000000,32807.000000
45786.000000,33594.000000,19477.000000,32725.000000
45751.000000,33571.000000,19428.000000,32670.000000
45690.000000,33521.000000,19347.000000,32571.000000
45604.000000,33448.000000,19242.000000,32445.000000
45540.000000,33401.000000,19168.000000,32362.000000
45500.000000,33378.000000,19121.000000,32314.000000
45451.000000,33340.000000,19067.000000,32249.000000
45410.000000,33307.000000,19029.000000,32197.000000
45427.000000,33334.000000,19056.000000,32230.000000
45497.000000,33411.000000,19138.000000,32332.000000
45576.000000,33489.000000,19235.000000,32438.000000
45682.000000,33585.000000,19369.000000,32573.000000
45861.000000,33751.000000,19591.000000,32796.000000
46100.000000,33965.000000,19881.000000,33069.000000
46355.000000,34179.000000,20192.000000,33336.000000
46637.000000,34415.000000,20541.000000,33640.000000
46981.000000,34710.000000,20959.000000,34031.000000
47350.000000,35027.000000,21403.000000,34450.000000
47694.000000,35316.000000,21822.000000,34836.000000
48032.000000,35599.000000,22242.000000,35236.000000
48395.000000,35907.000000,22689.000000,35695.000000
48743.000000,36200.000000,23118.000000,36147.000000
49032.000000,36435.000000,23486.000000,36522.000000
49286.000000,36642.000000,23821.000000,36859.000000
49535.000000,36852.000000,24150.000000,37204.000000
49745.000000,37029.000000,24435.000000,37500.000000
49887.000000,37142.000000,24644.000000,37709.000000
50000.000000,37229.000000,24815.000000,37888.000000
50113.000000,37323.000000,24974.000000,38061.000000
50185.000000,37379.000000,25078.000000,38163.000000
50189.000000,37369.000000,25104.000000,38177.000000
50167.000000,37340.000000,25101.000000,38167.000000
50150.000000,37320.000000,25094.000000,38160.000000
50103.000000,37270.000000,25047.000000,38100.000000
50018.000000,37181.000000,24951.000000,37987.000000
49938.000000,37106.000000,24856.000000,37897.000000
49880.000000,37057.000000,24780.000000,37836.000000
49801.000000,36992.000000,24682.000000,37740.000000
49691.000000,36899.000000,24558.000000,37606.000000
49597.000000,36824.000000,24452.000000,37501.000000
49529.000000,36775.000000,24364.000000,37426.000000
49446.000000,36707.000000,24254.000000,37321.000000
49343.000000,36620.000000,24130.000000,37199.000000
49266.000000,36559.000000,24041.000000,37122.000000
49216.000000,36526.000000,23977.000000,37075.000000
49147.000000,36472.000000,23892.000000,36986.000000
49067.000000,36404.000000,23796.000000,36873.000000
49019.000000,36368.000000,23737.000000,36810.000000
48991.000000,36351.000000,23698.000000,36773.000000
48932.000000,36300.000000,23630.000000,36690.000000
48858.000000,36235.000000,23550.000000,36595.000000
48817.000000,36204.000000,23502.000000,36555.000000
48795.000000,36189.000000,23461.000000,36541.000000
48742.000000,36139.000000,23382.000000,36482.000000
48666.000000,36068.000000,23286.000000,36397.000000
48614.000000,36028.000000,23219.000000,36341.000000
48577.000000,36001.000000,23162.000000,36291.000000
48518.000000,35950.000000,23082.000000,36211.000000
48462.000000,35905.000000,23012.000000,36142.000000
48450.000000,35907.000000,22989.000000,36134.000000
48455.000000,35926.000000,22981.000000,36140.000000
48435.000000,35917.000000,22947.000000,36104.000000
48418.000000,35906.000000,22918.000000,36074.000000
48442.000000,35931.000000,22928.000000,36102.000000
48476.000000,35961.000000,22947.000000,36144.000000
48484.000000,35962.000000,22945.000000,36153.000000
48497.000000,35970.000000,22956.000000,36171.000000
48548.000000,36018.000000,23010.000000,36235.000000
48600.000000,36064.000000,23065.000000,36289.000000
48618.000000,36074.000000,23090.000000,36295.000000
48636.000000,36088.000000,23123.000000,36309.000000
48684.000000,36132.000000,23182.000000,36352.000000
48722.000000,36161.000000,23226.000000,36365.000000
48726.000000,36156.000000,23237.000000,36342.000000
48737.000000,36162.000000,23259.000000,36352.000000
48772.000000,36194.000000,23301.000000,36399.000000
48791.000000,36208.000000,23318.000000,36419.000000
48782.000000,36196.000000,23304.000000,36414.000000
48785.000000,36204.000000,23308.000000,36452.000000
48809.000000,36237.000000,23337.000000,36520.000000
48811.000000,36245.000000,23338.000000,36535.000000
48777.000000,36215.000000,23306.000000,36494.000000
48752.000000,36194.000000,23284.000000,36462.000000
48743.000000,36188.000000,23272.000000,36440.000000
48705.000000,36152.000000,23225.000000,36370.000000
48635.000000,36087.000000,23150.000000,36266.000000
48581.000000,36041.000000,23094.000000,36194.000000
48542.000000,36010.000000,23050.000000,36143.000000
48478.000000,35950.000000,22974.000000,36063.000000
48399.000000,35875.000000,22882.000000,35978.000000
48347.000000,35830.000000,22818.000000,35928.000000
48311.000000,35798.000000,22762.000000,35878.000000
48244.000000,35730.000000,22666.000000,35790.000000
48156.000000,35644.000000,22551.000000,35696.000000
48094.000000,35586.000000,22465.000000,35646.000000
48044.000000,35538.000000,22389.000000,35609.000000
47960.000000,35457.000000,22279.000000,35527.000000
47861.000000,35366.000000,22156.000000,35427.000000
47794.000000,35307.000000,22062.000000,35363.000000
47741.000000,35259.000000,21977.000000,35300.000000
47662.000000,35179.000000,21866.000000,35191.000000
47577.000000,35097.000000,21757.000000,35080.000000
47523.000000,35051.000000,21683.000000,35002.000000
47474.000000,35009.000000,21613.000000,34913.000000
47392.000000,34935.000000,21512.000000,34783.000000
47310.000000,34866.000000,21418.000000,34666.000000
47266.000000,34838.000000,21364.000000,34605.000000
47225.000000,34808.000000,21308.000000,34540.000000
47156.000000,34745.000000,21218.000000,34436.000000
47097.000000,34696.000000,21140.000000,34359.000000
47078.000000,34688.000000,21104.000000,34346.000000
47057.000000,34676.000000,21067.000000,34327.000000
47007.000000,34632.000000,21002.000000,34274.000000
46974.000000,34603.000000,20952.000000,34248.000000
46986.000000,34616.000000,20941.000000,34272.000000
47004.000000,34628.000000,20926.000000,34283.000000
47001.000000,34621.000000,20892.000000,34255.000000
47016.000000,34638.000000,20883.000000,34256.000000
47068.000000,34693.000000,20906.000000,34303.000000
47111.000000,34732.000000,20917.000000,34323.000000
47131.000000,34742.000000,20911.000000,34308.000000
47168.000000,34774.000000,20934.000000,34329.000000
47231.000000,34835.000000,20986.000000,34384.000000
47279.000000,34876.000000,21019.000000,34405.000000
47302.000000,34892.000000,21032.000000,34407.000000
47339.000000,34926.000000,21068.000000,34449.000000
47389.000000,34974.000000,21117.000000,34508.000000
47406.000000,34983.000000,21122.000000,34507.000000
47394.000000,34960.000000,21093.000000,34461.000000
47399.000000,34961.000000,21084.000000,34444.000000
47419.000000,34977.000000,21088.000000,34454.000000
47405.000000,34957.000000,21059.000000,34433.000000
47363.000000,34912.000000,21006.000000,34395.000000
47346.000000,34895.000000,20979.000000,34396.000000
47347.000000,34895.000000,20967.000000,34419.000000
47321.000000,34866.000000,20926.000000,34404.000000
47279.000000,34825.000000,20873.000000,34374.000000
47266.000000,34813.000000,20852.000000,34387.000000
47263.000000,34810.000000,20838.000000,34403.000000
47229.000000,34771.000000,20789.000000,34365.000000
47185.000000,34724.000000,20733.000000,34316.000000
47170.000000,34710.000000,20708.000000,34302.000000
47157.000000,34698.000000,20682.000000,34277.000000
47109.000000,34650.000000,20619.000000,34202.000000
47053.000000,34598.000000,20551.000000,34120.000000
47027.000000,34577.000000,20511.000000,34072.000000
47004.000000,34554.000000,20465.000000,34016.000000
46950.000000,34495.000000,20384.000000,33915.000000
46897.000000,34443.000000,20309.000000,33822.000000
46877.000000,34435.000000,20275.000000,33777.000000
46856.000000,34425.000000,20237.000000,33727.000000
46794.000000,34375.000000,20160.000000,33633.000000
46728.000000,34322.000000,20080.000000,33542.000000
46694.000000,34299.000000,20030.000000,33496.000000
46659.000000,34270.000000,19976.000000,33442.000000
46601.000000,34214.000000,19900.000000,33353.000000
46562.000000,34176.000000,19851.000000,33302.000000
46572.000000,34182.000000,19855.000000,33318.000000
46593.000000,34194.000000,19875.000000,33347.000000
46614.000000,34200.000000,19904.000000,33368.000000
46679.000000,34250.000000,19987.000000,33442.000000
46805.000000,34361.000000,20140.000000,33592.000000
46948.000000,34485.000000,20316.000000,33755.000000
47094.000000,34609.000000,20506.000000,33924.000000
47282.000000,34770.000000,20750.000000,34158.000000
47517.000000,34971.000000,21048.000000,34444.000000
47755.000000,35167.000000,21350.000000,34720.000000
47988.000000,35359.000000,21653.000000,35003.000000
48252.000000,35586.000000,21998.000000,35344.000000
48534.000000,35833.000000,22364.000000,35707.000000
48785.000000,36044.000000,22699.000000,36021.000000
49012.000000,36232.000000,23008.000000,36303.000000
49257.000000,36443.000000,23335.000000,36615.000000
49503.000000,36657.000000,23653.000000,36927.000000
49695.000000,36819.000000,23907.000000,37173.000000
49839.000000,36939.000000,24111.000000,37377.000000
49980.000000,37063.000000,24305.000000,37591.000000
50098.000000,37168.000000,24467.000000,37776.000000
50151.000000,37213.000000,24554.000000,37871.000000
50157.000000,37221.000000,24591.000000,37907.000000
50158.000000,37232.000000,24622.000000,37940.000000
50138.000000,37223.000000,24624.000000,37941.000000
50064.000000,37159.000000,24563.000000,37871.000000
49962.000000,37071.000000,24471.000000,37771.000000
49872.000000,37000.000000,24387.000000,37685.000000
49768.000000,36920.000000,24278.000000,37574.000000
49621.000000,36797.000000,24117.000000,37403.000000
49468.000000,36668.000000,23947.000000,37233.000000
49349.000000,36574.000000,23809.000000,37113.000000
49237.000000,36483.000000,23675.000000,36990.000000
49102.000000,36362.000000,23519.000000,36829.000000
48975.000000,36248.000000,23381.000000,36688.000000
48890.000000,36173.000000,23289.000000,36595.000000
48812.000000,36103.000000,23203.000000,36496.000000
48716.000000,36013.000000,23096.000000,36371.000000
48638.000000,35944.000000,23007.000000,36280.000000
48604.000000,35921.000000,22956.000000,36237.000000
48572.000000,35898.000000,22898.000000,36180.000000
48516.000000,35855.000000,22817.000000,36093.000000
48479.000000,35834.000000,22754.000000,36044.000000
48472.000000,35845.000000,22723.000000,36042.000000
48453.000000,35842.000000,22675.000000,36018.000000
48406.000000,35808.000000,22595.000000,35954.000000
48371.000000,35781.000000,22529.000000,35904.000000
48356.000000,35770.000000,22482.000000,35872.000000
48320.000000,35731.000000,22409.000000,35799.000000
48258.000000,35664.000000,22313.000000,35702.000000
48220.000000,35622.000000,22251.000000,35652.000000
48213.000000,35611.000000,22220.000000,35638.000000
48193.000000,35584.000000,22176.000000,35595.000000
48162.000000,35551.000000,22131.000000,35537.000000
48170.000000,35560.000000,22135.000000,35524.000000
48210.000000,35599.000000,22173.000000,35545.000000
48234.000000,35616.000000,22197.000000,35545.000000
48245.000000,35619.000000,22220.000000,35547.000000
48292.000000,35660.000000,22283.000000,35613.000000
48362.000000,35722.000000,22362.000000,35709.000000
48405.000000,35755.000000,22411.000000,35767.000000
48428.000000,35771.000000,22447.000000,35815.000000
48473.000000,35812.000000,22508.000000,35898.000000
48527.000000,35859.000000,22568.000000,35979.000000
48546.000000,35868.000000,22586.000000,36009.000000
48546.000000,35863.000000,22591.000000,36020.000000
48567.000000,35885.000000,22622.000000,36052.000000
48585.000000,35903.000000,22644.000000,36063.000000
48561.000000,35880.000000,22623.000000,36015.000000
48523.000000,35851.000000,22596.000000,35965.000000
48512.000000,35854.000000,22596.000000,35961.000000
48501.000000,35855.000000,22590.000000,35959.000000
48452.000000,35815.000000,22546.000000,35918.000000
48395.000000,35770.000000,22491.000000,35876.000000
48359.000000,35750.000000,22456.000000,35867.000000
48314.000000,35718.000000,22408.000000,35839.000000
48229.000000,35644.000000,22320.000000,35758.000000
48141.000000,35568.000000,22227.000000,35675.000000
48078.000000,35517.000000,22155.000000,35606.000000
48000.000000,35453.000000,22061.000000,35495.000000
47885.000000,35351.000000,21931.000000,35334.000000
47775.000000,35253.000000,21807.000000,35197.000000
47696.000000,35188.000000,21710.000000,35113.000000
47613.000000,35114.000000,21600.000000,35023.000000
47505.000000,35015.000000,21466.000000,34905.000000
47411.000000,34931.000000,21350.000000,34808.000000
47344.000000,34875.000000,21260.000000,34733.000000
47264.000000,34803.000000,21151.000000,34621.000000
47157.000000,34708.000000,21019.000000,34477.000000
47067.000000,34639.000000,20913.000000,34377.000000
46997.000000,34594.000000,20833.000000,34304.000000
46906.000000,34525.000000,20731.000000,34184.000000
46797.000000,34433.000000,20613.000000,34045.000000
46717.000000,34369.000000,20527.000000,33958.000000
46660.000000,34324.000000,20461.000000,33895.000000
46582.000000,34246.000000,20365.000000,33781.000000
46485.000000,34148.000000,20251.000000,33640.000000
46416.000000,34083.000000,20169.000000,33551.000000
46370.000000,34043.000000,20106.000000,33499.000000
46300.000000,33978.000000,20015.000000,33412.000000
46214.000000,33900.000000,19916.000000,33312.000000
46152.000000,33856.000000,19846.000000,33252.000000
46099.000000,33822.000000,19781.000000,33192.000000
46013.000000,33754.000000,19678.000000,33079.000000
45914.000000,33677.000000,19567.000000,32956.000000
45847.000000,33635.000000,19493.000000,32888.000000
45795.000000,33606.000000,19432.000000,32837.000000
45721.000000,33546.000000,19346.000000,32756.000000
45646.000000,33482.000000,19261.000000,32671.000000
45608.000000,33453.000000,19212.000000,32626.000000
45576.000000,33431.000000,19171.000000,32582.000000
45512.000000,33376.000000,19099.000000,32490.000000
45449.000000,33320.000000,19029.000000,32404.000000
45425.000000,33300.000000,18996.000000,32375.000000
45403.000000,33278.000000,18961.000000,32340.000000
45346.000000,33222.000000,18894.000000,32262.000000
45288.000000,33171.000000,18831.000000,32210.000000
45263.000000,33155.000000,18799.000000,32206.000000
45235.000000,33133.000000,18757.000000,32181.000000
45175.000000,33077.000000,18682.000000,32112.000000
45123.000000,33026.000000,18619.000000,32062.000000
45105.000000,33008.000000,18588.000000,32053.000000
45082.000000,32979.000000,18545.000000,32028.000000
45024.000000,32918.000000,18474.000000,31972.000000
44970.000000,32869.000000,18416.000000,31942.000000
44940.000000,32846.000000,18385.000000,31938.000000
44891.000000,32806.000000,18337.000000,31891.000000
44813.000000,32739.000000,18264.000000,31806.000000
44751.000000,32689.000000,18207.000000,31747.000000
44713.000000,32662.000000,18169.000000,31707.000000
44654.000000,32610.000000,18099.000000,31619.000000
44565.000000,32529.000000,17997.000000,31499.000000
44497.000000,32474.000000,17917.000000,31422.000000
44454.000000,32445.000000,17860.000000,31377.000000
44394.000000,32391.000000,17777.000000,31294.000000
44317.000000,32319.000000,17676.000000,31190.000000
44269.000000,32279.000000,17607.000000,31131.000000
44244.000000,32264.000000,17566.000000,31104.000000
44194.000000,32225.000000,17502.000000,31048.000000
44129.000000,32173.000000,17427.000000,30979.000000
44102.000000,32161.000000,17392.000000,30951.000000
44104.000000,32177.000000,17386.000000,30938.000000
44094.000000,32179.000000,17374.000000,30900.000000
44097.000000,32192.000000,17386.000000,30892.000000
44167.000000,32266.000000,17475.000000,30974.000000
44295.000000,32385.000000,17619.000000,31112.000000
44432.000000,32503.000000,17776.000000,31250.000000
44592.000000,32639.000000,17969.000000,31414.000000
44810.000000,32828.000000,18232.000000,31647.000000
45064.000000,33043.000000,18534.000000,31917.000000
45307.000000,33242.000000,18832.000000,32176.000000
45558.000000,33449.000000,19147.000000,32455.000000
45847.000000,33698.000000,19506.000000,32792.000000
46142.000000,33950.000000,19872.000000,33145.000000
46396.000000,34161.000000,20203.000000,33473.000000
46634.000000,34360.000000,20525.000000,33811.000000
46889.000000,34583.000000,20865.000000,34184.000000
47122.000000,34786.000000,21177.000000,34523.000000
47296.000000,34931.000000,21424.000000,34771.000000
47444.000000,35054.000000,21645.000000,34979.000000
47595.000000,35188.000000,21863.000000,35194.000000
47715.000000,35294.000000,22039.000000,35366.000000
47777.000000,35345.000000,22148.000000,35460.000000
47820.000000,35381.000000,22235.000000,35530.000000
47871.000000,35428.000000,22320.000000,35605.000000
47893.000000,35441.000000,22359.000000,35635.000000
47869.000000,35408.000000,22343.000000,35614.000000
47844.000000,35382.000000,22326.000000,35608.000000
47835.000000,35379.000000,22319.000000,35623.000000
47799.000000,35351.000000,22278.000000,35598.000000
47730.000000,35288.000000,22202.000000,35537.000000
47672.000000,35240.000000,22136.000000,35503.000000
47634.000000,35213.000000,22084.000000,35490.000000
47571.000000,35160.000000,22000.000000,35427.000000
47481.000000,35079.000000,21893.000000,35319.000000
47408.000000,35018.000000,21810.000000,35241.000000
47352.000000,34975.000000,21742.000000,35179.000000
47265.000000,34901.000000,21635.000000,35052.000000
47156.000000,34807.000000,21507.000000,34889.000000
47080.000000,34748.000000,21416.000000,34782.000000
47029.000000,34715.000000,21351.000000,34724.000000
46953.000000,34657.000000,21264.000000,34639.000000
46861.000000,34584.000000,21167.000000,34532.000000
46803.000000,34545.000000,21106.000000,34468.000000
46771.000000,34526.000000,21065.000000,34435.000000
46711.000000,34475.000000,20993.000000,34369.000000
46634.000000,34406.000000,20905.000000,34279.000000
46580.000000,34358.000000,20839.000000,34201.000000
46531.000000,34312.000000,20771.000000,34115.000000
46449.000000,34234.000000,20664.000000,33986.000000
46354.000000,34150.000000,20547.000000,33852.000000
46293.000000,34102.000000,20464.000000,33769.000000
46250.000000,34069.000000,20393.000000,33714.000000
46186.000000,34012.000000,20301.000000,33636.000000
46125.000000,33956.000000,20218.000000,33561.000000
46105.000000,33942.000000,20178.000000,33533.000000
46095.000000,33936.000000,20148.000000,33516.000000
46058.000000,33899.000000,20095.000000,33464.000000
46027.000000,33868.000000,20058.000000,33431.000000
46037.000000,33879.000000,20068.000000,33453.000000
46050.000000,33895.000000,20080.000000,33460.000000
46037.000000,33886.000000,20068.000000,33428.000000
46038.000000,33898.000000,20081.000000,33434.000000
46079.000000,33951.000000,20137.000000,33494.000000
46116.000000,33996.000000,20187.000000,33537.000000
46125.000000,34009.000000,20211.000000,33549.000000
46148.000000,34034.000000,20249.000000,33588.000000
46201.000000,34084.000000,20312.000000,33655.000000
46244.000000,34118.000000,20356.000000,33692.000000
46264.000000,34129.000000,20376.000000,33711.000000
46298.000000,34159.000000,20417.000000,33771.000000
46352.000000,34212.000000,20480.000000,33858.000000
46384.000000,34240.000000,20515.000000,33908.000000
46385.000000,34239.000000,20517.000000,33929.000000
46395.000000,34250.000000,20534.000000,33975.000000
46413.000000,34269.000000,20559.000000,34024.000000
46394.000000,34247.000000,20539.000000,34006.000000
46339.000000,34190.000000,20478.000000,33931.000000
46296.000000,34149.000000,20426.000000,33869.000000
46264.000000,34120.000000,20380.000000,33819.000000
46199.000000,34054.000000,20293.000000,33720.000000
46110.000000,33965.000000,20183.000000,33595.000000
46043.000000,33904.000000,20101.000000,33513.000000
45986.000000,33854.000000,20029.000000,33441.000000
45896.000000,33769.000000,19920.000000,33317.000000
45783.000000,33666.000000,19796.000000,33176.000000
45696.000000,33593.000000,19702.000000,33078.000000
45621.000000,33532.000000,19616.000000,32993.000000
45514.000000,33437.000000,19492.000000,32859.000000
45398.000000,33334.000000,19354.000000,32713.000000
45317.000000,33270.000000,19250.000000,32624.000000
45249.000000,33217.000000,19157.000000,32557.000000
45150.000000,33130.000000,19037.000000,32441.000000
45046.000000,33042.000000,18917.000000,32318.000000
44978.000000,32993.000000,18832.000000,32245.000000
44918.000000,32946.000000,18748.000000,32172.000000
44828.000000,32862.000000,18636.000000,32047.000000
44740.000000,32783.000000,18535.000000,31931.000000
44687.000000,32746.000000,18476.000000,31886.000000
44636.000000,32708.000000,18417.000000,31849.000000
44554.000000,32634.000000,18322.000000,31758.000000
44476.000000,32568.000000,18229.000000,31669.000000
44436.000000,32543.000000,18170.000000,31623.000000
44396.000000,32516.000000,18108.000000,31568.000000
44325.000000,32457.000000,18017.000000,31461.000000
44263.000000,32409.000000,17938.000000,31365.000000
44238.000000,32394.000000,17891.000000,31317.000000
44206.000000,32365.000000,17836.000000,31260.000000
44148.000000,32307.000000,17762.000000,31179.000000
