660nm,730nm,850nm,940nm
36156.000000,12876.000000,39773.000000,21882.000000
36151.000000,12870.000000,39758.000000,21863.000000
36152.000000,12869.000000,39743.000000,21844.000000
36152.000000,12867.000000,39726.000000,21823.000000
36151.000000,12862.000000,39708.000000,21799.000000
36150.000000,12855.000000,39688.000000,21772.000000
36148.000000,12843.000000,39662.000000,21750.000000
36139.000000,12826.000000,39634.000000,21739.000000
36122.000000,12805.000000,39603.000000,21728.000000
36097.000000,12780.000000,39566.000000,21707.000000
36071.000000,12751.000000,39528.000000,21673.000000
36049.000000,12726.000000,39490.000000,21628.000000
36034.000000,12705.000000,39456.000000,21581.000000
36023.000000,12689.000000,39427.000000,21529.000000
36014.000000,12680.000000,39403.000000,21478.000000
36002.000000,12672.000000,39380.000000,21439.000000
35989.000000,12661.000000,39352.000000,21409.000000
35974.000000,12643.000000,39318.000000,21379.000000
35955.000000,12622.000000,39280.000000,21346.000000
35931.000000,12600.000000,39238.000000,21315.000000
35908.000000,12578.000000,39196.000000,21291.000000
35888.000000,12558.000000,39161.000000,21276.000000
35873.000000,12540.000000,39133.000000,21264.000000
35860.000000,12526.000000,39109.000000,21242.000000
35848.000000,12515.000000,39084.000000,21213.000000
35836.000000,12505.000000,39059.000000,21183.000000
35822.000000,12492.000000,39035.000000,21161.000000
35807.000000,12477.000000,39013.000000,21146.000000
35797.000000,12468.000000,38995.000000,21122.000000
35789.000000,12466.000000,38981.000000,21095.000000
35779.000000,12464.000000,38971.000000,21080.000000
35766.000000,12459.000000,38957.000000,21077.000000
35753.000000,12451.000000,38940.000000,21079.000000
35747.000000,12442.000000,38923.000000,21087.000000
35751.000000,12437.000000,38912.000000,21101.000000
35766.000000,12442.000000,38914.000000,21127.000000
35789.000000,12457.000000,38933.000000,21161.000000
35820.000000,12483.000000,38968.000000,21199.000000
35858.000000,12519.000000,39024.000000,21244.000000
35901.000000,12565.000000,39099.000000,21305.000000
35948.000000,12617.000000,39188.000000,21386.000000
36004.000000,12675.000000,39288.000000,21476.000000
36070.000000,12744.000000,39398.000000,21575.000000
36141.000000,12823.000000,39519.000000,21686.000000
36214.000000,12907.000000,39647.000000,21795.000000
36288.000000,12996.000000,39777.000000,21897.000000
36362.000000,13084.000000,39910.000000,22000.000000
36434.000000,13168.000000,40048.000000,22110.000000
36503.000000,13246.000000,40185.000000,22215.000000
36570.000000,13313.000000,40310.000000,22311.000000
36632.000000,13372.000000,40423.000000,22409.000000
36687.000000,13425.000000,40522.000000,22513.000000
36736.000000,13475.000000,40611.000000,22616.000000
36780.000000,13519.000000,40689.000000,22711.000000
36816.000000,13558.000000,40755.000000,22800.000000
36847.000000,13590.000000,40810.000000,22882.000000
36872.000000,13612.000000,40852.000000,22948.000000
36886.000000,13626.000000,40881.000000,23000.000000
36893.000000,13633.000000,40903.000000,23045.000000
36896.000000,13637.000000,40923.000000,23084.000000
36895.000000,13638.000000,40943.000000,23116.000000
36893.000000,13638.000000,40956.000000,23136.000000
36892.000000,13635.000000,40963.000000,23144.000000
36890.000000,13628.000000,40962.000000,23139.000000
36880.000000,13618.000000,40952.000000,23115.000000
36865.000000,13607.000000,40936.000000,23082.000000
36849.000000,13599.000000,40924.000000,23056.000000
36839.000000,13598.000000,40918.000000,23042.000000
36837.000000,13603.000000,40916.000000,23040.000000
36842.000000,13612.000000,40919.000000,23048.000000
36849.000000,13620.000000,40922.000000,23051.000000
36853.000000,13625.000000,40924.000000,23036.000000
36853.000000,13626.000000,40926.000000,23013.000000
36849.000000,13623.000000,40927.000000,23001.000000
36843.000000,13619.000000,40931.000000,23007.000000
36841.000000,13618.000000,40937.000000,23025.000000
36840.000000,13617.000000,40942.000000,23042.000000
36838.000000,13615.000000,40942.000000,23051.000000
36834.000000,13612.000000,40939.000000,23055.000000
36827.000000,13609.000000,40933.000000,23045.000000
36816.000000,13603.000000,40924.000000,23023.000000
36801.000000,13595.000000,40914.000000,23003.000000
36790.000000,13587.000000,40905.000000,22987.000000
36785.000000,13581.000000,40899.000000,22974.000000
36787.000000,13578.000000,40895.000000,22969.000000
36793.000000,13578.000000,40894.000000,22979.000000
36800.000000,13576.000000,40894.000000,23000.000000
36808.000000,13576.000000,40895.000000,23016.000000
36815.000000,13580.000000,40896.000000,23024.000000
36815.000000,13586.000000,40901.000000,23024.000000
36815.000000,13593.000000,40911.000000,23022.000000
36822.000000,13604.000000,40929.000000,23025.000000
36837.000000,13614.000000,40949.000000,23032.000000
36852.000000,13622.000000,40965.000000,23038.000000
36867.000000,13629.000000,40977.000000,23038.000000
36883.000000,13639.000000,40990.000000,23037.000000
36901.000000,13657.000000,41007.000000,23042.000000
36920.000000,13675.000000,41025.000000,23049.000000
36934.000000,13684.000000,41038.000000,23052.000000
36941.000000,13688.000000,41047.000000,23051.000000
36939.000000,13689.000000,41052.000000,23049.000000
36931.000000,13687.000000,41055.000000,23056.000000
36922.000000,13684.000000,41060.000000,23070.000000
36920.000000,13686.000000,41072.000000,23087.000000
36922.000000,13693.000000,41087.000000,23107.000000
36924.000000,13697.000000,41099.000000,23123.000000
36923.000000,13697.000000,41107.000000,23135.000000
36918.000000,13696.000000,41111.000000,23139.000000
36914.000000,13691.000000,41111.000000,23135.000000
36912.000000,13687.000000,41110.000000,23140.000000
36913.000000,13684.000000,41108.000000,23156.000000
36912.000000,13681.000000,41099.000000,23171.000000
36910.000000,13676.000000,41079.000000,23189.000000
36906.000000,13667.000000,41054.000000,23202.000000
36899.000000,13654.000000,41029.000000,23198.000000
36890.000000,13640.000000,41006.000000,23183.000000
36878.000000,13624.000000,40984.000000,23163.000000
36868.000000,13609.000000,40968.000000,23144.000000
36862.000000,13598.000000,40956.000000,23130.000000
36858.000000,13590.000000,40944.000000,23114.000000
36848.000000,13577.000000,40925.000000,23083.000000
36836.000000,13561.000000,40900.000000,23041.000000
36829.000000,13544.000000,40876.000000,23003.000000
36823.000000,13527.000000,40853.000000,22974.000000
36813.000000,13513.000000,40832.000000,22947.000000
36800.000000,13502.000000,40811.000000,22922.000000
36783.000000,13490.000000,40793.000000,22898.000000
36765.000000,13476.000000,40776.000000,22871.000000
36746.000000,13461.000000,40760.000000,22840.000000
36725.000000,13447.000000,40743.000000,22807.000000
36702.000000,13435.000000,40726.000000,22768.000000
36680.000000,13424.000000,40708.000000,22729.000000
36668.000000,13417.000000,40691.000000,22696.000000
36664.000000,13413.000000,40675.000000,22666.000000
36659.000000,13408.000000,40659.000000,22635.000000
36651.000000,13399.000000,40640.000000,22613.000000
36645.000000,13392.000000,40619.000000,22609.000000
36643.000000,13388.000000,40600.000000,22617.000000
36643.000000,13385.000000,40587.000000,22628.000000
36642.000000,13383.000000,40577.000000,22645.000000
36639.000000,13379.000000,40565.000000,22667.000000
36636.000000,13371.000000,40546.000000,22677.000000
36632.000000,13360.000000,40524.000000,22672.000000
36626.000000,13350.000000,40503.000000,22660.000000
36620.000000,13342.000000,40488.000000,22653.000000
36614.000000,13336.000000,40477.000000,22652.000000
36606.000000,13328.000000,40466.000000,22644.000000
36600.000000,13320.000000,40456.000000,22629.000000
36600.000000,13314.000000,40448.000000,22608.000000
36601.000000,13314.000000,40439.000000,22585.000000
36602.000000,13316.000000,40427.000000,22561.000000
36599.000000,13312.000000,40408.000000,22531.000000
36589.000000,13297.000000,40380.000000,22485.000000
36574.000000,13276.000000,40348.000000,22426.000000
36560.000000,13260.000000,40321.000000,22372.000000
36545.000000,13249.000000,40299.000000,22348.000000
36526.000000,13234.000000,40276.000000,22346.000000
36506.000000,13216.000000,40252.000000,22339.000000
36492.000000,13202.000000,40226.000000,22318.000000
36485.000000,13190.000000,40201.000000,22299.000000
36478.000000,13177.000000,40180.000000,22286.000000
36467.000000,13162.000000,40160.000000,22267.000000
36453.000000,13147.000000,40141.000000,22237.000000
36439.000000,13134.000000,40123.000000,22209.000000
36429.000000,13123.000000,40105.000000,22191.000000
36412.000000,13107.000000,40085.000000,22178.000000
36386.000000,13083.000000,40060.000000,22163.000000
36355.000000,13060.000000,40033.000000,22148.000000
36327.000000,13043.000000,40005.000000,22136.000000
36306.000000,13030.000000,39978.000000,22117.000000
36290.000000,13018.000000,39952.000000,22102.000000
36277.000000,13007.000000,39925.000000,22096.000000
36266.000000,12997.000000,39895.000000,22081.000000
36251.000000,12988.000000,39864.000000,22043.000000
36237.000000,12976.000000,39835.000000,21999.000000
36227.000000,12966.000000,39812.000000,21978.000000
36221.000000,12958.000000,39792.000000,21969.000000
36216.000000,12947.000000,39772.000000,21945.000000
36211.000000,12935.000000,39752.000000,21915.000000
36204.000000,12920.000000,39728.000000,21883.000000
36193.000000,12904.000000,39704.000000,21842.000000
36181.000000,12889.000000,39680.000000,21790.000000
36164.000000,12874.000000,39650.000000,21737.000000
36145.000000,12859.000000,39616.000000,21689.000000
36127.000000,12843.000000,39581.000000,21643.000000
36105.000000,12821.000000,39545.000000,21601.000000
36078.000000,12796.000000,39507.000000,21573.000000
36049.000000,12771.000000,39470.000000,21560.000000
36023.000000,12746.000000,39432.000000,21542.000000
36003.000000,12721.000000,39396.000000,21516.000000
35991.000000,12698.000000,39360.000000,21498.000000
35983.000000,12679.000000,39328.000000,21495.000000
35978.000000,12668.000000,39301.000000,21498.000000
35974.000000,12663.000000,39280.000000,21497.000000
35971.000000,12658.000000,39262.000000,21481.000000
35965.000000,12651.000000,39242.000000,21441.000000
35955.000000,12642.000000,39221.000000,21386.000000
35945.000000,12630.000000,39205.000000,21341.000000
35936.000000,12620.000000,39191.000000,21319.000000
35928.000000,12610.000000,39170.000000,21310.000000
35915.000000,12595.000000,39142.000000,21295.000000
35896.000000,12575.000000,39107.000000,21265.000000
35882.000000,12554.000000,39068.000000,21230.000000
35873.000000,12534.000000,39034.000000,21205.000000
35863.000000,12518.000000,39007.000000,21191.000000
35847.000000,12503.000000,38985.000000,21177.000000
35823.000000,12487.000000,38962.000000,21159.000000
35796.000000,12470.000000,38939.000000,21134.000000
35773.000000,12456.000000,38918.000000,21106.000000
35754.000000,12441.000000,38891.000000,21074.000000
35738.000000,12422.000000,38858.000000,21037.000000
35724.000000,12401.000000,38825.000000,20993.000000
35714.000000,12382.000000,38796.000000,20944.000000
35708.000000,12367.000000,38767.000000,20908.000000
35701.000000,12352.000000,38737.000000,20889.000000
35696.000000,12336.000000,38703.000000,20861.000000
35687.000000,12318.000000,38664.000000,20814.000000
35672.000000,12300.000000,38620.000000,20773.000000
35658.000000,12285.000000,38581.000000,20760.000000
35647.000000,12274.000000,38549.000000,20764.000000
35632.000000,12261.000000,38516.000000,20755.000000
35614.000000,12243.000000,38482.000000,20728.000000
35593.000000,12224.000000,38448.000000,20702.000000
35570.000000,12203.000000,38413.000000,20667.000000
35548.000000,12186.000000,38381.000000,20617.000000
35533.000000,12176.000000,38359.000000,20576.000000
35522.000000,12170.000000,38346.000000,20542.000000
35516.000000,12169.000000,38343.000000,20516.000000
35521.000000,12180.000000,38356.000000,20511.000000
35537.000000,12203.000000,38386.000000,20524.000000
35561.000000,12231.000000,38430.000000,20548.000000
35596.000000,12269.000000,38488.000000,20590.000000
35640.000000,12318.000000,38557.000000,20655.000000
35685.000000,12372.000000,38634.000000,20733.000000
35730.000000,12431.000000,38721.000000,20818.000000
35780.000000,12494.000000,38819.000000,20913.000000
35835.000000,12563.000000,38924.000000,21020.000000
35896.000000,12634.000000,39036.000000,21139.000000
35963.000000,12708.000000,39156.000000,21275.000000
36032.000000,12785.000000,39280.000000,21420.000000
36098.000000,12860.000000,39400.000000,21558.000000
36161.000000,12929.000000,39516.000000,21686.000000
36221.000000,12991.000000,39626.000000,21801.000000
36281.000000,13047.000000,39730.000000,21901.000000
36338.000000,13096.000000,39826.000000,21981.000000
36385.000000,13138.000000,39909.000000,22042.000000
36428.000000,13178.000000,39982.000000,22097.000000
36467.000000,13216.000000,40049.000000,22147.000000
36493.000000,13248.000000,40105.000000,22187.000000
36510.000000,13272.000000,40151.000000,22228.000000
36521.000000,13289.000000,40192.000000,22278.000000
36526.000000,13301.000000,40226.000000,22328.000000
36526.000000,13310.000000,40250.000000,22367.000000
36523.000000,13312.000000,40259.000000,22388.000000
36517.000000,13306.000000,40253.000000,22380.000000
36509.000000,13289.000000,40236.000000,22349.000000
36501.000000,13267.000000,40216.000000,22314.000000
36494.000000,13249.000000,40196.000000,22289.000000
36490.000000,13239.000000,40182.000000,22282.000000
36491.000000,13239.000000,40174.000000,22288.000000
36493.000000,13243.000000,40167.000000,22294.000000
36497.000000,13244.000000,40161.000000,22304.000000
36499.000000,13241.000000,40153.000000,22321.000000
36495.000000,13233.000000,40142.000000,22328.000000
36484.000000,13223.000000,40125.000000,22310.000000
36474.000000,13214.000000,40107.000000,22284.000000
36467.000000,13208.000000,40092.000000,22269.000000
36463.000000,13204.000000,40083.000000,22259.000000
36457.000000,13200.000000,40077.000000,22247.000000
36449.000000,13198.000000,40073.000000,22238.000000
36445.000000,13198.000000,40071.000000,22234.000000
36445.000000,13195.000000,40069.000000,22224.000000
36442.000000,13188.000000,40068.000000,22214.000000
36443.000000,13185.000000,40071.000000,22209.000000
36451.000000,13187.000000,40071.000000,22195.000000
36461.000000,13188.000000,40070.000000,22169.000000
36466.000000,13189.000000,40070.000000,22144.000000
36468.000000,13192.000000,40072.000000,22126.000000
36469.000000,13196.000000,40077.000000,22113.000000
36470.000000,13198.000000,40083.000000,22102.000000
36468.000000,13199.000000,40088.000000,22102.000000
36469.000000,13200.000000,40094.000000,22115.000000
36474.000000,13203.000000,40103.000000,22130.000000
36482.000000,13208.000000,40108.000000,22142.000000
36484.000000,13208.000000,40112.000000,22153.000000
36482.000000,13207.000000,40120.000000,22163.000000
36483.000000,13210.000000,40131.000000,22177.000000
36488.000000,13218.000000,40145.000000,22198.000000
36493.000000,13230.000000,40161.000000,22222.000000
36500.000000,13246.000000,40181.000000,22248.000000
36510.000000,13264.000000,40203.000000,22271.000000
36522.000000,13282.000000,40223.000000,22295.000000
36535.000000,13300.000000,40243.000000,22328.000000
36542.000000,13317.000000,40261.000000,22356.000000
36546.000000,13331.000000,40273.000000,22377.000000
36551.000000,13342.000000,40283.000000,22398.000000
36557.000000,13350.000000,40292.000000,22427.000000
36561.000000,13353.000000,40296.000000,22454.000000
36562.000000,13347.000000,40291.000000,22467.000000
36562.000000,13337.000000,40283.000000,22476.000000
36558.000000,13326.000000,40274.000000,22483.000000
36548.000000,13312.000000,40267.000000,22473.000000
36533.000000,13300.000000,40261.000000,22439.000000
36524.000000,13295.000000,40257.000000,22398.000000
36519.000000,13292.000000,40255.000000,22373.000000
36514.000000,13289.000000,40251.000000,22369.000000
36512.000000,13287.000000,40248.000000,22376.000000
36513.000000,13283.000000,40241.000000,22380.000000
36509.000000,13276.000000,40230.000000,22379.000000
36502.000000,13268.000000,40217.000000,22372.000000
36491.000000,13257.000000,40201.000000,22361.000000
36477.000000,13242.000000,40178.000000,22348.000000
36459.000000,13223.000000,40147.000000,22323.000000
36440.000000,13201.000000,40114.000000,22285.000000
36420.000000,13181.000000,40086.000000,22251.000000
36406.000000,13168.000000,40065.000000,22236.000000
36400.000000,13162.000000,40048.000000,22233.000000
36395.000000,13153.000000,40027.000000,22215.000000
36388.000000,13141.000000,40000.000000,22178.000000
36385.000000,13131.000000,39976.000000,22145.000000
36382.000000,13124.000000,39956.000000,22121.000000
36375.000000,13114.000000,39935.000000,22094.000000
36364.000000,13099.000000,39913.000000,22061.000000
36349.000000,13084.000000,39894.000000,22034.000000
36335.000000,13070.000000,39875.000000,22019.000000
36320.000000,13053.000000,39852.000000,21999.000000
36303.000000,13034.000000,39825.000000,21956.000000
36290.000000,13016.000000,39797.000000,21904.000000
36284.000000,13002.000000,39775.000000,21864.000000
36281.000000,12992.000000,39756.000000,21826.000000
36281.000000,12986.000000,39741.000000,21787.000000
36280.000000,12985.000000,39726.000000,21760.000000
36281.000000,12989.000000,39715.000000,21743.000000
36283.000000,12991.000000,39705.000000,21720.000000
36281.000000,12989.000000,39694.000000,21695.000000
36279.000000,12989.000000,39683.000000,21691.000000
36276.000000,12989.000000,39672.000000,21706.000000
36270.000000,12983.000000,39659.000000,21712.000000
36261.000000,12974.000000,39643.000000,21711.000000
36253.000000,12965.000000,39631.000000,21724.000000
36248.000000,12960.000000,39628.000000,21754.000000
36245.000000,12961.000000,39629.000000,21779.000000
36241.000000,12965.000000,39627.000000,21777.000000
36238.000000,12967.000000,39623.000000,21751.000000
36235.000000,12966.000000,39616.000000,21719.000000
36230.000000,12961.000000,39605.000000,21691.000000
36223.000000,12950.000000,39592.000000,21665.000000
36211.000000,12936.000000,39576.000000,21646.000000
36192.000000,12923.000000,39558.000000,21635.000000
36169.000000,12907.000000,39540.000000,21621.000000
36146.000000,12888.000000,39523.000000,21605.000000
36127.000000,12869.000000,39505.000000,21586.000000
36110.000000,12851.000000,39485.000000,21558.000000
36095.000000,12833.000000,39466.000000,21535.000000
36086.000000,12821.000000,39451.000000,21534.000000
36079.000000,12815.000000,39439.000000,21543.000000
36070.000000,12809.000000,39425.000000,21535.000000
36061.000000,12800.000000,39407.000000,21506.000000
36048.000000,12789.000000,39383.000000,21472.000000
36040.000000,12780.000000,39356.000000,21446.000000
36039.000000,12774.000000,39331.000000,21426.000000
36039.000000,12769.000000,39309.000000,21415.000000
36035.000000,12760.000000,39285.000000,21412.000000
36023.000000,12745.000000,39265.000000,21412.000000
36006.000000,12732.000000,39251.000000,21399.000000
35991.000000,12723.000000,39239.000000,21378.000000
35979.000000,12711.000000,39225.000000,21360.000000
35968.000000,12697.000000,39206.000000,21330.000000
35964.000000,12687.000000,39189.000000,21290.000000
35962.000000,12681.000000,39174.000000,21256.000000
35956.000000,12675.000000,39159.000000,21236.000000
35948.000000,12668.000000,39139.000000,21222.000000
35939.000000,12655.000000,39114.000000,21198.000000
35924.000000,12634.000000,39081.000000,21164.000000
35907.000000,12609.000000,39046.000000,21128.000000
35891.000000,12587.000000,39010.000000,21084.000000
35876.000000,12571.000000,38976.000000,21032.000000
35862.000000,12563.000000,38947.000000,20989.000000
35850.000000,12562.000000,38923.000000,20975.000000
35841.000000,12562.000000,38903.000000,20977.000000
35833.000000,12561.000000,38886.000000,20970.000000
35822.000000,12557.000000,38870.000000,20959.000000
35815.000000,12552.000000,38855.000000,20956.000000
35810.000000,12541.000000,38837.000000,20955.000000
35799.000000,12523.000000,38811.000000,20948.000000
35783.000000,12502.000000,38781.000000,20935.000000
35766.000000,12480.000000,38752.000000,20922.000000
35753.000000,12459.000000,38727.000000,20910.000000
35740.000000,12437.000000,38702.000000,20887.000000
35726.000000,12416.000000,38673.000000,20848.000000
35718.000000,12398.000000,38645.000000,20813.000000
35715.000000,12384.000000,38622.000000,20790.000000
35710.000000,12369.000000,38600.000000,20767.000000
35697.000000,12348.000000,38577.000000,20736.000000
35679.000000,12326.000000,38549.000000,20705.000000
35663.000000,12304.000000,38518.000000,20675.000000
35647.000000,12284.000000,38485.000000,20636.000000
35629.000000,12268.000000,38454.000000,20595.000000
35608.000000,12255.000000,38426.000000,20567.000000
35588.000000,12242.000000,38400.000000,20538.000000
35575.000000,12231.000000,38372.000000,20510.000000
35566.000000,12223.000000,38344.000000,20496.000000
35559.000000,12218.000000,38316.000000,20480.000000
35554.000000,12218.000000,38293.000000,20458.000000
35546.000000,12217.000000,38277.000000,20441.000000
35533.000000,12214.000000,38262.000000,20436.000000
35521.000000,12208.000000,38243.000000,20438.000000
35512.000000,12200.000000,38224.000000,20428.000000
35506.000000,12193.000000,38205.000000,20419.000000
35500.000000,12187.000000,38185.000000,20414.000000
35492.000000,12177.000000,38165.000000,20401.000000
35482.000000,12164.000000,38147.000000,20379.000000
35472.000000,12149.000000,38133.000000,20355.000000
35465.000000,12135.000000,38118.000000,20331.000000
35463.000000,12123.000000,38103.000000,20308.000000
35464.000000,12116.000000,38088.000000,20285.000000
35464.000000,12112.000000,38077.000000,20264.000000
35467.000000,12112.000000,38071.000000,20245.000000
35476.000000,12118.000000,38078.000000,20236.000000
35497.000000,12136.000000,38105.000000,20244.000000
35527.000000,12168.000000,38154.000000,20280.000000
35564.000000,12214.000000,38224.000000,20349.000000
35611.000000,12272.000000,38310.000000,20445.000000
35668.000000,12339.000000,38410.000000,20558.000000
35730.000000,12409.000000,38520.000000,20681.000000
35793.000000,12481.000000,38642.000000,20812.000000
35856.000000,12558.000000,38769.000000,20940.000000
35922.000000,12636.000000,38897.000000,21053.000000
35991.000000,12713.000000,39024.000000,21157.000000
36059.000000,12790.000000,39147.000000,21254.000000
36126.000000,12862.000000,39263.000000,21344.000000
36190.000000,12923.000000,39364.000000,21423.000000
36244.000000,12970.000000,39451.000000,21505.000000
36284.000000,13011.000000,39528.000000,21595.000000
36316.000000,13050.000000,39602.000000,21685.000000
36341.000000,13087.000000,39673.000000,21773.000000
36362.000000,13122.000000,39739.000000,21859.000000
36385.000000,13151.000000,39794.000000,21931.000000
36403.000000,13171.000000,39837.000000,21979.000000
36413.000000,13183.000000,39869.000000,22005.000000
36419.000000,13189.000000,39892.000000,22023.000000
36426.000000,13190.000000,39910.000000,22054.000000
36436.000000,13188.000000,39923.000000,22082.000000
36449.000000,13182.000000,39926.000000,22089.000000
36459.000000,13175.000000,39921.000000,22085.000000
36469.000000,13174.000000,39914.000000,22086.000000
36477.000000,13178.000000,39908.000000,22089.000000
36476.000000,13178.000000,39896.000000,22080.000000
36468.000000,13170.000000,39882.000000,22055.000000
36454.000000,13155.000000,39873.000000,22021.000000
36440.000000,13141.000000,39870.000000,21985.000000
36431.000000,13134.000000,39871.000000,21957.000000
36430.000000,13137.000000,39880.000000,21958.000000
36433.000000,13147.000000,39894.000000,21985.000000
36437.000000,13156.000000,39903.000000,22012.000000
36440.000000,13160.000000,39905.000000,22018.000000
36443.000000,13160.000000,39902.000000,22010.000000
36444.000000,13158.000000,39902.000000,22007.000000
36441.000000,13152.000000,39903.000000,22013.000000
36438.000000,13148.000000,39903.000000,22024.000000
36436.000000,13147.000000,39902.000000,22032.000000
36434.000000,13149.000000,39898.000000,22024.000000
36436.000000,13150.000000,39895.000000,22001.000000
36442.000000,13150.000000,39895.000000,21989.000000
36451.000000,13152.000000,39901.000000,22002.000000
36458.000000,13155.000000,39912.000000,22025.000000
36462.000000,13156.000000,39924.000000,22033.000000
36463.000000,13156.000000,39932.000000,22032.000000
36460.000000,13157.000000,39937.000000,22041.000000
36460.000000,13160.000000,39942.000000,22061.000000
36461.000000,13161.000000,39943.000000,22080.000000
36466.000000,13162.000000,39942.000000,22096.000000
36473.000000,13164.000000,39941.000000,22115.000000
36474.000000,13165.000000,39941.000000,22123.000000
36473.000000,13166.000000,39945.000000,22117.000000
36474.000000,13175.000000,39959.000000,22125.000000
36479.000000,13190.000000,39983.000000,22149.000000
36487.000000,13208.000000,40009.000000,22164.000000
36496.000000,13227.000000,40034.000000,22181.000000
36508.000000,13243.000000,40055.000000,22206.000000
36524.000000,13254.000000,40073.000000,22224.000000
36539.000000,13262.000000,40086.000000,22231.000000
36548.000000,13266.000000,40095.000000,22238.000000
36554.000000,13271.000000,40102.000000,22256.000000
36557.000000,13277.000000,40109.000000,22278.000000
36556.000000,13282.000000,40117.000000,22290.000000
36555.000000,13286.000000,40124.000000,22284.000000
36557.000000,13286.000000,40129.000000,22270.000000
36562.000000,13285.000000,40132.000000,22263.000000
36566.000000,13284.000000,40132.000000,22260.000000
36569.000000,13282.000000,40133.000000,22260.000000
36568.000000,13277.000000,40133.000000,22262.000000
36560.000000,13273.000000,40133.000000,22258.000000
36547.000000,13267.000000,40131.000000,22240.000000
36532.000000,13255.000000,40124.000000,22218.000000
36516.000000,13239.000000,40111.000000,22199.000000
36502.000000,13225.000000,40092.000000,22182.000000
36491.000000,13215.000000,40070.000000,22176.000000
36479.000000,13206.000000,40050.000000,22175.000000
36467.000000,13199.000000,40034.000000,22172.000000
36458.000000,13197.000000,40024.000000,22172.000000
36453.000000,13196.000000,40015.000000,22165.000000
36445.000000,13191.000000,40005.000000,22147.000000
36433.000000,13186.000000,39995.000000,22133.000000
36419.000000,13177.000000,39982.000000,22115.000000
36409.000000,13167.000000,39963.000000,22075.000000
36402.000000,13156.000000,39937.000000,22017.000000
36396.000000,13142.000000,39908.000000,21957.000000
36385.000000,13126.000000,39881.000000,21910.000000
36373.000000,13109.000000,39857.000000,21888.000000
36365.000000,13095.000000,39831.000000,21879.000000
36359.000000,13083.000000,39802.000000,21862.000000
36352.000000,13071.000000,39777.000000,21839.000000
36345.000000,13061.000000,39758.000000,21826.000000
36340.000000,13054.000000,39742.000000,21815.000000
36339.000000,13050.000000,39730.000000,21798.000000
36343.000000,13051.000000,39723.000000,21788.000000
36351.000000,13060.000000,39721.000000,21799.000000
36360.000000,13068.000000,39720.000000,21822.000000
36367.000000,13074.000000,39714.000000,21838.000000
36369.000000,13080.000000,39703.000000,21851.000000
36364.000000,13081.000000,39687.000000,21863.000000
36351.000000,13072.000000,39670.000000,21862.000000
36331.000000,13057.000000,39652.000000,21848.000000
36308.000000,13041.000000,39637.000000,21824.000000
36285.000000,13025.000000,39628.000000,21802.000000
36263.000000,13015.000000,39621.000000,21778.000000
36250.000000,13009.000000,39614.000000,21738.000000
36245.000000,13003.000000,39603.000000,21689.000000
36248.000000,12999.000000,39595.000000,21651.000000
36256.000000,13002.000000,39590.000000,21636.000000
36266.000000,13006.000000,39588.000000,21647.000000
36269.000000,13009.000000,39583.000000,21663.000000
36267.000000,13005.000000,39575.000000,21659.000000
36260.000000,12994.000000,39563.000000,21643.000000
36250.000000,12982.000000,39548.000000,21630.000000
36242.000000,12972.000000,39527.000000,21603.000000
36236.000000,12959.000000,39505.000000,21560.000000
36229.000000,12947.000000,39486.000000,21524.000000
36223.000000,12940.000000,39470.000000,21511.000000
36218.000000,12935.000000,39456.000000,21516.000000
36211.000000,12929.000000,39440.000000,21532.000000
36198.000000,12918.000000,39421.000000,21551.000000
36185.000000,12903.000000,39404.000000,21556.000000
36173.000000,12887.000000,39385.000000,21542.000000
36157.000000,12870.000000,39364.000000,21511.000000
36139.000000,12854.000000,39340.000000,21468.000000
36125.000000,12839.000000,39317.000000,21413.000000
36115.000000,12825.000000,39296.000000,21352.000000
36107.000000,12816.000000,39279.000000,21301.000000
36103.000000,12813.000000,39270.000000,21283.000000
36101.000000,12816.000000,39267.000000,21293.000000
36098.000000,12820.000000,39266.000000,21316.000000
36091.000000,12818.000000,39262.000000,21336.000000
36080.000000,12810.000000,39249.000000,21336.000000
36069.000000,12797.000000,39226.000000,21308.000000
36056.000000,12781.000000,39197.000000,21265.000000
36039.000000,12761.000000,39162.000000,21224.000000
36016.000000,12738.000000,39128.000000,21186.000000
35991.000000,12719.000000,39099.000000,21151.000000
35969.000000,12702.000000,39074.000000,21118.000000
35953.000000,12683.000000,39049.000000,21087.000000
35944.000000,12664.000000,39024.000000,21064.000000
35941.000000,12649.000000,39002.000000,21044.000000
35944.000000,12636.000000,38981.000000,21026.000000
35947.000000,12623.000000,38961.000000,21025.000000
35945.000000,12613.000000,38940.000000,21047.000000
35939.000000,12604.000000,38919.000000,21069.000000
35928.000000,12595.000000,38895.000000,21072.000000
35914.000000,12585.000000,38868.000000,21049.000000
35901.000000,12574.000000,38843.000000,21016.000000
35887.000000,12562.000000,38821.000000,20983.000000
35871.000000,12548.000000,38800.000000,20950.000000
35854.000000,12535.000000,38785.000000,20924.000000
35839.000000,12526.000000,38773.000000,20911.000000
35828.000000,12522.000000,38763.000000,20901.000000
35823.000000,12520.000000,38752.000000,20896.000000
35822.000000,12522.000000,38741.000000,20905.000000
35820.000000,12524.000000,38730.000000,20917.000000
35816.000000,12521.000000,38713.000000,20913.000000
35810.000000,12513.000000,38692.000000,20895.000000
35804.000000,12502.000000,38669.000000,20871.000000
35795.000000,12491.000000,38647.000000,20844.000000
35782.000000,12480.000000,38621.000000,20808.000000
35766.000000,12464.000000,38593.000000,20760.000000
35749.000000,12449.000000,38564.000000,20707.000000
35736.000000,12438.000000,38537.000000,20649.000000
35727.000000,12426.000000,38508.000000,20591.000000
35716.000000,12411.000000,38473.000000,20540.000000
35700.000000,12391.000000,38436.000000,20495.000000
35682.000000,12371.000000,38401.000000,20461.000000
35664.000000,12352.000000,38370.000000,20442.000000
35643.000000,12332.000000,38342.000000,20423.000000
35619.000000,12315.000000,38315.000000,20406.000000
35600.000000,12301.000000,38294.000000,20408.000000
35585.000000,12289.000000,38277.000000,20414.000000
35570.000000,12277.000000,38260.000000,20400.000000
35556.000000,12267.000000,38240.000000,20370.000000
35545.000000,12257.000000,38220.000000,20347.000000
35540.000000,12248.000000,38204.000000,20342.000000
35538.000000,12242.000000,38191.000000,20360.000000
35538.000000,12233.000000,38180.000000,20379.000000
35536.000000,12219.000000,38165.000000,20381.000000
35528.000000,12202.000000,38140.000000,20365.000000
35516.000000,12186.000000,38103.000000,20338.000000
35503.000000,12173.000000,38063.000000,20300.000000
35489.000000,12157.000000,38025.000000,20248.000000
35475.000000,12143.000000,37991.000000,20189.000000
35467.000000,12133.000000,37968.000000,20145.000000
35458.000000,12127.000000,37952.000000,20124.000000
35451.000000,12125.000000,37937.000000,20109.000000
35451.000000,12130.000000,37925.000000,20099.000000
35463.000000,12146.000000,37926.000000,20105.000000
35484.000000,12177.000000,37944.000000,20128.000000
35515.000000,12216.000000,37978.000000,20155.000000
35551.000000,12260.000000,38026.000000,20192.000000
35589.000000,12312.000000,38090.000000,20260.000000
35631.000000,12371.000000,38174.000000,20349.000000
35677.000000,12433.000000,38273.000000,20442.000000
35733.000000,12498.000000,38382.000000,20537.000000
35798.000000,12566.000000,38499.000000,20635.000000
35865.000000,12635.000000,38620.000000,20735.000000
35932.000000,12702.000000,38744.000000,20830.000000
35998.000000,12767.000000,38870.000000,20927.000000
36059.000000,12829.000000,38994.000000,21035.000000
36117.000000,12890.000000,39115.000000,21149.000000
36173.000000,12948.000000,39232.000000,21264.000000
36225.000000,13002.000000,39342.000000,21376.000000
36272.000000,13051.000000,39442.000000,21479.000000
36313.000000,13091.000000,39533.000000,21575.000000
36349.000000,13124.000000,39610.000000,21659.000000
36380.000000,13154.000000,39674.000000,21734.000000
36408.000000,13180.000000,39729.000000,21808.000000
36431.000000,13202.000000,39771.000000,21871.000000
36448.000000,13220.000000,39806.000000,21923.000000
36461.000000,13235.000000,39837.000000,21972.000000
36470.000000,13243.000000,39864.000000,22012.000000
36470.000000,13244.000000,39885.000000,22031.000000
36462.000000,13242.000000,39899.000000,22028.000000
36453.000000,13239.000000,39902.000000,22015.000000
36448.000000,13236.000000,39899.000000,22005.000000
36447.000000,13229.000000,39889.000000,22000.000000
36445.000000,13218.000000,39876.000000,22002.000000
36445.000000,13205.000000,39867.000000,22009.000000
36442.000000,13190.000000,39863.000000,22013.000000
36435.000000,13176.000000,39859.000000,22002.000000
36429.000000,13168.000000,39856.000000,21986.000000
36425.000000,13166.000000,39857.000000,21984.000000
36427.000000,13171.000000,39863.000000,21993.000000
36432.000000,13182.000000,39875.000000,22002.000000
36437.000000,13195.000000,39891.000000,22019.000000
36440.000000,13209.000000,39907.000000,22045.000000
36442.000000,13218.000000,39919.000000,22064.000000
36445.000000,13225.000000,39928.000000,22071.000000
36453.000000,13235.000000,39941.000000,22082.000000
36466.000000,13249.000000,39955.000000,22103.000000
36481.000000,13259.000000,39964.000000,22128.000000
36493.000000,13263.000000,39966.000000,22155.000000
36500.000000,13264.000000,39966.000000,22186.000000
36498.000000,13260.000000,39968.000000,22211.000000
36488.000000,13254.000000,39973.000000,22215.000000
36476.000000,13246.000000,39977.000000,22193.000000
36464.000000,13234.000000,39977.000000,22156.000000
36452.000000,13222.000000,39972.000000,22124.000000
36441.000000,13218.000000,39966.000000,22109.000000
36434.000000,13220.000000,39961.000000,22104.000000
36429.000000,13221.000000,39960.000000,22101.000000
36426.000000,13221.000000,39964.000000,22103.000000
36424.000000,13222.000000,39975.000000,22111.000000
36422.000000,13227.000000,39987.000000,22115.000000
36421.000000,13234.000000,39999.000000,22119.000000
36426.000000,13248.000000,40013.000000,22139.000000
36438.000000,13267.000000,40031.000000,22174.000000
36455.000000,13287.000000,40053.000000,22217.000000
36472.000000,13304.000000,40077.000000,22263.000000
36489.000000,13319.000000,40101.000000,22304.000000
36505.000000,13328.000000,40123.000000,22328.000000
36520.000000,13331.000000,40137.000000,22326.000000
36532.000000,13328.000000,40142.000000,22311.000000
36537.000000,13326.000000,40146.000000,22306.000000
36537.000000,13323.000000,40150.000000,22312.000000
36532.000000,13319.000000,40154.000000,22320.000000
36524.000000,13315.000000,40155.000000,22324.000000
36517.000000,13313.000000,40153.000000,22326.000000
36513.000000,13312.000000,40149.000000,22319.000000
36509.000000,13307.000000,40139.000000,22300.000000
36509.000000,13301.000000,40129.000000,22279.000000
36511.000000,13299.000000,40121.000000,22263.000000
36508.000000,13301.000000,40113.000000,22245.000000
36506.000000,13302.000000,40105.000000,22228.000000
36506.000000,13301.000000,40096.000000,22216.000000
36509.000000,13302.000000,40088.000000,22208.000000
36515.000000,13302.000000,40085.000000,22209.000000
36516.000000,13298.000000,40080.000000,22213.000000
36512.000000,13288.000000,40068.000000,22202.000000
36503.000000,13270.000000,40047.000000,22172.000000
36488.000000,13247.000000,40018.000000,22128.000000
36467.000000,13223.000000,39986.000000,22079.000000
36440.000000,13199.000000,39954.000000,22040.000000
36411.000000,13177.000000,39925.000000,22013.000000
36386.000000,13157.000000,39901.000000,21988.000000
36369.000000,13144.000000,39882.000000,21972.000000
36359.000000,13140.000000,39868.000000,21972.000000
36351.000000,13138.000000,39854.000000,21977.000000
36343.000000,13133.000000,39838.000000,21970.000000
36336.000000,13123.000000,39816.000000,21951.000000
36326.000000,13107.000000,39790.000000,21923.000000
36312.000000,13088.000000,39762.000000,21886.000000
36299.000000,13071.000000,39737.000000,21847.000000
36290.000000,13061.000000,39717.000000,21825.000000
36284.000000,13053.000000,39703.000000,21821.000000
36276.000000,13044.000000,39691.000000,21819.000000
36269.000000,13034.000000,39676.000000,21812.000000
36261.000000,13020.000000,39660.000000,21803.000000
36253.000000,13005.000000,39647.000000,21794.000000
36241.000000,12993.000000,39636.000000,21777.000000
36225.000000,12983.000000,39624.000000,21746.000000
36208.000000,12973.000000,39607.000000,21713.000000
36187.000000,12959.000000,39584.000000,21684.000000
36167.000000,12942.000000,39559.000000,21657.000000
36149.000000,12925.000000,39536.000000,21636.000000
36135.000000,12911.000000,39517.000000,21644.000000
36122.000000,12901.000000,39503.000000,21674.000000
36107.000000,12893.000000,39492.000000,21692.000000
36093.000000,12886.000000,39479.000000,21698.000000
36083.000000,12877.000000,39469.000000,21709.000000
36076.000000,12869.000000,39459.000000,21717.000000
36069.000000,12864.000000,39448.000000,21712.000000
36061.000000,12858.000000,39435.000000,21699.000000
36052.000000,12848.000000,39418.000000,21678.000000
36041.000000,12835.000000,39398.000000,21652.000000
36030.000000,12824.000000,39375.000000,21634.000000
36019.000000,12814.000000,39350.000000,21624.000000
36008.000000,12803.000000,39322.000000,21606.000000
36000.000000,12791.000000,39290.000000,21567.000000
35989.000000,12774.000000,39254.000000,21511.000000
35974.000000,12753.000000,39219.000000,21458.000000
35957.000000,12736.000000,39193.000000,21419.000000
35939.000000,12719.000000,39172.000000,21382.000000
35923.000000,12702.000000,39153.000000,21349.000000
35908.000000,12688.000000,39133.000000,21338.000000
35895.000000,12680.000000,39115.000000,21349.000000
35884.000000,12673.000000,39099.000000,21358.000000
35875.000000,12662.000000,39080.000000,21350.000000
35866.000000,12647.000000,39057.000000,21328.000000
35856.000000,12629.000000,39028.000000,21295.000000
35846.000000,12609.000000,38997.000000,21258.000000
35835.000000,12589.000000,38963.000000,21229.000000
35824.000000,12568.000000,38928.000000,21208.000000
35817.000000,12548.000000,38897.000000,21192.000000
35810.000000,12531.000000,38871.000000,21176.000000
35799.000000,12514.000000,38844.000000,21142.000000
35785.000000,12496.000000,38816.000000,21089.000000
35769.000000,12479.000000,38793.000000,21036.000000
35754.000000,12464.000000,38771.000000,20982.000000
35740.000000,12453.000000,38747.000000,20931.000000
35728.000000,12444.000000,38722.000000,20895.000000
35714.000000,12435.000000,38698.000000,20876.000000
35696.000000,12422.000000,38670.000000,20865.000000
35678.000000,12410.000000,38640.000000,20854.000000
35660.000000,12399.000000,38609.000000,20841.000000
35642.000000,12386.000000,38578.000000,20827.000000
35625.000000,12370.000000,38549.000000,20813.000000
35608.000000,12350.000000,38520.000000,20786.000000
35590.000000,12326.000000,38492.000000,20743.000000
35574.000000,12306.000000,38469.000000,20686.000000
35560.000000,12290.000000,38453.000000,20625.000000
35545.000000,12272.000000,38444.000000,20576.000000
35528.000000,12256.000000,38439.000000,20540.000000
35512.000000,12247.000000,38433.000000,20510.000000
35496.000000,12240.000000,38424.000000,20485.000000
35479.000000,12230.000000,38406.000000,20466.000000
35465.000000,12216.000000,38378.000000,20457.000000
35450.000000,12202.000000,38347.000000,20458.000000
35432.000000,12187.000000,38309.000000,20458.000000
35414.000000,12170.000000,38269.000000,20466.000000
35399.000000,12153.000000,38232.000000,20477.000000
35384.000000,12135.000000,38196.000000,20462.000000
35369.000000,12115.000000,38161.000000,20416.000000
35355.000000,12100.000000,38128.000000,20364.000000
35347.000000,12092.000000,38100.000000,20321.000000
35344.000000,12087.000000,38076.000000,20287.000000
35339.000000,12082.000000,38050.000000,20252.000000
35333.000000,12076.000000,38021.000000,20217.000000
35326.000000,12066.000000,37990.000000,20191.000000
35317.000000,12053.000000,37960.000000,20173.000000
35304.000000,12038.000000,37933.000000,20159.000000
35283.000000,12022.000000,37904.000000,20134.000000
35260.000000,12004.000000,37871.000000,20091.000000
35239.000000,11983.000000,37836.000000,20038.000000
35217.000000,11959.000000,37801.000000,19996.000000
35192.000000,11932.000000,37766.000000,19963.000000
35165.000000,11903.000000,37729.000000,19931.000000
35134.000000,11875.000000,37692.000000,19892.000000
35098.000000,11846.000000,37650.000000,19850.000000
35062.000000,11816.000000,37605.000000,19811.000000
35033.000000,11787.000000,37561.000000,19773.000000
35019.000000,11767.000000,37522.000000,19735.000000
35011.000000,11750.000000,37486.000000,19701.000000
35003.000000,11734.000000,37455.000000,19668.000000
34998.000000,11722.000000,37432.000000,19635.000000
34995.000000,11715.000000,37419.000000,19604.000000
34995.000000,11716.000000,37414.000000,19586.000000
35000.000000,11722.000000,37423.000000,19595.000000
35011.000000,11736.000000,37448.000000,19621.000000
35030.000000,11761.000000,37485.000000,19654.000000
35053.000000,11793.000000,37532.000000,19694.000000
35082.000000,11829.000000,37586.000000,19742.000000
35120.000000,11871.000000,37650.000000,19805.000000
35168.000000,11921.000000,37724.000000,19880.000000
35224.000000,11977.000000,37803.000000,19956.000000
35282.000000,12033.000000,37885.000000,20037.000000
35342.000000,12091.000000,37974.000000,20130.000000
35405.000000,12153.000000,38066.000000,20235.000000
35465.000000,12212.000000,38159.000000,20358.000000
35518.000000,12266.000000,38252.000000,20499.000000
35564.000000,12318.000000,38344.000000,20633.000000
35603.000000,12368.000000,38433.000000,20744.000000
35639.000000,12410.000000,38515.000000,20834.000000
35670.000000,12448.000000,38587.000000,20906.000000
35701.000000,12482.000000,38647.000000,20957.000000
35729.000000,12507.000000,38693.000000,20986.000000
35746.000000,12522.000000,38730.000000,21006.000000
35748.000000,12530.000000,38759.000000,21028.000000
35744.000000,12533.000000,38783.000000,21044.000000
35738.000000,12534.000000,38806.000000,21060.000000
35736.000000,12536.000000,38827.000000,21085.000000
35739.000000,12542.000000,38842.000000,21113.000000
35746.000000,12548.000000,38848.000000,21129.000000
35755.000000,12555.000000,38846.000000,21139.000000
35766.000000,12560.000000,38837.000000,21152.000000
35774.000000,12561.000000,38824.000000,21157.000000
35780.000000,12562.000000,38809.000000,21153.000000
35783.000000,12559.000000,38795.000000,21152.000000
35781.000000,12550.000000,38781.000000,21150.000000
35776.000000,12536.000000,38766.000000,21144.000000
35768.000000,12519.000000,38751.000000,21119.000000
35758.000000,12499.000000,38734.000000,21073.000000
35747.000000,12480.000000,38717.000000,21034.000000
35738.000000,12467.000000,38704.000000,21017.000000
35732.000000,12464.000000,38694.000000,21015.000000
35728.000000,12465.000000,38686.000000,21021.000000
35721.000000,12461.000000,38676.000000,21021.000000
35714.000000,12451.000000,38663.000000,21009.000000
35709.000000,12442.000000,38649.000000,20992.000000
35707.000000,12436.000000,38639.000000,20982.000000
35705.000000,12432.000000,38634.000000,20985.000000
35700.000000,12429.000000,38634.000000,20995.000000
35689.000000,12424.000000,38636.000000,20994.000000
35675.000000,12415.000000,38632.000000,20976.000000
35663.000000,12409.000000,38623.000000,20955.000000
35657.000000,12407.000000,38614.000000,20937.000000
35655.000000,12405.000000,38601.000000,20904.000000
35652.000000,12400.000000,38584.000000,20869.000000
35643.000000,12393.000000,38571.000000,20854.000000
35635.000000,12387.000000,38563.000000,20850.000000
35633.000000,12382.000000,38555.000000,20837.000000
35634.000000,12377.000000,38542.000000,20815.000000
35636.000000,12373.000000,38532.000000,20796.000000
35639.000000,12375.000000,38531.000000,20790.000000
35646.000000,12385.000000,38540.000000,20809.000000
35655.000000,12398.000000,38557.000000,20846.000000
35667.000000,12410.000000,38577.000000,20882.000000
35680.000000,12426.000000,38600.000000,20913.000000
35689.000000,12439.000000,38623.000000,20929.000000
35694.000000,12445.000000,38640.000000,20940.000000
35694.000000,12449.000000,38650.000000,20959.000000
35691.000000,12451.000000,38653.000000,20964.000000
35691.000000,12450.000000,38653.000000,20952.000000
35694.000000,12447.000000,38656.000000,20940.000000
35694.000000,12447.000000,38664.000000,20937.000000
35696.000000,12450.000000,38680.000000,20948.000000
35703.000000,12452.000000,38698.000000,20962.000000
35710.000000,12456.000000,38708.000000,20972.000000
35718.000000,12462.000000,38711.000000,20976.000000
35730.000000,12470.000000,38711.000000,20971.000000
35741.000000,12477.000000,38708.000000,20974.000000
35743.000000,12482.000000,38702.000000,20991.000000
35738.000000,12481.000000,38696.000000,21006.000000
35727.000000,12473.000000,38686.000000,21013.000000
35714.000000,12462.000000,38670.000000,21009.000000
35703.000000,12453.000000,38651.000000,20997.000000
35695.000000,12444.000000,38633.000000,20977.000000
35685.000000,12431.000000,38612.000000,20946.000000
35673.000000,12414.000000,38588.000000,20900.000000
35658.000000,12395.000000,38564.000000,20857.000000
35642.000000,12376.000000,38545.000000,20831.000000
35626.000000,12360.000000,38530.000000,20808.000000
35611.000000,12343.000000,38513.000000,20778.000000
35596.000000,12323.000000,38490.000000,20742.000000
35581.000000,12303.000000,38467.000000,20711.000000
35567.000000,12288.000000,38447.000000,20689.000000
35555.000000,12276.000000,38425.000000,20680.000000
35545.000000,12265.000000,38402.000000,20686.000000
35535.000000,12256.000000,38379.000000,20697.000000
35524.000000,12250.000000,38359.000000,20705.000000
35513.000000,12247.000000,38344.000000,20713.000000
35501.000000,12244.000000,38334.000000,20723.000000
35487.000000,12236.000000,38323.000000,20722.000000
35475.000000,12225.000000,38305.000000,20701.000000
35464.000000,12212.000000,38281.000000,20674.000000
35453.000000,12202.000000,38257.000000,20656.000000
35443.000000,12192.000000,38233.000000,20636.000000
35433.000000,12182.000000,38214.000000,20616.000000
35426.000000,12176.000000,38201.000000,20598.000000
35426.000000,12176.000000,38189.000000,20572.000000
35428.000000,12178.000000,38175.000000,20542.000000
35432.000000,12178.000000,38160.000000,20500.000000
35434.000000,12173.000000,38141.000000,20448.000000
35435.000000,12163.000000,38123.000000,20397.000000
35436.000000,12154.000000,38112.000000,20356.000000
35437.000000,12146.000000,38106.000000,20338.000000
35440.000000,12139.000000,38098.000000,20341.000000
35441.000000,12130.000000,38086.000000,20353.000000
35433.000000,12122.000000,38075.000000,20367.000000
35415.000000,12111.000000,38064.000000,20371.000000
35392.000000,12100.000000,38049.000000,20364.000000
35370.000000,12088.000000,38033.000000,20352.000000
35350.000000,12076.000000,38018.000000,20339.000000
35335.000000,12065.000000,38006.000000,20326.000000
35327.000000,12060.000000,37997.000000,20317.000000
35327.000000,12059.000000,37993.000000,20309.000000
35327.000000,12056.000000,37990.000000,20300.000000
35328.000000,12056.000000,37989.000000,20296.000000
35334.000000,12062.000000,37990.000000,20306.000000
35345.000000,12069.000000,37987.000000,20318.000000
35355.000000,12074.000000,37980.000000,20321.000000
35361.000000,12079.000000,37966.000000,20318.000000
35367.000000,12082.000000,37949.000000,20310.000000
35372.000000,12083.000000,37932.000000,20282.000000
35373.000000,12079.000000,37910.000000,20236.000000
35364.000000,12064.000000,37881.000000,20187.000000
35343.000000,12038.000000,37846.000000,20141.000000
35316.000000,12009.000000,37807.000000,20089.000000
35289.000000,11976.000000,37768.000000,20028.000000
35266.000000,11939.000000,37730.000000,19968.000000
35242.000000,11905.000000,37698.000000,19924.000000
35220.000000,11881.000000,37674.000000,19896.000000
35203.000000,11868.000000,37658.000000,19872.000000
35193.000000,11860.000000,37642.000000,19856.000000
35189.000000,11858.000000,37628.000000,19858.000000
35191.000000,11860.000000,37619.000000,19865.000000
35193.000000,11863.000000,37613.000000,19868.000000
35190.000000,11864.000000,37605.000000,19871.000000
35182.000000,11862.000000,37594.000000,19871.000000
35169.000000,11857.000000,37576.000000,19856.000000
35153.000000,11849.000000,37551.000000,19833.000000
35135.000000,11837.000000,37522.000000,19816.000000
35116.000000,11823.000000,37492.000000,19807.000000
35101.000000,11808.000000,37463.000000,19797.000000
35087.000000,11790.000000,37433.000000,19775.000000
35074.000000,11770.000000,37397.000000,19738.000000
35065.000000,11749.000000,37361.000000,19699.000000
35056.000000,11730.000000,37329.000000,19667.000000
35045.000000,11712.000000,37301.000000,19635.000000
35033.000000,11698.000000,37277.000000,19604.000000
35027.000000,11691.000000,37256.000000,19575.000000
35025.000000,11686.000000,37238.000000,19547.000000
35024.000000,11681.000000,37222.000000,19522.000000
35023.000000,11675.000000,37202.000000,19488.000000
35022.000000,11670.000000,37180.000000,19450.000000
35019.000000,11665.000000,37160.000000,19423.000000
35011.000000,11659.000000,37143.000000,19415.000000
35001.000000,11650.000000,37131.000000,19421.000000
34988.000000,11638.000000,37119.000000,19427.000000
34973.000000,11624.000000,37106.000000,19438.000000
34958.000000,11608.000000,37092.000000,19457.000000
34945.000000,11597.000000,37076.000000,19472.000000
34936.000000,11590.000000,37055.000000,19468.000000
34924.000000,11581.000000,37030.000000,19455.000000
34909.000000,11566.000000,37000.000000,19438.000000
34894.000000,11548.000000,36969.000000,19411.000000
34881.000000,11529.000000,36941.000000,19378.000000
34869.000000,11507.000000,36914.000000,19340.000000
34857.000000,11486.000000,36887.000000,19304.000000
34839.000000,11465.000000,36861.000000,19267.000000
34819.000000,11446.000000,36839.000000,19223.000000
34799.000000,11431.000000,36821.000000,19181.000000
34786.000000,11423.000000,36806.000000,19158.000000
34781.000000,11422.000000,36793.000000,19146.000000
34782.000000,11424.000000,36779.000000,19124.000000
34786.000000,11428.000000,36766.000000,19101.000000
34794.000000,11435.000000,36757.000000,19092.000000
34803.000000,11444.000000,36755.000000,19085.000000
34816.000000,11458.000000,36764.000000,19082.000000
34839.000000,11481.000000,36789.000000,19099.000000
34868.000000,11510.000000,36826.000000,19146.000000
34898.000000,11540.000000,36876.000000,19216.000000
34932.000000,11577.000000,36937.000000,19293.000000
34970.000000,11623.000000,37008.000000,19372.000000
35011.000000,11671.000000,37086.000000,19452.000000
35055.000000,11721.000000,37173.000000,19529.000000
35104.000000,11772.000000,37268.000000,19602.000000
35156.000000,11829.000000,37370.000000,19675.000000
35209.000000,11894.000000,37474.000000,19752.000000
35266.000000,11959.000000,37577.000000,19835.000000
35324.000000,12020.000000,37677.000000,19921.000000
35377.000000,12074.000000,37770.000000,20008.000000
35423.000000,12121.000000,37853.000000,20109.000000
35460.000000,12162.000000,37926.000000,20214.000000
35485.000000,12191.000000,37989.000000,20297.000000
35502.000000,12212.000000,38043.000000,20364.000000
35517.000000,12227.000000,38089.000000,20431.000000
35529.000000,12235.000000,38124.000000,20485.000000
35539.000000,12235.000000,38145.000000,20510.000000
35545.000000,12231.000000,38152.000000,20512.000000
35546.000000,12226.000000,38154.000000,20509.000000
35550.000000,12225.000000,38157.000000,20518.000000
35555.000000,12228.000000,38162.000000,20530.000000
35558.000000,12231.000000,38162.000000,20540.000000
35557.000000,12233.000000,38155.000000,20542.000000
35551.000000,12231.000000,38142.000000,20527.000000
35546.000000,12225.000000,38125.000000,20505.000000
35539.000000,12215.000000,38106.000000,20480.000000
35532.000000,12201.000000,38090.000000,20456.000000
35527.000000,12188.000000,38076.000000,20431.000000
35524.000000,12177.000000,38062.000000,20405.000000
35524.000000,12170.000000,38052.000000,20394.000000
35530.000000,12169.000000,38045.000000,20400.000000
35540.000000,12170.000000,38039.000000,20412.000000
35548.000000,12170.000000,38033.000000,20415.000000
35549.000000,12166.000000,38024.000000,20405.000000
35542.000000,12160.000000,38011.000000,20389.000000
35529.000000,12151.000000,37996.000000,20374.000000
35512.000000,12138.000000,37986.000000,20369.000000
35494.000000,12126.000000,37982.000000,20374.000000
35479.000000,12116.000000,37978.000000,20375.000000
35468.000000,12110.000000,37972.000000,20368.000000
35462.000000,12108.000000,37965.000000,20365.000000
35459.000000,12108.000000,37960.000000,20369.000000
35461.000000,12112.000000,37957.000000,20369.000000
35469.000000,12121.000000,37956.000000,20356.000000
35481.000000,12132.000000,37956.000000,20343.000000
35492.000000,12142.000000,37959.000000,20346.000000
35502.000000,12150.000000,37963.000000,20361.000000
35510.000000,12157.000000,37970.000000,20380.000000
35515.000000,12161.000000,37979.000000,20402.000000
35517.000000,12167.000000,37986.000000,20427.000000
35520.000000,12174.000000,37989.000000,20456.000000
35524.000000,12182.000000,37992.000000,20479.000000
35526.000000,12187.000000,37998.000000,20486.000000
35528.000000,12187.000000,38004.000000,20484.000000
35530.000000,12184.000000,38008.000000,20477.000000
35530.000000,12182.000000,38010.000000,20455.000000
35527.000000,12180.000000,38011.000000,20420.000000
35524.000000,12177.000000,38011.000000,20391.000000
35522.000000,12175.000000,38015.000000,20373.000000
35522.000000,12176.000000,38022.000000,20365.000000
35528.000000,12182.000000,38028.000000,20367.000000
35538.000000,12190.000000,38032.000000,20383.000000
35545.000000,12202.000000,38038.000000,20404.000000
35550.000000,12215.000000,38046.000000,20422.000000
35556.000000,12227.000000,38053.000000,20446.000000
35562.000000,12237.000000,38062.000000,20477.000000
35568.000000,12246.000000,38072.000000,20501.000000
35572.000000,12249.000000,38076.000000,20506.000000
35572.000000,12242.000000,38074.000000,20501.000000
35572.000000,12236.000000,38073.000000,20499.000000
35574.000000,12234.000000,38074.000000,20502.000000
35573.000000,12232.000000,38071.000000,20506.000000
35568.000000,12225.000000,38063.000000,20507.000000
35559.000000,12213.000000,38050.000000,20497.000000
35550.000000,12199.000000,38032.000000,20471.000000
35540.000000,12183.000000,38009.000000,20435.000000
35527.000000,12165.000000,37982.000000,20392.000000
35514.000000,12146.000000,37952.000000,20336.000000
35505.000000,12126.000000,37921.000000,20278.000000
35496.000000,12108.000000,37890.000000,20231.000000
35484.000000,12089.000000,37859.000000,20190.000000
35472.000000,12072.000000,37832.000000,20154.000000
35463.000000,12063.000000,37812.000000,20128.000000
35455.000000,12062.000000,37794.000000,20110.000000
35446.000000,12059.000000,37775.000000,20105.000000
35442.000000,12058.000000,37757.000000,20103.000000
35443.000000,12058.000000,37742.000000,20105.000000
35440.000000,12056.000000,37728.000000,20113.000000
35433.000000,12047.000000,37715.000000,20129.000000
35421.000000,12032.000000,37704.000000,20148.000000
35405.000000,12018.000000,37692.000000,20146.000000
35391.000000,12007.000000,37680.000000,20124.000000
35384.000000,11999.000000,37669.000000,20102.000000
35384.000000,11995.000000,37656.000000,20078.000000
35384.000000,11994.000000,37643.000000,20057.000000
35380.000000,11989.000000,37625.000000,20039.000000
35368.000000,11979.000000,37600.000000,20013.000000
35348.000000,11963.000000,37574.000000,19979.000000
35326.000000,11947.000000,37548.000000,19939.000000
35305.000000,11928.000000,37521.000000,19894.000000
35289.000000,11910.000000,37498.000000,19859.000000
35279.000000,11899.000000,37485.000000,19848.000000
35272.000000,11894.000000,37478.000000,19851.000000
35265.000000,11891.000000,37468.000000,19857.000000
35260.000000,11887.000000,37456.000000,19862.000000
35258.000000,11886.000000,37449.000000,19871.000000
35257.000000,11886.000000,37442.000000,19884.000000
35254.000000,11886.000000,37427.000000,19894.000000
35251.000000,11883.000000,37405.000000,19902.000000
35248.000000,11875.000000,37378.000000,19900.000000
35240.000000,11861.000000,37351.000000,19883.000000
35231.000000,11845.000000,37327.000000,19862.000000
35220.000000,11830.000000,37308.000000,19845.000000
35211.000000,11816.000000,37288.000000,19825.000000
35206.000000,11805.000000,37271.000000,19806.000000
35204.000000,11795.000000,37258.000000,19786.000000
35201.000000,11788.000000,37244.000000,19752.000000
35198.000000,11783.000000,37230.000000,19712.000000
35195.000000,11776.000000,37215.000000,19677.000000
35192.000000,11768.000000,37201.000000,19658.000000
35187.000000,11758.000000,37188.000000,19647.000000
35180.000000,11749.000000,37175.000000,19625.000000
35169.000000,11738.000000,37157.000000,19589.000000
35154.000000,11725.000000,37136.000000,19547.000000
35138.000000,11711.000000,37112.000000,19499.000000
35117.000000,11694.000000,37088.000000,19451.000000
35092.000000,11673.000000,37067.000000,19422.000000
35068.000000,11654.000000,37050.000000,19415.000000
35048.000000,11636.000000,37036.000000,19416.000000
35028.000000,11615.000000,37022.000000,19402.000000
35009.000000,11594.000000,37003.000000,19374.000000
34996.000000,11578.000000,36983.000000,19354.000000
34991.000000,11569.000000,36968.000000,19343.000000
34992.000000,11565.000000,36953.000000,19333.000000
34992.000000,11560.000000,36932.000000,19319.000000
34987.000000,11550.000000,36905.000000,19310.000000
34977.000000,11538.000000,36876.000000,19303.000000
34963.000000,11526.000000,36848.000000,19286.000000
34952.000000,11515.000000,36821.000000,19265.000000
34944.000000,11508.000000,36794.000000,19245.000000
34939.000000,11502.000000,36766.000000,19217.000000
34935.000000,11496.000000,36743.000000,19187.000000
34934.000000,11492.000000,36726.000000,19166.000000
34934.000000,11488.000000,36711.000000,19156.000000
34931.000000,11481.000000,36697.000000,19151.000000
34925.000000,11470.000000,36683.000000,19138.000000
34917.000000,11460.000000,36664.000000,19117.000000
34909.000000,11451.000000,36639.000000,19103.000000
34905.000000,11441.000000,36611.000000,19097.000000
34902.000000,11429.000000,36583.000000,19096.000000
34894.000000,11414.000000,36561.000000,19102.000000
34878.000000,11394.000000,36543.000000,19104.000000
34853.000000,11373.000000,36524.000000,19089.000000
34827.000000,11353.000000,36504.000000,19053.000000
34799.000000,11331.000000,36481.000000,19001.000000
34772.000000,11307.000000,36454.000000,18936.000000
34748.000000,11281.000000,36425.000000,18864.000000
34729.000000,11259.000000,36396.000000,18800.000000
34714.000000,11243.000000,36371.000000,18764.000000
34704.000000,11228.000000,36349.000000,18752.000000
34697.000000,11214.000000,36326.000000,18749.000000
34691.000000,11201.000000,36298.000000,18730.000000
34682.000000,11187.000000,36268.000000,18698.000000
34675.000000,11177.000000,36241.000000,18673.000000
34674.000000,11175.000000,36216.000000,18657.000000
34674.000000,11172.000000,36190.000000,18644.000000
34671.000000,11164.000000,36165.000000,18642.000000
34665.000000,11159.000000,36143.000000,18651.000000
34659.000000,11156.000000,36123.000000,18655.000000
34649.000000,11151.000000,36103.000000,18642.000000
34640.000000,11147.000000,36085.000000,18620.000000
34637.000000,11144.000000,36068.000000,18597.000000
34631.000000,11136.000000,36047.000000,18569.000000
34616.000000,11121.000000,36022.000000,18539.000000
34594.000000,11103.000000,35999.000000,18517.000000
34571.000000,11088.000000,35981.000000,18495.000000
34552.000000,11075.000000,35963.000000,18464.000000
34536.000000,11059.000000,35943.000000,18432.000000
34520.000000,11046.000000,35927.000000,18408.000000
34509.000000,11038.000000,35918.000000,18393.000000
34507.000000,11037.000000,35920.000000,18388.000000
34517.000000,11043.000000,35930.000000,18392.000000
34538.000000,11057.000000,35948.000000,18407.000000
34568.000000,11081.000000,35978.000000,18433.000000
34603.000000,11115.000000,36017.000000,18468.000000
34638.000000,11155.000000,36064.000000,18509.000000
34672.000000,11200.000000,36124.000000,18559.000000
34710.000000,11249.000000,36198.000000,18622.000000
34758.000000,11307.000000,36287.000000,18706.000000
34813.000000,11372.000000,36390.000000,18805.000000
34869.000000,11438.000000,36496.000000,18901.000000
34923.000000,11499.000000,36597.000000,18985.000000
34977.000000,11556.000000,36693.000000,19070.000000
35034.000000,11612.000000,36787.000000,19165.000000
35094.000000,11665.000000,36878.000000,19259.000000
35154.000000,11714.000000,36965.000000,19340.000000
35206.000000,11758.000000,37045.000000,19416.000000
35250.000000,11799.000000,37117.000000,19507.000000
35288.000000,11837.000000,37182.000000,19607.000000
35314.000000,11867.000000,37234.000000,19685.000000
35330.000000,11892.000000,37276.000000,19742.000000
35340.000000,11912.000000,37310.000000,19787.000000
35348.000000,11924.000000,37338.000000,19822.000000
35348.000000,11928.000000,37357.000000,19843.000000
35342.000000,11925.000000,37366.000000,19849.000000
35335.000000,11917.000000,37368.000000,19852.000000
35331.000000,11908.000000,37368.000000,19861.000000
35331.000000,11900.000000,37366.000000,19870.000000
35334.000000,11891.000000,37360.000000,19870.000000
35336.000000,11882.000000,37352.000000,19868.000000
35336.000000,11879.000000,37346.000000,19867.000000
35336.000000,11877.000000,37339.000000,19855.000000
35338.000000,11872.000000,37333.000000,19847.000000
35341.000000,11866.000000,37326.000000,19851.000000
35342.000000,11860.000000,37315.000000,19847.000000
35344.000000,11857.000000,37301.000000,19829.000000
35345.000000,11854.000000,37288.000000,19810.000000
35343.000000,11847.000000,37275.000000,19796.000000
35340.000000,11842.000000,37268.000000,19793.000000
35336.000000,11842.000000,37271.000000,19795.000000
35329.000000,11845.000000,37279.000000,19798.000000
35323.000000,11850.000000,37288.000000,19800.000000
35327.000000,11859.000000,37305.000000,19805.000000
35333.000000,11873.000000,37326.000000,19817.000000
35336.000000,11883.000000,37341.000000,19820.000000
35339.000000,11888.000000,37348.000000,19807.000000
35344.000000,11891.000000,37352.000000,19791.000000
35351.000000,11891.000000,37355.000000,19781.000000
35358.000000,11885.000000,37353.000000,19773.000000
35361.000000,11880.000000,37346.000000,19767.000000
35362.000000,11876.000000,37335.000000,19755.000000
35358.000000,11866.000000,37320.000000,19730.000000
35352.000000,11855.000000,37305.000000,19702.000000
35344.000000,11844.000000,37291.000000,19685.000000
35336.000000,11835.000000,37282.000000,19689.000000
35328.000000,11829.000000,37283.000000,19712.000000
35326.000000,11830.000000,37294.000000,19742.000000
35331.000000,11838.000000,37306.000000,19760.000000
35338.000000,11846.000000,37314.000000,19757.000000
35344.000000,11847.000000,37319.000000,19734.000000
35346.000000,11849.000000,37324.000000,19719.000000
35346.000000,11856.000000,37328.000000,19723.000000
35350.000000,11868.000000,37332.000000,19728.000000
35358.000000,11879.000000,37338.000000,19725.000000
35363.000000,11886.000000,37343.000000,19725.000000
35366.000000,11888.000000,37345.000000,19737.000000
35370.000000,11892.000000,37347.000000,19770.000000
35377.000000,11896.000000,37353.000000,19812.000000
35379.000000,11896.000000,37358.000000,19847.000000
35375.000000,11892.000000,37364.000000,19878.000000
35373.000000,11888.000000,37372.000000,19903.000000
35374.000000,11885.000000,37381.000000,19916.000000
35380.000000,11886.000000,37392.000000,19928.000000
35390.000000,11890.000000,37401.000000,19939.000000
35397.000000,11897.000000,37402.000000,19930.000000
35399.000000,11900.000000,37394.000000,19901.000000
35401.000000,11898.000000,37382.000000,19870.000000
35406.000000,11895.000000,37375.000000,19846.000000
35410.000000,11893.000000,37368.000000,19820.000000
35411.000000,11891.000000,37355.000000,19796.000000
35410.000000,11885.000000,37341.000000,19790.000000
35408.000000,11877.000000,37330.000000,19788.000000
35400.000000,11867.000000,37320.000000,19775.000000
35388.000000,11855.000000,37308.000000,19765.000000
35375.000000,11842.000000,37295.000000,19758.000000
35360.000000,11830.000000,37278.000000,19743.000000
35341.000000,11817.000000,37255.000000,19719.000000
35325.000000,11802.000000,37229.000000,19701.000000
35310.000000,11786.000000,37201.000000,19683.000000
35295.000000,11770.000000,37172.000000,19657.000000
35285.000000,11756.000000,37150.000000,19635.000000
35280.000000,11745.000000,37135.000000,19629.000000
35275.000000,11738.000000,37125.000000,19628.000000
35268.000000,11731.000000,37116.000000,19613.000000
35258.000000,11724.000000,37104.000000,19580.000000
35246.000000,11719.000000,37090.000000,19555.000000
35235.000000,11716.000000,37076.000000,19550.000000
35221.000000,11710.000000,37057.000000,19543.000000
35205.000000,11701.000000,37032.000000,19522.000000
35189.000000,11691.000000,37006.000000,19508.000000
35171.000000,11683.000000,36984.000000,19509.000000
35152.000000,11674.000000,36966.000000,19514.000000
35136.000000,11659.000000,36953.000000,19517.000000
35125.000000,11643.000000,36941.000000,19506.000000
35119.000000,11630.000000,36930.000000,19485.000000
35113.000000,11617.000000,36919.000000,19459.000000
35104.000000,11603.000000,36906.000000,19421.000000
35093.000000,11591.000000,36890.000000,19377.000000
35085.000000,11580.000000,36875.000000,19336.000000
35079.000000,11569.000000,36861.000000,19295.000000
35072.000000,11558.000000,36846.000000,19257.000000
35065.000000,11549.000000,36830.000000,19222.000000
35059.000000,11540.000000,36814.000000,19193.000000
35057.000000,11531.000000,36798.000000,19164.000000
35055.000000,11524.000000,36779.000000,19137.000000
35053.000000,11516.000000,36757.000000,19120.000000
35050.000000,11507.000000,36738.000000,19124.000000
35043.000000,11500.000000,36720.000000,19132.000000
35037.000000,11495.000000,36702.000000,19124.000000
35036.000000,11491.000000,36684.000000,19104.000000
35037.000000,11488.000000,36668.000000,19091.000000
35043.000000,11491.000000,36658.000000,19088.000000
35053.000000,11493.000000,36650.000000,19087.000000
35054.000000,11487.000000,36640.000000,19080.000000
35046.000000,11478.000000,36626.000000,19069.000000
35037.000000,11470.000000,36610.000000,19055.000000
35030.000000,11459.000000,36593.000000,19042.000000
35024.000000,11446.000000,36577.000000,19041.000000
35017.000000,11432.000000,36559.000000,19045.000000
35004.000000,11416.000000,36537.000000,19046.000000
34989.000000,11404.000000,36517.000000,19060.000000
34976.000000,11396.000000,36496.000000,19079.000000
34966.000000,11390.000000,36476.000000,19079.000000
34957.000000,11383.000000,36456.000000,19058.000000
34949.000000,11376.000000,36435.000000,19024.000000
34943.000000,11368.000000,36413.000000,18983.000000
34937.000000,11360.000000,36390.000000,18940.000000
34930.000000,11349.000000,36366.000000,18892.000000
34922.000000,11338.000000,36344.000000,18844.000000
34913.000000,11329.000000,36325.000000,18807.000000
34903.000000,11319.000000,36311.000000,18771.000000
34893.000000,11309.000000,36299.000000,18739.000000
34886.000000,11302.000000,36290.000000,18736.000000
34880.000000,11293.000000,36281.000000,18759.000000
34874.000000,11285.000000,36269.000000,18776.000000
34869.000000,11279.000000,36252.000000,18786.000000
34865.000000,11270.000000,36230.000000,18800.000000
34861.000000,11262.000000,36209.000000,18811.000000
34858.000000,11257.000000,36196.000000,18808.000000
34855.000000,11252.000000,36186.000000,18792.000000
34847.000000,11245.000000,36174.000000,18771.000000
34838.000000,11238.000000,36159.000000,18747.000000
34829.000000,11230.000000,36145.000000,18722.000000
34816.000000,11222.000000,36131.000000,18699.000000
34801.000000,11211.000000,36112.000000,18677.000000
34788.000000,11200.000000,36091.000000,18659.000000
34777.000000,11192.000000,36071.000000,18651.000000
34766.000000,11180.000000,36049.000000,18643.000000
34753.000000,11163.000000,36025.000000,18628.000000
34739.000000,11150.000000,36003.000000,18613.000000
34726.000000,11138.000000,35984.000000,18591.000000
34713.000000,11124.000000,35965.000000,18543.000000
34700.000000,11108.000000,35943.000000,18481.000000
34687.000000,11094.000000,35920.000000,18424.000000
34678.000000,11078.000000,35895.000000,18370.000000
34669.000000,11064.000000,35868.000000,18327.000000
34662.000000,11055.000000,35843.000000,18310.000000
34657.000000,11050.000000,35821.000000,18313.000000
34648.000000,11044.000000,35799.000000,18317.000000
34635.000000,11034.000000,35773.000000,18305.000000
34616.000000,11017.000000,35744.000000,18276.000000
34594.000000,10998.000000,35718.000000,18236.000000
34574.000000,10979.000000,35692.000000,18193.000000
34557.000000,10965.000000,35665.000000,18168.000000
34541.000000,10953.000000,35642.000000,18164.000000
34522.000000,10940.000000,35620.000000,18156.000000
34505.000000,10925.000000,35596.000000,18127.000000
34491.000000,10910.000000,35574.000000,18097.000000
34478.000000,10900.000000,35555.000000,18084.000000
34465.000000,10889.000000,35539.000000,18077.000000
34454.000000,10876.000000,35519.000000,18053.000000
34442.000000,10862.000000,35494.000000,18011.000000
34430.000000,10845.000000,35466.000000,17970.000000
34415.000000,10827.000000,35439.000000,17930.000000
34400.000000,10812.000000,35411.000000,17892.000000
34384.000000,10798.000000,35388.000000,17874.000000
34369.000000,10787.000000,35369.000000,17879.000000
34355.000000,10777.000000,35349.000000,17887.000000
34342.000000,10767.000000,35328.000000,17888.000000
34328.000000,10755.000000,35303.000000,17894.000000
34312.000000,10741.000000,35276.000000,17897.000000
34295.000000,10722.000000,35251.000000,17880.000000
34277.000000,10703.000000,35229.000000,17861.000000
34263.000000,10687.000000,35209.000000,17848.000000
34254.000000,10674.000000,35188.000000,17828.000000
34248.000000,10664.000000,35171.000000,17799.000000
34250.000000,10662.000000,35165.000000,17779.000000
34257.000000,10664.000000,35166.000000,17777.000000
34271.000000,10671.000000,35169.000000,17786.000000
34290.000000,10685.000000,35180.000000,17799.000000
34314.000000,10706.000000,35201.000000,17823.000000
34344.000000,10734.000000,35236.000000,17859.000000
34380.000000,10768.000000,35282.000000,17900.000000
34418.000000,10807.000000,35335.000000,17941.000000
34459.000000,10846.000000,35395.000000,17985.000000
34503.000000,10890.000000,35464.000000,18038.000000
34551.000000,10940.000000,35543.000000,18096.000000
34601.000000,10993.000000,35629.000000,18157.000000
34647.000000,11044.000000,35716.000000,18218.000000
34688.000000,11092.000000,35802.000000,18284.000000
34730.000000,11140.000000,35885.000000,18356.000000
34774.000000,11184.000000,35962.000000,18427.000000
34815.000000,11225.000000,36034.000000,18504.000000
34854.000000,11263.000000,36101.000000,18578.000000
34893.000000,11297.000000,36163.000000,18637.000000
34930.000000,11326.000000,36216.000000,18685.000000
34963.000000,11355.000000,36263.000000,18729.000000
34995.000000,11384.000000,36309.000000,18772.000000
35022.000000,11411.000000,36354.000000,18810.000000
35046.000000,11438.000000,36394.000000,18853.000000
35063.000000,11458.000000,36425.000000,18906.000000
35069.000000,11467.000000,36443.000000,18958.000000
35067.000000,11470.000000,36452.000000,18999.000000
35060.000000,11468.000000,36453.000000,19024.000000
35048.000000,11456.000000,36447.000000,19045.000000
35035.000000,11442.000000,36437.000000,19067.000000
35025.000000,11431.000000,36426.000000,19079.000000
35017.000000,11418.000000,36413.000000,19068.000000
35006.000000,11397.000000,36396.000000,19038.000000
34994.000000,11376.000000,36378.000000,18999.000000
34983.000000,11358.000000,36360.000000,18954.000000
34973.000000,11342.000000,36344.000000,18906.000000
34967.000000,11329.000000,36333.000000,18862.000000
34966.000000,11323.000000,36326.000000,18829.000000
34964.000000,11321.000000,36320.000000,18811.000000
34956.000000,11319.000000,36310.000000,18792.000000
34949.000000,11318.000000,36299.000000,18780.000000
34945.000000,11320.000000,36292.000000,18792.000000
34940.000000,11322.000000,36285.000000,18808.000000
34935.000000,11320.000000,36275.000000,18820.000000
34934.000000,11321.000000,36269.000000,18847.000000
34932.000000,11324.000000,36269.000000,18887.000000
34928.000000,11328.000000,36272.000000,18923.000000
34922.000000,11326.000000,36278.000000,18939.000000
34915.000000,11321.000000,36286.000000,18931.000000
34911.000000,11317.000000,36291.000000,18911.000000
34911.000000,11316.000000,36295.000000,18889.000000
34912.000000,11315.000000,36297.000000,18871.000000
34917.000000,11317.000000,36300.000000,18866.000000
34925.000000,11322.000000,36302.000000,18865.000000
34933.000000,11324.000000,36302.000000,18863.000000
34937.000000,11321.000000,36301.000000,18864.000000
34939.000000,11314.000000,36300.000000,18868.000000
34937.000000,11309.000000,36297.000000,18872.000000
34934.000000,11304.000000,36293.000000,18863.000000
34929.000000,11299.000000,36286.000000,18845.000000
34924.000000,11293.000000,36278.000000,18831.000000
34920.000000,11288.000000,36272.000000,18818.000000
34918.000000,11285.000000,36267.000000,18801.000000
34918.000000,11281.000000,36261.000000,18780.000000
34919.000000,11278.000000,36255.000000,18755.000000
34923.000000,11278.000000,36253.000000,18740.000000
34929.000000,11283.000000,36257.000000,18748.000000
34936.000000,11288.000000,36265.000000,18771.000000
34942.000000,11293.000000,36277.000000,18790.000000
34949.000000,11299.000000,36292.000000,18802.000000
34960.000000,11308.000000,36308.000000,18828.000000
34973.000000,11318.000000,36327.000000,18871.000000
34986.000000,11331.000000,36344.000000,18901.000000
34999.000000,11344.000000,36355.000000,18909.000000
35012.000000,11354.000000,36359.000000,18912.000000
35024.000000,11364.000000,36360.000000,18921.000000
35034.000000,11374.000000,36360.000000,18934.000000
35040.000000,11381.000000,36357.000000,18948.000000
35041.000000,11383.000000,36349.000000,18953.000000
35035.000000,11380.000000,36337.000000,18946.000000
35027.000000,11371.000000,36321.000000,18923.000000
35017.000000,11355.000000,36301.000000,18885.000000
35001.000000,11335.000000,36279.000000,18855.000000
34980.000000,11318.000000,36257.000000,18845.000000
34957.000000,11302.000000,36240.000000,18843.000000
34934.000000,11288.000000,36228.000000,18841.000000
34915.000000,11278.000000,36218.000000,18838.000000
34905.000000,11269.000000,36205.000000,18838.000000
34902.000000,11264.000000,36189.000000,18838.000000
34902.000000,11265.000000,36172.000000,18833.000000
34901.000000,11265.000000,36155.000000,18824.000000
34895.000000,11258.000000,36133.000000,18804.000000
34886.000000,11241.000000,36104.000000,18760.000000
34876.000000,11218.000000,36070.000000,18697.000000
34859.000000,11195.000000,36036.000000,18629.000000
34840.000000,11174.000000,36005.000000,18567.000000
34824.000000,11154.000000,35981.000000,18523.000000
34814.000000,11140.000000,35964.000000,18496.000000
34812.000000,11133.000000,35950.000000,18479.000000
34816.000000,11134.000000,35941.000000,18477.000000
34819.000000,11136.000000,35934.000000,18481.000000
34820.000000,11137.000000,35929.000000,18496.000000
34819.000000,11133.000000,35922.000000,18527.000000
34816.000000,11126.000000,35916.000000,18552.000000
34814.000000,11122.000000,35909.000000,18567.000000
34813.000000,11118.000000,35899.000000,18578.000000
34806.000000,11113.000000,35885.000000,18581.000000
34796.000000,11110.000000,35869.000000,18567.000000
34784.000000,11104.000000,35854.000000,18541.000000
34768.000000,11092.000000,35838.000000,18511.000000
34753.000000,11080.000000,35822.000000,18488.000000
34741.000000,11070.000000,35807.000000,18472.000000
34730.000000,11060.000000,35793.000000,18449.000000
34720.000000,11053.000000,35782.000000,18426.000000
34712.000000,11049.000000,35774.000000,18413.000000
34708.000000,11045.000000,35769.000000,18405.000000
34700.000000,11038.000000,35764.000000,18391.000000
34689.000000,11028.000000,35751.000000,18361.000000
34680.000000,11016.000000,35733.000000,18320.000000
34674.000000,11005.000000,35710.000000,18279.000000
34668.000000,10994.000000,35684.000000,18232.000000
34666.000000,10984.000000,35660.000000,18194.000000
34666.000000,10976.000000,35641.000000,18185.000000
34667.000000,10970.000000,35627.000000,18189.000000
34669.000000,10966.000000,35618.000000,18188.000000
34667.000000,10959.000000,35610.000000,18180.000000
34660.000000,10953.000000,35602.000000,18172.000000
34657.000000,10951.000000,35597.000000,18169.000000
34657.000000,10950.000000,35592.000000,18160.000000
34649.000000,10947.000000,35580.000000,18143.000000
34636.000000,10942.000000,35563.000000,18127.000000
34623.000000,10937.000000,35547.000000,18114.000000
34609.000000,10929.000000,35531.000000,18095.000000
34592.000000,10917.000000,35511.000000,18072.000000
34577.000000,10903.000000,35492.000000,18060.000000
34567.000000,10892.000000,35477.000000,18062.000000
34561.000000,10885.000000,35464.000000,18063.000000
34559.000000,10877.000000,35450.000000,18051.000000
34556.000000,10868.000000,35438.000000,18026.000000
34550.000000,10860.000000,35427.000000,17993.000000
34540.000000,10852.000000,35415.000000,17960.000000
34529.000000,10842.000000,35399.000000,17929.000000
34519.000000,10836.000000,35382.000000,17897.000000
34511.000000,10832.000000,35366.000000,17871.000000
34501.000000,10828.000000,35356.000000,17861.000000
34490.000000,10824.000000,35347.000000,17874.000000
34477.000000,10820.000000,35333.000000,17889.000000
34466.000000,10813.000000,35316.000000,17886.000000
34453.000000,10803.000000,35291.000000,17867.000000
34436.000000,10788.000000,35263.000000,17838.000000
34417.000000,10771.000000,35237.000000,17813.000000
34400.000000,10755.000000,35214.000000,17794.000000
34384.000000,10741.000000,35193.000000,17774.000000
34373.000000,10730.000000,35176.000000,17761.000000
34365.000000,10723.000000,35160.000000,17750.000000
34357.000000,10713.000000,35141.000000,17727.000000
34347.000000,10697.000000,35119.000000,17694.000000
34334.000000,10676.000000,35093.000000,17659.000000
34321.000000,10652.000000,35066.000000,17627.000000
34310.000000,10631.000000,35038.000000,17596.000000
34297.000000,10613.000000,35005.000000,17562.000000
34286.000000,10598.000000,34974.000000,17544.000000
34278.000000,10587.000000,34949.000000,17540.000000
34272.000000,10575.000000,34928.000000,17533.000000
34268.000000,10564.000000,34909.000000,17533.000000
34263.000000,10554.000000,34891.000000,17545.000000
34254.000000,10543.000000,34874.000000,17555.000000
34237.000000,10528.000000,34854.000000,17540.000000
34217.000000,10512.000000,34831.000000,17500.000000
34203.000000,10500.000000,34808.000000,17454.000000
34197.000000,10490.000000,34785.000000,17405.000000
34197.000000,10483.000000,34763.000000,17353.000000
34200.000000,10477.000000,34742.000000,17319.000000
34206.000000,10474.000000,34724.000000,17314.000000
34208.000000,10469.000000,34707.000000,17321.000000
34200.000000,10459.000000,34687.000000,17314.000000
34185.000000,10444.000000,34665.000000,17302.000000
34170.000000,10428.000000,34646.000000,17306.000000
34157.000000,10416.000000,34630.000000,17316.000000
34145.000000,10406.000000,34611.000000,17315.000000
34134.000000,10395.000000,34593.000000,17312.000000
34123.000000,10382.000000,34577.000000,17294.000000
34111.000000,10369.000000,34562.000000,17261.000000
34098.000000,10357.000000,34544.000000,17228.000000
34082.000000,10339.000000,34520.000000,17188.000000
34063.000000,10317.000000,34492.000000,17134.000000
34045.000000,10296.000000,34464.000000,17074.000000
34027.000000,10279.000000,34440.000000,17028.000000
34008.000000,10265.000000,34420.000000,16999.000000
33988.000000,10253.000000,34402.000000,16966.000000
33973.000000,10241.000000,34382.000000,16920.000000
33959.000000,10230.000000,34362.000000,16881.000000
33948.000000,10224.000000,34345.000000,16861.000000
33940.000000,10218.000000,34326.000000,16846.000000
33935.000000,10209.000000,34304.000000,16822.000000
33933.000000,10202.000000,34282.000000,16797.000000
33936.000000,10201.000000,34267.000000,16788.000000
33942.000000,10205.000000,34261.000000,16803.000000
33948.000000,10211.000000,34262.000000,16832.000000
33949.000000,10218.000000,34271.000000,16870.000000
33953.000000,10227.000000,34287.000000,16916.000000
33964.000000,10241.000000,34315.000000,16957.000000
33983.000000,10261.000000,34354.000000,16985.000000
34009.000000,10290.000000,34402.000000,17019.000000
34044.000000,10333.000000,34459.000000,17089.000000
34090.000000,10391.000000,34530.000000,17186.000000
34143.000000,10455.000000,34614.000000,17276.000000
34195.000000,10516.000000,34702.000000,17352.000000
34248.000000,10576.000000,34792.000000,17428.000000
34307.000000,10637.000000,34885.000000,17502.000000
34362.000000,10696.000000,34978.000000,17570.000000
34405.000000,10748.000000,35064.000000,17635.000000
34441.000000,10791.000000,35138.000000,17697.000000
34473.000000,10824.000000,35203.000000,17754.000000
34505.000000,10853.000000,35262.000000,17799.000000
34535.000000,10879.000000,35313.000000,17833.000000
34564.000000,10898.000000,35353.000000,17867.000000
34590.000000,10914.000000,35386.000000,17914.000000
34611.000000,10928.000000,35412.000000,17966.000000
34623.000000,10936.000000,35430.000000,18019.000000
34626.000000,10937.000000,35443.000000,18072.000000
34623.000000,10935.000000,35449.000000,18122.000000
34614.000000,10930.000000,35445.000000,18157.000000
34600.000000,10921.000000,35431.000000,18176.000000
34588.000000,10907.000000,35417.000000,18184.000000
34580.000000,10894.000000,35403.000000,18170.000000
34573.000000,10882.000000,35386.000000,18129.000000
34568.000000,10869.000000,35373.000000,18085.000000
34567.000000,10859.000000,35366.000000,18051.000000
34566.000000,10849.000000,35358.000000,18010.000000
34567.000000,10839.000000,35346.000000,17970.000000
34571.000000,10832.000000,35334.000000,17947.000000
34577.000000,10827.000000,35323.000000,17932.000000
34582.000000,10823.000000,35313.000000,17913.000000
34583.000000,10817.000000,35303.000000,17896.000000
34582.000000,10811.000000,35294.000000,17899.000000
34578.000000,10805.000000,35284.000000,17905.000000
34572.000000,10797.000000,35269.000000,17896.000000
34569.000000,10790.000000,35252.000000,17886.000000
34566.000000,10786.000000,35238.000000,17890.000000
34558.000000,10783.000000,35226.000000,17893.000000
34549.000000,10778.000000,35217.000000,17887.000000
34539.000000,10773.000000,35213.000000,17887.000000
34525.000000,10767.000000,35211.000000,17888.000000
34510.000000,10760.000000,35208.000000,17871.000000
34498.000000,10753.000000,35208.000000,17846.000000
34494.000000,10751.000000,35209.000000,17832.000000
34501.000000,10755.000000,35216.000000,17835.000000
34513.000000,10765.000000,35226.000000,17855.000000
34524.000000,10781.000000,35240.000000,17885.000000
34537.000000,10797.000000,35254.000000,17908.000000
34552.000000,10809.000000,35261.000000,17913.000000
34561.000000,10816.000000,35261.000000,17912.000000
34559.000000,10821.000000,35257.000000,17912.000000
34552.000000,10823.000000,35256.000000,17912.000000
34545.000000,10822.000000,35256.000000,17917.000000
34542.000000,10821.000000,35258.000000,17925.000000
34544.000000,10824.000000,35259.000000,17929.000000
34550.000000,10829.000000,35262.000000,17935.000000
34558.000000,10834.000000,35271.000000,17944.000000
34569.000000,10839.000000,35286.000000,17962.000000
34582.000000,10845.000000,35305.000000,17986.000000
34594.000000,10850.000000,35323.000000,18003.000000
34603.000000,10855.000000,35338.000000,18008.000000
34614.000000,10866.000000,35351.000000,18007.000000
34626.000000,10881.000000,35362.000000,18005.000000
34638.000000,10894.000000,35371.000000,18007.000000
34647.000000,10904.000000,35379.000000,18010.000000
34654.000000,10912.000000,35383.000000,18019.000000
34656.000000,10914.000000,35384.000000,18041.000000
34656.000000,10910.000000,35381.000000,18065.000000
34655.000000,10903.000000,35376.000000,18073.000000
34653.000000,10896.000000,35369.000000,18075.000000
34649.000000,10890.000000,35363.000000,18082.000000
34645.000000,10887.000000,35356.000000,18093.000000
34639.000000,10885.000000,35352.000000,18097.000000
34627.000000,10878.000000,35349.000000,18096.000000
34607.000000,10865.000000,35342.000000,18092.000000
34584.000000,10851.000000,35332.000000,18091.000000
34567.000000,10838.000000,35322.000000,18096.000000
34555.000000,10826.000000,35310.000000,18093.000000
34545.000000,10809.000000,35293.000000,18069.000000
34539.000000,10792.000000,35278.000000,18033.000000
34536.000000,10780.000000,35265.000000,17989.000000
34528.000000,10769.000000,35248.000000,17938.000000
34515.000000,10757.000000,35225.000000,17899.000000
34497.000000,10743.000000,35202.000000,17876.000000
34478.000000,10729.000000,35179.000000,17847.000000
34463.000000,10715.000000,35153.000000,17801.000000
34453.000000,10702.000000,35127.000000,17747.000000
34446.000000,10688.000000,35101.000000,17700.000000
34440.000000,10675.000000,35077.000000,17670.000000
34433.000000,10667.000000,35056.000000,17666.000000
34430.000000,10665.000000,35038.000000,17683.000000
34435.000000,10670.000000,35028.000000,17711.000000
34444.000000,10678.000000,35023.000000,17731.000000
34451.000000,10683.000000,35018.000000,17731.000000
34457.000000,10685.000000,35012.000000,17728.000000
34466.000000,10686.000000,35008.000000,17719.000000
34470.000000,10683.000000,35001.000000,17697.000000
34468.000000,10675.000000,34991.000000,17670.000000
34468.000000,10669.000000,34981.000000,17643.000000
34470.000000,10667.000000,34972.000000,17616.000000
34468.000000,10665.000000,34960.000000,17591.000000
34460.000000,10660.000000,34942.000000,17573.000000
34452.000000,10652.000000,34921.000000,17569.000000
34446.000000,10642.000000,34903.000000,17575.000000
34439.000000,10633.000000,34890.000000,17579.000000
34429.000000,10624.000000,34877.000000,17576.000000
34416.000000,10614.000000,34865.000000,17564.000000
34406.000000,10607.000000,34856.000000,17550.000000
34399.000000,10600.000000,34851.000000,17533.000000
34390.000000,10589.000000,34846.000000,17506.000000
34377.000000,10575.000000,34839.000000,17474.000000
34366.000000,10564.000000,34831.000000,17461.000000
34362.000000,10556.000000,34822.000000,17463.000000
34361.000000,10551.000000,34812.000000,17461.000000
34363.000000,10549.000000,34804.000000,17460.000000
34365.000000,10550.000000,34798.000000,17471.000000
34367.000000,10555.000000,34791.000000,17485.000000
34368.000000,10563.000000,34785.000000,17499.000000
34368.000000,10567.000000,34781.000000,17515.000000
34365.000000,10569.000000,34780.000000,17525.000000
34356.000000,10565.000000,34773.000000,17521.000000
34342.000000,10556.000000,34758.000000,17514.000000
34329.000000,10545.000000,34743.000000,17520.000000
34322.000000,10537.000000,34729.000000,17528.000000
34320.000000,10533.000000,34712.000000,17514.000000
34319.000000,10530.000000,34694.000000,17497.000000
34318.000000,10528.000000,34682.000000,17492.000000
34318.000000,10530.000000,34675.000000,17486.000000
34316.000000,10531.000000,34668.000000,17465.000000
34309.000000,10524.000000,34655.000000,17423.000000
34299.000000,10508.000000,34638.000000,17371.000000
34289.000000,10489.000000,34621.000000,17334.000000
34278.000000,10469.000000,34607.000000,17318.000000
34266.000000,10451.000000,34593.000000,17315.000000
34257.000000,10440.000000,34584.000000,17309.000000
34251.000000,10438.000000,34576.000000,17301.000000
34247.000000,10436.000000,34563.000000,17288.000000
34243.000000,10428.000000,34543.000000,17257.000000
34238.000000,10416.000000,34521.000000,17212.000000
34229.000000,10407.000000,34500.000000,17175.000000
34221.000000,10404.000000,34479.000000,17155.000000
34218.000000,10407.000000,34458.000000,17155.000000
34218.000000,10410.000000,34441.000000,17173.000000
34213.000000,10410.000000,34422.000000,17188.000000
34203.000000,10403.000000,34400.000000,17189.000000
34191.000000,10393.000000,34383.000000,17198.000000
34182.000000,10383.000000,34377.000000,17213.000000
34174.000000,10373.000000,34373.000000,17213.000000
34163.000000,10361.000000,34368.000000,17200.000000
34151.000000,10350.000000,34365.000000,17196.000000
34141.000000,10341.000000,34358.000000,17187.000000
34133.000000,10333.000000,34345.000000,17149.000000
34126.000000,10322.000000,34327.000000,17096.000000
34119.000000,10314.000000,34309.000000,17059.000000
34116.000000,10312.000000,34294.000000,17044.000000
34119.000000,10311.000000,34281.000000,17028.000000
34122.000000,10310.000000,34269.000000,17007.000000
34122.000000,10308.000000,34255.000000,16999.000000
34119.000000,10302.000000,34240.000000,16990.000000
34112.000000,10291.000000,34220.000000,16968.000000
34095.000000,10275.000000,34196.000000,16953.000000
34073.000000,10258.000000,34164.000000,16955.000000
34053.000000,10240.000000,34130.000000,16955.000000
34033.000000,10221.000000,34099.000000,16938.000000
34014.000000,10206.000000,34073.000000,16909.000000
34000.000000,10196.000000,34050.000000,16874.000000
33992.000000,10187.000000,34030.000000,16837.000000
33985.000000,10179.000000,34013.000000,16793.000000
33975.000000,10171.000000,33996.000000,16751.000000
33963.000000,10163.000000,33979.000000,16709.000000
33953.000000,10154.000000,33962.000000,16665.000000
33945.000000,10145.000000,33946.000000,16634.000000
33940.000000,10139.000000,33935.000000,16629.000000
33936.000000,10131.000000,33925.000000,16632.000000
33930.000000,10118.000000,33913.000000,16619.000000
33922.000000,10101.000000,33898.000000,16592.000000
33916.000000,10087.000000,33884.000000,16573.000000
33906.000000,10075.000000,33871.000000,16565.000000
33897.000000,10067.000000,33857.000000,16558.000000
33893.000000,10063.000000,33843.000000,16554.000000
33890.000000,10062.000000,33830.000000,16560.000000
33886.000000,10063.000000,33819.000000,16569.000000
33879.000000,10063.000000,33810.000000,16570.000000
33873.000000,10058.000000,33807.000000,16567.000000
33873.000000,10058.000000,33810.000000,16575.000000
33883.000000,10066.000000,33819.000000,16584.000000
33901.000000,10081.000000,33831.000000,16582.000000
33929.000000,10098.000000,33850.000000,16573.000000
33962.000000,10123.000000,33882.000000,16581.000000
33998.000000,10157.000000,33930.000000,16615.000000
34036.000000,10199.000000,33991.000000,16656.000000
34080.000000,10246.000000,34060.000000,16699.000000
34128.000000,10301.000000,34134.000000,16747.000000
34174.000000,10358.000000,34215.000000,16801.000000
34220.000000,10412.000000,34300.000000,16862.000000
34272.000000,10467.000000,34389.000000,16938.000000
34329.000000,10525.000000,34481.000000,17037.000000
34379.000000,10581.000000,34572.000000,17145.000000
34422.000000,10633.000000,34659.000000,17250.000000
34460.000000,10678.000000,34744.000000,17356.000000
34495.000000,10719.000000,34822.000000,17461.000000
34525.000000,10756.000000,34889.000000,17560.000000
34553.000000,10787.000000,34945.000000,17642.000000
34583.000000,10814.000000,34993.000000,17709.000000
34612.000000,10835.000000,35034.000000,17750.000000
34636.000000,10850.000000,35064.000000,17760.000000
34657.000000,10857.000000,35085.000000,17755.000000
34673.000000,10860.000000,35098.000000,17751.000000
34683.000000,10859.000000,35106.000000,17751.000000
34688.000000,10853.000000,35106.000000,17747.000000
34685.000000,10840.000000,35097.000000,17735.000000
34672.000000,10825.000000,35082.000000,17733.000000
34655.000000,10808.000000,35068.000000,17742.000000
34635.000000,10789.000000,35054.000000,17744.000000
34615.000000,10768.000000,35035.000000,17730.000000
34595.000000,10745.000000,35009.000000,17705.000000
34577.000000,10720.000000,34981.000000,17678.000000
34564.000000,10701.000000,34957.000000,17653.000000
34557.000000,10688.000000,34939.000000,17631.000000
34553.000000,10677.000000,34924.000000,17608.000000
34553.000000,10673.000000,34915.000000,17580.000000
34556.000000,10679.000000,34911.000000,17552.000000
34558.000000,10688.000000,34910.000000,17530.000000
34560.000000,10698.000000,34912.000000,17531.000000
34563.000000,10710.000000,34918.000000,17552.000000
34561.000000,10716.000000,34923.000000,17568.000000
34555.000000,10711.000000,34921.000000,17570.000000
34546.000000,10697.000000,34913.000000,17574.000000
34537.000000,10680.000000,34906.000000,17582.000000
34527.000000,10667.000000,34900.000000,17588.000000
34521.000000,10659.000000,34894.000000,17597.000000
34515.000000,10649.000000,34884.000000,17601.000000
34509.000000,10638.000000,34870.000000,17586.000000
34505.000000,10626.000000,34857.000000,17553.000000
34507.000000,10619.000000,34850.000000,17521.000000
34515.000000,10622.000000,34850.000000,17501.000000
34525.000000,10631.000000,34856.000000,17488.000000
34537.000000,10646.000000,34865.000000,17482.000000
34552.000000,10668.000000,34876.000000,17488.000000
34569.000000,10693.000000,34892.000000,17517.000000
34583.000000,10713.000000,34912.000000,17551.000000
34588.000000,10727.000000,34932.000000,17573.000000
34587.000000,10734.000000,34943.000000,17584.000000
34583.000000,10738.000000,34949.000000,17596.000000
34581.000000,10742.000000,34958.000000,17620.000000
34582.000000,10744.000000,34968.000000,17646.000000
34586.000000,10745.000000,34977.000000,17671.000000
34593.000000,10748.000000,34988.000000,17696.000000
34602.000000,10753.000000,35002.000000,17707.000000
34611.000000,10757.000000,35017.000000,17702.000000
34623.000000,10766.000000,35037.000000,17708.000000
34636.000000,10774.000000,35061.000000,17728.000000
34647.000000,10779.000000,35082.000000,17749.000000
34656.000000,10785.000000,35100.000000,17777.000000
34664.000000,10792.000000,35111.000000,17811.000000
34666.000000,10798.000000,35115.000000,17831.000000
34666.000000,10804.000000,35111.000000,17826.000000
34665.000000,10806.000000,35101.000000,17815.000000
34662.000000,10806.000000,35093.000000,17823.000000
34656.000000,10806.000000,35086.000000,17840.000000
34651.000000,10806.000000,35078.000000,17844.000000
34648.000000,10808.000000,35068.000000,17828.000000
34650.000000,10810.000000,35057.000000,17812.000000
34658.000000,10809.000000,35046.000000,17801.000000
34664.000000,10805.000000,35034.000000,17773.000000
34665.000000,10799.000000,35019.000000,17724.000000
34664.000000,10794.000000,35003.000000,17681.000000
34660.000000,10788.000000,34989.000000,17663.000000
34652.000000,10777.000000,34973.000000,17656.000000
34637.000000,10759.000000,34957.000000,17645.000000
34620.000000,10740.000000,34939.000000,17631.000000
34610.000000,10724.000000,34922.000000,17614.000000
34607.000000,10712.000000,34906.000000,17589.000000
34602.000000,10700.000000,34891.000000,17568.000000
34594.000000,10690.000000,34880.000000,17562.000000
34591.000000,10684.000000,34874.000000,17555.000000
34594.000000,10679.000000,34867.000000,17534.000000
34596.000000,10677.000000,34858.000000,17510.000000
34593.000000,10679.000000,34849.000000,17494.000000
34586.000000,10679.000000,34838.000000,17475.000000
34574.000000,10670.000000,34828.000000,17452.000000
34559.000000,10654.000000,34816.000000,17439.000000
34547.000000,10638.000000,34804.000000,17449.000000
34537.000000,10626.000000,34789.000000,17471.000000
34523.000000,10614.000000,34770.000000,17479.000000
34505.000000,10601.000000,34750.000000,17483.000000
34488.000000,10589.000000,34732.000000,17502.000000
34477.000000,10580.000000,34720.000000,17529.000000
34471.000000,10573.000000,34711.000000,17546.000000
34469.000000,10567.000000,34699.000000,17540.000000
34473.000000,10563.000000,34683.000000,17512.000000
34475.000000,10558.000000,34664.000000,17475.000000
34472.000000,10552.000000,34648.000000,17439.000000
34470.000000,10550.000000,34639.000000,17408.000000
34475.000000,10555.000000,34636.000000,17372.000000
34481.000000,10561.000000,34638.000000,17331.000000
34481.000000,10564.000000,34641.000000,17290.000000
34479.000000,10562.000000,34641.000000,17258.000000
34479.000000,10560.000000,34640.000000,17243.000000
34479.000000,10558.000000,34636.000000,17235.000000
34475.000000,10555.000000,34624.000000,17222.000000
34467.000000,10550.000000,34606.000000,17214.000000
34463.000000,10549.000000,34585.000000,17218.000000
34460.000000,10547.000000,34565.000000,17233.000000
34453.000000,10541.000000,34549.000000,17251.000000
34441.000000,10528.000000,34536.000000,17265.000000
34426.000000,10510.000000,34523.000000,17265.000000
34410.000000,10493.000000,34511.000000,17250.000000
34399.000000,10484.000000,34503.000000,17240.000000
34391.000000,10480.000000,34498.000000,17240.000000
34383.000000,10480.000000,34495.000000,17229.000000
34379.000000,10483.000000,34492.000000,17210.000000
34380.000000,10489.000000,34494.000000,17192.000000
34385.000000,10498.000000,34497.000000,17171.000000
34392.000000,10506.000000,34498.000000,17147.000000
34399.000000,10510.000000,34490.000000,17121.000000
34404.000000,10509.000000,34475.000000,17105.000000
34407.000000,10508.000000,34459.000000,17111.000000
34404.000000,10505.000000,34443.000000,17125.000000
34394.000000,10497.000000,34424.000000,17133.000000
34380.000000,10488.000000,34405.000000,17148.000000
34365.000000,10479.000000,34388.000000,17168.000000
34350.000000,10469.000000,34369.000000,17166.000000
34339.000000,10461.000000,34352.000000,17142.000000
34331.000000,10453.000000,34337.000000,17116.000000
34321.000000,10438.000000,34319.000000,17084.000000
34307.000000,10422.000000,34298.000000,17043.000000
34297.000000,10408.000000,34281.000000,17010.000000
34291.000000,10393.000000,34267.000000,16977.000000
34283.000000,10379.000000,34249.000000,16941.000000
34275.000000,10369.000000,34232.000000,16920.000000
34271.000000,10360.000000,34220.000000,16917.000000
34270.000000,10351.000000,34211.000000,16922.000000
34270.000000,10342.000000,34204.000000,16928.000000
34270.000000,10336.000000,34198.000000,16933.000000
34266.000000,10330.000000,34190.000000,16935.000000
34254.000000,10324.000000,34183.000000,16926.000000
34241.000000,10317.000000,34173.000000,16898.000000
34229.000000,10313.000000,34160.000000,16861.000000
34221.000000,10310.000000,34145.000000,16842.000000
34213.000000,10306.000000,34127.000000,16838.000000
34201.000000,10296.000000,34103.000000,16827.000000
34186.000000,10281.000000,34074.000000,16804.000000
34168.000000,10265.000000,34048.000000,16777.000000
34151.000000,10249.000000,34027.000000,16759.000000
34139.000000,10238.000000,34009.000000,16756.000000
34135.000000,10232.000000,33995.000000,16759.000000
34132.000000,10228.000000,33981.000000,16757.000000
34127.000000,10223.000000,33969.000000,16747.000000
34123.000000,10220.000000,33960.000000,16730.000000
34122.000000,10219.000000,33951.000000,16705.000000
34123.000000,10216.000000,33941.000000,16678.000000
34127.000000,10212.000000,33933.000000,16653.000000
34133.000000,10212.000000,33925.000000,16628.000000
34135.000000,10214.000000,33915.000000,16607.000000
34135.000000,10215.000000,33903.000000,16589.000000
34133.000000,10215.000000,33890.000000,16567.000000
34125.000000,10211.000000,33874.000000,16546.000000
34113.000000,10202.000000,33859.000000,16535.000000
34100.000000,10188.000000,33844.000000,16528.000000
34086.000000,10169.000000,33824.000000,16514.000000
34068.000000,10143.000000,33800.000000,16491.000000
34048.000000,10115.000000,33773.000000,16459.000000
34033.000000,10093.000000,33749.000000,16435.000000
34022.000000,10077.000000,33730.000000,16422.000000
34013.000000,10065.000000,33709.000000,16406.000000
34004.000000,10053.000000,33684.000000,16384.000000
33997.000000,10040.000000,33657.000000,16360.000000
33991.000000,10026.000000,33631.000000,16333.000000
33983.000000,10012.000000,33604.000000,16303.000000
33972.000000,10001.000000,33578.000000,16267.000000
33958.000000,9991.000000,33554.000000,16234.000000
33944.000000,9988.000000,33539.000000,16210.000000
33937.000000,9991.000000,33538.000000,16201.000000
33942.000000,10002.000000,33554.000000,16212.000000
33958.000000,10021.000000,33585.000000,16227.000000
33982.000000,10046.000000,33627.000000,16243.000000
34012.000000,10080.000000,33679.000000,16273.000000
34048.000000,10121.000000,33739.000000,16327.000000
34089.000000,10163.000000,33808.000000,16398.000000
34138.000000,10214.000000,33889.000000,16479.000000
34192.000000,10270.000000,33978.000000,16572.000000
34246.000000,10325.000000,34071.000000,16669.000000
34301.000000,10380.000000,34161.000000,16762.000000
34362.000000,10438.000000,34251.000000,16852.000000
34427.000000,10502.000000,34346.000000,16954.000000
34491.000000,10568.000000,34443.000000,17079.000000
34554.000000,10634.000000,34543.000000,17215.000000
34615.000000,10698.000000,34640.000000,17342.000000
34668.000000,10754.000000,34728.000000,17442.000000
34710.000000,10801.000000,34803.000000,17513.000000
34745.000000,10837.000000,34867.000000,17558.000000
34773.000000,10863.000000,34921.000000,17591.000000
34793.000000,10877.000000,34962.000000,17623.000000
34806.000000,10886.000000,34987.000000,17640.000000
34818.000000,10891.000000,35004.000000,17644.000000
34828.000000,10894.000000,35018.000000,17650.000000
34834.000000,10893.000000,35028.000000,17649.000000
34838.000000,10889.000000,35037.000000,17642.000000
34837.000000,10886.000000,35044.000000,17638.000000
34837.000000,10886.000000,35049.000000,17641.000000
34838.000000,10884.000000,35052.000000,17649.000000
34835.000000,10877.000000,35050.000000,17652.000000
34831.000000,10870.000000,35044.000000,17646.000000
34830.000000,10864.000000,35037.000000,17643.000000
34828.000000,10859.000000,35031.000000,17652.000000
34820.000000,10851.000000,35023.000000,17670.000000
34805.000000,10836.000000,35016.000000,17687.000000
34790.000000,10822.000000,35011.000000,17701.000000
34779.000000,10814.000000,35006.000000,17719.000000
34769.000000,10809.000000,35001.000000,17743.000000
34760.000000,10806.000000,34994.000000,17759.000000
34755.000000,10804.000000,34989.000000,17768.000000
34754.000000,10803.000000,34989.000000,17777.000000
34749.000000,10800.000000,34990.000000,17784.000000
34741.000000,10796.000000,34990.000000,17781.000000
34737.000000,10795.000000,34992.000000,17772.000000
34735.000000,10798.000000,34994.000000,17763.000000
34733.000000,10799.000000,34996.000000,17758.000000
34733.000000,10802.000000,35000.000000,17755.000000
34730.000000,10808.000000,35004.000000,17748.000000
34727.000000,10818.000000,35008.000000,17738.000000
34731.000000,10835.000000,35016.000000,17735.000000
34741.000000,10853.000000,35024.000000,17732.000000
34755.000000,10870.000000,35032.000000,17724.000000
34770.000000,10885.000000,35041.000000,17723.000000
34785.000000,10898.000000,35052.000000,17741.000000
34799.000000,10909.000000,35062.000000,17774.000000
34812.000000,10916.000000,35070.000000,17805.000000
34818.000000,10917.000000,35073.000000,17826.000000
34817.000000,10910.000000,35069.000000,17823.000000
34816.000000,10902.000000,35061.000000,17809.000000
34820.000000,10896.000000,35056.000000,17801.000000
34827.000000,10892.000000,35056.000000,17789.000000
34837.000000,10887.000000,35061.000000,17777.000000
34847.000000,10883.000000,35071.000000,17778.000000
34851.000000,10879.000000,35080.000000,17777.000000
34850.000000,10877.000000,35091.000000,17775.000000
34850.000000,10880.000000,35107.000000,17777.000000
34851.000000,10891.000000,35129.000000,17777.000000
34856.000000,10907.000000,35152.000000,17784.000000
34868.000000,10925.000000,35176.000000,17809.000000
34884.000000,10943.000000,35198.000000,17843.000000
34900.000000,10960.000000,35218.000000,17875.000000
34910.000000,10973.000000,35231.000000,17896.000000
34921.000000,10982.000000,35238.000000,17916.000000
34932.000000,10993.000000,35246.000000,17949.000000
34944.000000,11006.000000,35256.000000,17993.000000
34954.000000,11016.000000,35263.000000,18030.000000
34958.000000,11020.000000,35264.000000,18046.000000
34961.000000,11023.000000,35261.000000,18044.000000
34963.000000,11023.000000,35258.000000,18035.000000
34961.000000,11020.000000,35252.000000,18022.000000
34954.000000,11017.000000,35242.000000,18015.000000
34945.000000,11012.000000,35233.000000,18008.000000
34934.000000,11003.000000,35227.000000,17986.000000
34918.000000,10988.000000,35217.000000,17947.000000
34900.000000,10970.000000,35200.000000,17903.000000
34883.000000,10949.000000,35179.000000,17864.000000
34866.000000,10927.000000,35156.000000,17827.000000
34853.000000,10910.000000,35131.000000,17792.000000
34845.000000,10897.000000,35108.000000,17766.000000
34839.000000,10886.000000,35089.000000,17753.000000
34836.000000,10882.000000,35076.000000,17753.000000
34837.000000,10883.000000,35070.000000,17766.000000
34837.000000,10885.000000,35062.000000,17776.000000
34835.000000,10885.000000,35050.000000,17763.000000
34831.000000,10876.000000,35032.000000,17734.000000
34821.000000,10861.000000,35011.000000,17708.000000
34807.000000,10842.000000,34985.000000,17678.000000
34793.000000,10822.000000,34960.000000,17644.000000
34779.000000,10805.000000,34944.000000,17623.000000
34764.000000,10791.000000,34936.000000,17623.000000
34748.000000,10777.000000,34931.000000,17638.000000
34731.000000,10765.000000,34929.000000,17651.000000
34717.000000,10758.000000,34926.000000,17654.000000
34707.000000,10758.000000,34921.000000,17648.000000
34709.000000,10763.000000,34914.000000,17638.000000
34721.000000,10769.000000,34907.000000,17623.000000
34734.000000,10770.000000,34897.000000,17605.000000
34738.000000,10767.000000,34883.000000,17595.000000
34735.000000,10760.000000,34869.000000,17587.000000
34728.000000,10752.000000,34856.000000,17566.000000
34716.000000,10742.000000,34842.000000,17542.000000
34700.000000,10730.000000,34829.000000,17535.000000
34683.000000,10720.000000,34816.000000,17525.000000
34668.000000,10710.000000,34801.000000,17498.000000
34654.000000,10699.000000,34786.000000,17464.000000
34644.000000,10688.000000,34773.000000,17428.000000
34637.000000,10680.000000,34766.000000,17398.000000
34632.000000,10677.000000,34763.000000,17371.000000
34628.000000,10677.000000,34763.000000,17342.000000
34623.000000,10680.000000,34760.000000,17318.000000
34620.000000,10684.000000,34754.000000,17304.000000
34620.000000,10687.000000,34752.000000,17299.000000
34619.000000,10687.000000,34751.000000,17294.000000
34615.000000,10683.000000,34745.000000,17299.000000
34606.000000,10674.000000,34738.000000,17315.000000
34599.000000,10663.000000,34726.000000,17321.000000
34595.000000,10653.000000,34711.000000,17324.000000
34594.000000,10647.000000,34700.000000,17338.000000
34593.000000,10644.000000,34692.000000,17348.000000
34594.000000,10641.000000,34680.000000,17337.000000
34598.000000,10635.000000,34666.000000,17318.000000
34600.000000,10629.000000,34649.000000,17307.000000
34597.000000,10622.000000,34629.000000,17287.000000
34592.000000,10614.000000,34611.000000,17253.000000
34586.000000,10606.000000,34595.000000,17222.000000
34581.000000,10602.000000,34581.000000,17203.000000
34577.000000,10598.000000,34570.000000,17196.000000
34569.000000,10590.000000,34561.000000,17198.000000
34557.000000,10581.000000,34552.000000,17204.000000
34546.000000,10571.000000,34543.000000,17211.000000
34534.000000,10563.000000,34537.000000,17223.000000
34521.000000,10558.000000,34533.000000,17239.000000
34510.000000,10554.000000,34524.000000,17257.000000
34500.000000,10550.000000,34512.000000,17261.000000
34491.000000,10544.000000,34496.000000,17240.000000
34483.000000,10534.000000,34480.000000,17206.000000
34477.000000,10523.000000,34463.000000,17178.000000
34477.000000,10515.000000,34448.000000,17165.000000
34476.000000,10508.000000,34437.000000,17159.000000
34469.000000,10499.000000,34424.000000,17143.000000
34458.000000,10487.000000,34407.000000,17120.000000
34451.000000,10477.000000,34392.000000,17111.000000
34448.000000,10471.000000,34381.000000,17115.000000
34449.000000,10468.000000,34370.000000,17121.000000
34452.000000,10466.000000,34357.000000,17121.000000
34453.000000,10463.000000,34344.000000,17117.000000
34450.000000,10460.000000,34331.000000,17119.000000
34441.000000,10455.000000,34314.000000,17122.000000
34425.000000,10445.000000,34289.000000,17104.000000
34406.000000,10429.000000,34260.000000,17062.000000
34388.000000,10409.000000,34230.000000,17001.000000
34370.000000,10387.000000,34199.000000,16930.000000
34355.000000,10366.000000,34170.000000,16872.000000
34344.000000,10348.000000,34151.000000,16833.000000
34336.000000,10335.000000,34138.000000,16795.000000
34329.000000,10329.000000,34127.000000,16769.000000
34321.000000,10326.000000,34120.000000,16775.000000
34317.000000,10326.000000,34117.000000,16794.000000
34317.000000,10329.000000,34114.000000,16804.000000
34314.000000,10331.000000,34109.000000,16812.000000
34308.000000,10333.000000,34100.000000,16818.000000
34303.000000,10335.000000,34089.000000,16811.000000
34299.000000,10332.000000,34073.000000,16794.000000
34293.000000,10323.000000,34052.000000,16787.000000
34283.000000,10312.000000,34034.000000,16791.000000
34268.000000,10297.000000,34017.000000,16782.000000
34251.000000,10279.000000,33997.000000,16757.000000
34236.000000,10258.000000,33973.000000,16728.000000
34224.000000,10239.000000,33949.000000,16694.000000
34217.000000,10225.000000,33924.000000,16663.000000
34216.000000,10214.000000,33898.000000,16626.000000
34213.000000,10205.000000,33872.000000,16588.000000
34206.000000,10201.000000,33852.000000,16571.000000
34198.000000,10202.000000,33841.000000,16573.000000
34194.000000,10205.000000,33838.000000,16583.000000
34195.000000,10206.000000,33837.000000,16592.000000
34194.000000,10202.000000,33835.000000,16596.000000
34187.000000,10193.000000,33827.000000,16575.000000
34172.000000,10180.000000,33810.000000,16534.000000
34157.000000,10164.000000,33784.000000,16493.000000
34146.000000,10147.000000,33754.000000,16460.000000
34141.000000,10134.000000,33727.000000,16438.000000
34139.000000,10129.000000,33708.000000,16410.000000
34141.000000,10131.000000,33696.000000,16372.000000
34147.000000,10141.000000,33694.000000,16341.000000
34161.000000,10163.000000,33705.000000,16324.000000
34179.000000,10193.000000,33736.000000,16331.000000
34201.000000,10230.000000,33785.000000,16382.000000
34232.000000,10276.000000,33851.000000,16465.000000
34271.000000,10327.000000,33932.000000,16548.000000
34315.000000,10380.000000,34022.000000,16619.000000
34364.000000,10432.000000,34118.000000,16693.000000
34417.000000,10485.000000,34217.000000,16781.000000
34470.000000,10539.000000,34315.000000,16862.000000
34525.000000,10594.000000,34408.000000,16931.000000
34582.000000,10651.000000,34498.000000,17010.000000
34641.000000,10706.000000,34590.000000,17118.000000
34699.000000,10760.000000,34680.000000,17236.000000
34753.000000,10811.000000,34766.000000,17346.000000
34802.000000,10858.000000,34851.000000,17453.000000
34845.000000,10900.000000,34934.000000,17550.000000
34878.000000,10936.000000,35008.000000,17629.000000
34905.000000,10966.000000,35073.000000,17695.000000
34929.000000,10988.000000,35129.000000,17743.000000
34949.000000,11006.000000,35175.000000,17778.000000
34961.000000,11021.000000,35212.000000,17811.000000
34968.000000,11033.000000,35241.000000,17844.000000
34974.000000,11043.000000,35265.000000,17878.000000
34978.000000,11049.000000,35277.000000,17894.000000
34980.000000,11051.000000,35276.000000,17883.000000
34980.000000,11049.000000,35270.000000,17860.000000
34975.000000,11045.000000,35260.000000,17835.000000
34970.000000,11037.000000,35248.000000,17808.000000
34964.000000,11022.000000,35231.000000,17779.000000
34955.000000,11002.000000,35214.000000,17764.000000
34940.000000,10980.000000,35197.000000,17769.000000
34924.000000,10958.000000,35181.000000,17781.000000
34911.000000,10940.000000,35166.000000,17797.000000
34902.000000,10931.000000,35155.000000,17819.000000
34902.000000,10936.000000,35152.000000,17844.000000
34912.000000,10950.000000,35153.000000,17855.000000
34927.000000,10962.000000,35154.000000,17854.000000
34942.000000,10970.000000,35156.000000,17862.000000
34954.000000,10974.000000,35158.000000,17876.000000
34959.000000,10973.000000,35157.000000,17879.000000
34959.000000,10968.000000,35151.000000,17887.000000
34958.000000,10961.000000,35143.000000,17902.000000
34962.000000,10954.000000,35135.000000,17907.000000
34968.000000,10953.000000,35132.000000,17904.000000
34976.000000,10959.000000,35134.000000,17909.000000
34983.000000,10968.000000,35141.000000,17931.000000
34987.000000,10973.000000,35151.000000,17952.000000
34981.000000,10972.000000,35156.000000,17957.000000
34966.000000,10967.000000,35157.000000,17953.000000
34952.000000,10966.000000,35158.000000,17954.000000
34946.000000,10973.000000,35161.000000,17952.000000
34950.000000,10986.000000,35170.000000,17936.000000
34962.000000,10999.000000,35181.000000,17917.000000
34976.000000,11012.000000,35195.000000,17908.000000
34987.000000,11021.000000,35211.000000,17905.000000
34992.000000,11026.000000,35225.000000,17889.000000
34994.000000,11027.000000,35236.000000,17865.000000
34996.000000,11030.000000,35250.000000,17857.000000
35005.000000,11039.000000,35268.000000,17867.000000
35023.000000,11054.000000,35290.000000,17888.000000
35045.000000,11073.000000,35312.000000,17910.000000
35064.000000,11093.000000,35332.000000,17929.000000
35077.000000,11109.000000,35347.000000,17950.000000
35086.000000,11121.000000,35362.000000,17981.000000
35096.000000,11133.000000,35380.000000,18031.000000
35105.000000,11147.000000,35399.000000,18084.000000
35111.000000,11159.000000,35415.000000,18111.000000
35119.000000,11171.000000,35429.000000,18120.000000
35130.000000,11184.000000,35443.000000,18131.000000
35139.000000,11196.000000,35455.000000,18133.000000
35144.000000,11199.000000,35462.000000,18113.000000
35144.000000,11197.000000,35466.000000,18088.000000
35145.000000,11197.000000,35466.000000,18084.000000
35149.000000,11199.000000,35467.000000,18106.000000
35153.000000,11203.000000,35466.000000,18127.000000
35156.000000,11207.000000,35461.000000,18131.000000
35157.000000,11208.000000,35452.000000,18125.000000
35157.000000,11208.000000,35444.000000,18123.000000
35157.000000,11208.000000,35438.000000,18126.000000
35154.000000,11204.000000,35428.000000,18122.000000
35145.000000,11192.000000,35415.000000,18110.000000
35131.000000,11175.000000,35403.000000,18102.000000
35117.000000,11158.000000,35396.000000,18109.000000
35105.000000,11141.000000,35391.000000,18132.000000
35094.000000,11126.000000,35386.000000,18151.000000
35084.000000,11115.000000,35374.000000,18149.000000
35074.000000,11106.000000,35359.000000,18130.000000
35066.000000,11093.000000,35344.000000,18096.000000
35058.000000,11076.000000,35329.000000,18059.000000
35053.000000,11062.000000,35313.000000,18043.000000
35050.000000,11049.000000,35296.000000,18037.000000
35045.000000,11036.000000,35275.000000,18021.000000
35039.000000,11023.000000,35257.000000,18002.000000
35033.000000,11015.000000,35247.000000,17993.000000
35027.000000,11013.000000,35240.000000,17989.000000
35022.000000,11014.000000,35230.000000,17980.000000
35019.000000,11015.000000,35222.000000,17971.000000
35014.000000,11016.000000,35219.000000,17957.000000
35007.000000,11016.000000,35216.000000,17945.000000
34999.000000,11012.000000,35213.000000,17939.000000
34988.000000,11006.000000,35205.000000,17920.000000
34975.000000,10998.000000,35192.000000,17883.000000
34962.000000,10991.000000,35176.000000,17847.000000
34956.000000,10987.000000,35162.000000,17829.000000
34956.000000,10985.000000,35153.000000,17825.000000
34957.000000,10979.000000,35145.000000,17816.000000
34957.000000,10971.000000,35133.000000,17787.000000
34958.000000,10964.000000,35119.000000,17750.000000
34960.000000,10962.000000,35110.000000,17727.000000
34965.000000,10971.000000,35109.000000,17720.000000
34972.000000,10983.000000,35111.000000,17721.000000
34975.000000,10990.000000,35114.000000,17731.000000
34973.000000,10993.000000,35117.000000,17752.000000
34970.000000,10994.000000,35120.000000,17776.000000
34970.000000,10993.000000,35120.000000,17789.000000
34969.000000,10991.000000,35115.000000,17786.000000
34970.000000,10989.000000,35108.000000,17777.000000
34970.000000,10989.000000,35102.000000,17775.000000
34968.000000,10988.000000,35097.000000,17792.000000
34965.000000,10984.000000,35092.000000,17822.000000
34960.000000,10980.000000,35087.000000,17840.000000
34949.000000,10972.000000,35080.000000,17828.000000
34935.000000,10956.000000,35064.000000,17789.000000
34924.000000,10943.000000,35045.000000,17747.000000
34919.000000,10936.000000,35030.000000,17722.000000
34918.000000,10932.000000,35022.000000,17711.000000
34916.000000,10925.000000,35017.000000,17700.000000
34913.000000,10918.000000,35012.000000,17689.000000
34914.000000,10916.000000,35008.000000,17680.000000
34919.000000,10916.000000,35003.000000,17667.000000
34918.000000,10912.000000,34992.000000,17640.000000
34913.000000,10903.000000,34973.000000,17599.000000
34908.000000,10892.000000,34953.000000,17558.000000
34902.000000,10880.000000,34937.000000,17527.000000
34895.000000,10870.000000,34922.000000,17509.000000
34888.000000,10859.000000,34908.000000,17499.000000
34877.000000,10846.000000,34892.000000,17487.000000
34863.000000,10832.000000,34872.000000,17468.000000
34854.000000,10823.000000,34855.000000,17448.000000
34851.000000,10821.000000,34844.000000,17426.000000
34854.000000,10826.000000,34836.000000,17403.000000
34861.000000,10832.000000,34828.000000,17390.000000
34868.000000,10837.000000,34820.000000,17392.000000
34871.000000,10843.000000,34812.000000,17403.000000
34866.000000,10848.000000,34804.000000,17416.000000
34853.000000,10848.000000,34797.000000,17424.000000
34839.000000,10843.000000,34788.000000,17429.000000
34824.000000,10836.000000,34777.000000,17433.000000
34808.000000,10827.000000,34764.000000,17429.000000
34795.000000,10816.000000,34747.000000,17416.000000
34783.000000,10803.000000,34728.000000,17393.000000
34772.000000,10786.000000,34704.000000,17363.000000
34762.000000,10768.000000,34679.000000,17339.000000
34753.000000,10754.000000,34657.000000,17334.000000
34743.000000,10741.000000,34639.000000,17339.000000
34733.000000,10729.000000,34624.000000,17328.000000
34725.000000,10719.000000,34610.000000,17295.000000
34720.000000,10712.000000,34597.000000,17261.000000
34712.000000,10706.000000,34587.000000,17233.000000
34703.000000,10700.000000,34576.000000,17204.000000
34695.000000,10694.000000,34565.000000,17170.000000
34692.000000,10691.000000,34552.000000,17145.000000
34690.000000,10688.000000,34534.000000,17136.000000
34683.000000,10684.000000,34515.000000,17127.000000
34668.000000,10679.000000,34495.000000,17109.000000
34648.000000,10669.000000,34475.000000,17086.000000
34627.000000,10656.000000,34459.000000,17077.000000
34613.000000,10643.000000,34444.000000,17078.000000
34600.000000,10628.000000,34425.000000,17078.000000
34584.000000,10610.000000,34403.000000,17077.000000
34565.000000,10592.000000,34383.000000,17079.000000
34550.000000,10575.000000,34366.000000,17077.000000
