660nm,730nm,850nm,940nm
27800.000000,3445.000000,53481.000000,50442.000000
27709.000000,3352.000000,53312.000000,50326.000000
27620.000000,3263.000000,53151.000000,50215.000000
27543.000000,3187.000000,53010.000000,50115.000000
27483.000000,3130.000000,52897.000000,50033.000000
27435.000000,3086.000000,52805.000000,49967.000000
27396.000000,3054.000000,52734.000000,49917.000000
27370.000000,3037.000000,52686.000000,49882.000000
27353.000000,3032.000000,52661.000000,49855.000000
27340.000000,3029.000000,52650.000000,49828.000000
27336.000000,3029.000000,52652.000000,49806.000000
27344.000000,3038.000000,52670.000000,49800.000000
27363.000000,3058.000000,52704.000000,49812.000000
27385.000000,3081.000000,52742.000000,49827.000000
27409.000000,3102.000000,52776.000000,49834.000000
27435.000000,3120.000000,52806.000000,49845.000000
27454.000000,3134.000000,52826.000000,49858.000000
27462.000000,3137.000000,52829.000000,49865.000000
27462.000000,3130.000000,52813.000000,49863.000000
27458.000000,3119.000000,52786.000000,49859.000000
27449.000000,3106.000000,52749.000000,49847.000000
27427.000000,3087.000000,52703.000000,49822.000000
27397.000000,3068.000000,52655.000000,49790.000000
27371.000000,3057.000000,52612.000000,49764.000000
27347.000000,3049.000000,52577.000000,49745.000000
27326.000000,3039.000000,52549.000000,49722.000000
27314.000000,3035.000000,52532.000000,49705.000000
27319.000000,3044.000000,52534.000000,49705.000000
27338.000000,3062.000000,52552.000000,49719.000000
27362.000000,3084.000000,52582.000000,49739.000000
27388.000000,3111.000000,52625.000000,49767.000000
27421.000000,3147.000000,52687.000000,49806.000000
27459.000000,3186.000000,52760.000000,49848.000000
27498.000000,3222.000000,52834.000000,49890.000000
27540.000000,3260.000000,52914.000000,49940.000000
27588.000000,3304.000000,52996.000000,50004.000000
27636.000000,3347.000000,53072.000000,50065.000000
27677.000000,3380.000000,53134.000000,50112.000000
27712.000000,3407.000000,53189.000000,50153.000000
27743.000000,3431.000000,53238.000000,50195.000000
27765.000000,3447.000000,53274.000000,50225.000000
27777.000000,3456.000000,53292.000000,50234.000000
27783.000000,3461.000000,53299.000000,50236.000000
27783.000000,3465.000000,53299.000000,50234.000000
27774.000000,3463.000000,53288.000000,50222.000000
27759.000000,3455.000000,53264.000000,50202.000000
27746.000000,3445.000000,53231.000000,50181.000000
27733.000000,3433.000000,53192.000000,50158.000000
27711.000000,3412.000000,53144.000000,50127.000000
27680.000000,3380.000000,53085.000000,50086.000000
27647.000000,3345.000000,53017.000000,50037.000000
27611.000000,3306.000000,52941.000000,49980.000000
27566.000000,3257.000000,52851.000000,49913.000000
27513.000000,3197.000000,52751.000000,49839.000000
27458.000000,3135.000000,52648.000000,49762.000000
27401.000000,3072.000000,52544.000000,49685.000000
27336.000000,3005.000000,52431.000000,49602.000000
27265.000000,2933.000000,52306.000000,49508.000000
27192.000000,2862.000000,52175.000000,49411.000000
27118.000000,2795.000000,52042.000000,49315.000000
27041.000000,2726.000000,51908.000000,49216.000000
26966.000000,2659.000000,51776.000000,49121.000000
26899.000000,2600.000000,51652.000000,49035.000000
26834.000000,2543.000000,51534.000000,48953.000000
26766.000000,2484.000000,51415.000000,48868.000000
26698.000000,2427.000000,51297.000000,48781.000000
26637.000000,2378.000000,51189.000000,48704.000000
26582.000000,2334.000000,51087.000000,48637.000000
26525.000000,2288.000000,50982.000000,48569.000000
26469.000000,2240.000000,50883.000000,48499.000000
26418.000000,2192.000000,50791.000000,48434.000000
26368.000000,2144.000000,50703.000000,48373.000000
26321.000000,2096.000000,50616.000000,48312.000000
26281.000000,2054.000000,50534.000000,48252.000000
26250.000000,2023.000000,50462.000000,48197.000000
26222.000000,1995.000000,50394.000000,48139.000000
26194.000000,1968.000000,50327.000000,48079.000000
26174.000000,1943.000000,50267.000000,48031.000000
26156.000000,1920.000000,50216.000000,47999.000000
26130.000000,1894.000000,50170.000000,47968.000000
26098.000000,1863.000000,50123.000000,47928.000000
26069.000000,1835.000000,50078.000000,47890.000000
26045.000000,1811.000000,50038.000000,47862.000000
26020.000000,1786.000000,50002.000000,47838.000000
25993.000000,1758.000000,49964.000000,47810.000000
25968.000000,1735.000000,49928.000000,47781.000000
25947.000000,1720.000000,49900.000000,47757.000000
25925.000000,1703.000000,49874.000000,47731.000000
25901.000000,1681.000000,49840.000000,47696.000000
25878.000000,1661.000000,49802.000000,47665.000000
25860.000000,1646.000000,49764.000000,47643.000000
25837.000000,1630.000000,49724.000000,47622.000000
25809.000000,1609.000000,49681.000000,47602.000000
25783.000000,1589.000000,49642.000000,47581.000000
25760.000000,1572.000000,49607.000000,47557.000000
25734.000000,1552.000000,49568.000000,47526.000000
25707.000000,1529.000000,49526.000000,47493.000000
25685.000000,1505.000000,49484.000000,47469.000000
25664.000000,1478.000000,49443.000000,47455.000000
25637.000000,1446.000000,49402.000000,47438.000000
25607.000000,1412.000000,49359.000000,47415.000000
25583.000000,1386.000000,49319.000000,47390.000000
25564.000000,1365.000000,49282.000000,47368.000000
25541.000000,1341.000000,49242.000000,47343.000000
25515.000000,1313.000000,49202.000000,47312.000000
25491.000000,1289.000000,49168.000000,47285.000000
25464.000000,1268.000000,49136.000000,47259.000000
25432.000000,1245.000000,49100.000000,47231.000000
25403.000000,1223.000000,49062.000000,47206.000000
25382.000000,1208.000000,49033.000000,47190.000000
25366.000000,1195.000000,49012.000000,47178.000000
25348.000000,1177.000000,48986.000000,47162.000000
25328.000000,1154.000000,48955.000000,47147.000000
25308.000000,1134.000000,48929.000000,47129.000000
25287.000000,1115.000000,48902.000000,47101.000000
25265.000000,1096.000000,48870.000000,47067.000000
25251.000000,1084.000000,48839.000000,47042.000000
25245.000000,1078.000000,48815.000000,47033.000000
25238.000000,1074.000000,48796.000000,47034.000000
25228.000000,1067.000000,48774.000000,47027.000000
25221.000000,1059.000000,48750.000000,47009.000000
25220.000000,1053.000000,48728.000000,46989.000000
25215.000000,1046.000000,48704.000000,46971.000000
25206.000000,1034.000000,48677.000000,46949.000000
25198.000000,1024.000000,48650.000000,46928.000000
25194.000000,1019.000000,48627.000000,46911.000000
25185.000000,1015.000000,48602.000000,46893.000000
25171.000000,1009.000000,48577.000000,46874.000000
25158.000000,1004.000000,48560.000000,46860.000000
25147.000000,999.000000,48549.000000,46846.000000
25131.000000,990.000000,48534.000000,46826.000000
25111.000000,976.000000,48512.000000,46805.000000
25091.000000,960.000000,48490.000000,46794.000000
25073.000000,944.000000,48472.000000,46793.000000
25054.000000,923.000000,48451.000000,46790.000000
25036.000000,898.000000,48419.000000,46778.000000
25020.000000,875.000000,48383.000000,46757.000000
25002.000000,855.000000,48349.000000,46732.000000
24976.000000,831.000000,48315.000000,46701.000000
24946.000000,805.000000,48278.000000,46667.000000
24921.000000,785.000000,48244.000000,46634.000000
24901.000000,770.000000,48215.000000,46606.000000
24881.000000,752.000000,48183.000000,46576.000000
24862.000000,734.000000,48147.000000,46548.000000
24847.000000,718.000000,48116.000000,46529.000000
24835.000000,704.000000,48093.000000,46516.000000
24824.000000,693.000000,48075.000000,46508.000000
24828.000000,694.000000,48075.000000,46519.000000
24857.000000,720.000000,48111.000000,46560.000000
24914.000000,775.000000,48193.000000,46626.000000
25002.000000,861.000000,48337.000000,46722.000000
25139.000000,996.000000,48569.000000,46872.000000
25338.000000,1196.000000,48915.000000,47105.000000
25600.000000,1459.000000,49376.000000,47425.000000
25919.000000,1773.000000,49938.000000,47821.000000
26292.000000,2135.000000,50587.000000,48287.000000
26710.000000,2540.000000,51307.000000,48811.000000
27154.000000,2965.000000,52063.000000,49363.000000
27593.000000,3380.000000,52808.000000,49907.000000
28011.000000,3772.000000,53508.000000,50425.000000
28398.000000,4133.000000,54147.000000,50899.000000
28743.000000,4452.000000,54710.000000,51311.000000
29037.000000,4724.000000,55182.000000,51654.000000
29285.000000,4952.000000,55565.000000,51941.000000
29491.000000,5136.000000,55869.000000,52178.000000
29649.000000,5277.000000,56098.000000,52364.000000
29763.000000,5375.000000,56257.000000,52494.000000
29845.000000,5437.000000,56357.000000,52579.000000
29902.000000,5471.000000,56412.000000,52631.000000
29927.000000,5475.000000,56421.000000,52652.000000
29918.000000,5452.000000,56387.000000,52636.000000
29886.000000,5412.000000,56319.000000,52591.000000
29836.000000,5362.000000,56230.000000,52530.000000
29771.000000,5301.000000,56123.000000,52453.000000
29695.000000,5228.000000,55998.000000,52364.000000
29612.000000,5149.000000,55865.000000,52271.000000
29524.000000,5069.000000,55730.000000,52175.000000
29436.000000,4986.000000,55591.000000,52067.000000
29349.000000,4906.000000,55452.000000,51956.000000
29273.000000,4838.000000,55322.000000,51859.000000
29208.000000,4781.000000,55205.000000,51778.000000
29150.000000,4728.000000,55099.000000,51700.000000
29100.000000,4682.000000,55010.000000,51621.000000
29061.000000,4644.000000,54940.000000,51555.000000
29029.000000,4611.000000,54884.000000,51507.000000
28999.000000,4576.000000,54836.000000,51467.000000
28976.000000,4545.000000,54796.000000,51434.000000
28965.000000,4523.000000,54770.000000,51413.000000
28963.000000,4509.000000,54757.000000,51407.000000
28962.000000,4499.000000,54756.000000,51406.000000
28965.000000,4499.000000,54767.000000,51410.000000
28980.000000,4511.000000,54789.000000,51422.000000
28997.000000,4527.000000,54817.000000,51436.000000
29010.000000,4541.000000,54838.000000,51448.000000
29026.000000,4554.000000,54854.000000,51465.000000
29046.000000,4575.000000,54872.000000,51485.000000
29059.000000,4595.000000,54883.000000,51493.000000
29065.000000,4606.000000,54882.000000,51484.000000
29066.000000,4610.000000,54869.000000,51468.000000
29057.000000,4604.000000,54845.000000,51453.000000
29032.000000,4583.000000,54804.000000,51431.000000
28993.000000,4544.000000,54744.000000,51387.000000
28949.000000,4499.000000,54672.000000,51327.000000
28906.000000,4455.000000,54595.000000,51270.000000
28861.000000,4408.000000,54511.000000,51218.000000
28811.000000,4357.000000,54424.000000,51162.000000
28763.000000,4309.000000,54340.000000,51104.000000
28721.000000,4270.000000,54269.000000,51055.000000
28682.000000,4235.000000,54210.000000,51015.000000
28649.000000,4202.000000,54161.000000,50981.000000
28627.000000,4180.000000,54130.000000,50958.000000
28617.000000,4173.000000,54120.000000,50948.000000
28613.000000,4175.000000,54122.000000,50945.000000
28615.000000,4182.000000,54131.000000,50947.000000
28629.000000,4194.000000,54152.000000,50957.000000
28655.000000,4216.000000,54184.000000,50974.000000
28681.000000,4241.000000,54217.000000,50991.000000
28704.000000,4265.000000,54246.000000,51008.000000
28727.000000,4286.000000,54275.000000,51033.000000
28746.000000,4303.000000,54308.000000,51061.000000
28757.000000,4315.000000,54335.000000,51083.000000
28766.000000,4325.000000,54356.000000,51099.000000
28780.000000,4337.000000,54378.000000,51119.000000
28795.000000,4350.000000,54402.000000,51143.000000
28805.000000,4358.000000,54418.000000,51156.000000
28807.000000,4361.000000,54422.000000,51154.000000
28803.000000,4362.000000,54418.000000,51149.000000
28792.000000,4360.000000,54403.000000,51142.000000
28771.000000,4346.000000,54371.000000,51122.000000
28744.000000,4322.000000,54322.000000,51090.000000
28712.000000,4289.000000,54263.000000,51051.000000
28669.000000,4246.000000,54190.000000,51000.000000
28614.000000,4194.000000,54101.000000,50934.000000
28552.000000,4139.000000,54000.000000,50856.000000
28495.000000,4084.000000,53893.000000,50778.000000
28437.000000,4025.000000,53782.000000,50696.000000
28371.000000,3957.000000,53663.000000,50605.000000
28300.000000,3884.000000,53539.000000,50510.000000
28229.000000,3815.000000,53417.000000,50422.000000
28156.000000,3743.000000,53295.000000,50334.000000
28078.000000,3667.000000,53169.000000,50231.000000
27999.000000,3592.000000,53041.000000,50120.000000
27925.000000,3523.000000,52916.000000,50019.000000
27850.000000,3451.000000,52788.000000,49925.000000
27768.000000,3372.000000,52653.000000,49828.000000
27682.000000,3288.000000,52515.000000,49727.000000
27598.000000,3208.000000,52383.000000,49633.000000
27516.000000,3131.000000,52255.000000,49548.000000
27436.000000,3054.000000,52125.000000,49465.000000
27359.000000,2981.000000,51994.000000,49384.000000
27281.000000,2914.000000,51864.000000,49305.000000
27198.000000,2844.000000,51734.000000,49220.000000
27114.000000,2771.000000,51606.000000,49126.000000
27038.000000,2699.000000,51487.000000,49033.000000
26972.000000,2634.000000,51375.000000,48949.000000
26908.000000,2571.000000,51264.000000,48868.000000
26846.000000,2512.000000,51155.000000,48787.000000
26795.000000,2462.000000,51053.000000,48711.000000
26754.000000,2422.000000,50963.000000,48645.000000
26714.000000,2384.000000,50878.000000,48583.000000
26673.000000,2348.000000,50798.000000,48517.000000
26636.000000,2317.000000,50729.000000,48460.000000
26603.000000,2291.000000,50669.000000,48417.000000
26572.000000,2263.000000,50613.000000,48376.000000
26545.000000,2236.000000,50563.000000,48338.000000
26525.000000,2214.000000,50520.000000,48305.000000
26504.000000,2193.000000,50477.000000,48271.000000
26478.000000,2163.000000,50427.000000,48231.000000
26448.000000,2129.000000,50377.000000,48192.000000
26420.000000,2101.000000,50334.000000,48159.000000
26394.000000,2079.000000,50293.000000,48131.000000
26367.000000,2056.000000,50251.000000,48102.000000
26343.000000,2033.000000,50211.000000,48075.000000
26329.000000,2015.000000,50180.000000,48054.000000
26319.000000,2002.000000,50152.000000,48035.000000
26302.000000,1987.000000,50116.000000,48009.000000
26280.000000,1969.000000,50074.000000,47982.000000
26261.000000,1953.000000,50035.000000,47962.000000
26239.000000,1937.000000,50000.000000,47945.000000
26208.000000,1914.000000,49961.000000,47917.000000
26175.000000,1890.000000,49922.000000,47879.000000
26145.000000,1868.000000,49886.000000,47845.000000
26113.000000,1840.000000,49846.000000,47814.000000
26078.000000,1807.000000,49796.000000,47781.000000
26048.000000,1779.000000,49746.000000,47747.000000
26030.000000,1758.000000,49704.000000,47720.000000
26015.000000,1742.000000,49669.000000,47698.000000
25997.000000,1722.000000,49632.000000,47670.000000
25981.000000,1701.000000,49596.000000,47638.000000
25968.000000,1684.000000,49567.000000,47616.000000
25954.000000,1668.000000,49541.000000,47597.000000
25934.000000,1649.000000,49509.000000,47572.000000
25911.000000,1632.000000,49471.000000,47546.000000
25884.000000,1615.000000,49429.000000,47525.000000
25850.000000,1591.000000,49383.000000,47504.000000
25812.000000,1559.000000,49335.000000,47477.000000
25780.000000,1531.000000,49295.000000,47451.000000
25757.000000,1509.000000,49265.000000,47434.000000
25732.000000,1482.000000,49232.000000,47414.000000
25705.000000,1449.000000,49189.000000,47381.000000
25676.000000,1419.000000,49143.000000,47341.000000
25645.000000,1394.000000,49101.000000,47301.000000
25610.000000,1365.000000,49056.000000,47255.000000
25571.000000,1331.000000,49004.000000,47204.000000
25534.000000,1298.000000,48951.000000,47155.000000
25497.000000,1267.000000,48902.000000,47113.000000
25458.000000,1232.000000,48852.000000,47074.000000
25423.000000,1194.000000,48801.000000,47032.000000
25394.000000,1160.000000,48751.000000,46999.000000
25368.000000,1131.000000,48703.000000,46975.000000
25338.000000,1101.000000,48652.000000,46948.000000
25304.000000,1068.000000,48602.000000,46914.000000
25272.000000,1041.000000,48561.000000,46882.000000
25245.000000,1021.000000,48525.000000,46859.000000
25220.000000,1004.000000,48487.000000,46839.000000
25195.000000,987.000000,48445.000000,46820.000000
25177.000000,973.000000,48412.000000,46807.000000
25163.000000,962.000000,48384.000000,46797.000000
25148.000000,949.000000,48351.000000,46783.000000
25133.000000,936.000000,48317.000000,46766.000000
25123.000000,930.000000,48288.000000,46752.000000
25111.000000,924.000000,48261.000000,46736.000000
25093.000000,910.000000,48233.000000,46716.000000
25076.000000,894.000000,48206.000000,46698.000000
25065.000000,884.000000,48187.000000,46691.000000
25057.000000,874.000000,48170.000000,46693.000000
25046.000000,858.000000,48147.000000,46693.000000
25036.000000,841.000000,48124.000000,46687.000000
25029.000000,831.000000,48107.000000,46677.000000
25023.000000,823.000000,48094.000000,46660.000000
25018.000000,817.000000,48078.000000,46637.000000
25018.000000,816.000000,48063.000000,46618.000000
25022.000000,820.000000,48052.000000,46607.000000
25023.000000,825.000000,48044.000000,46597.000000
25017.000000,829.000000,48032.000000,46582.000000
25011.000000,835.000000,48023.000000,46562.000000
25009.000000,843.000000,48021.000000,46549.000000
25006.000000,848.000000,48018.000000,46541.000000
25002.000000,843.000000,48007.000000,46526.000000
24998.000000,835.000000,47994.000000,46508.000000
24992.000000,827.000000,47982.000000,46493.000000
24980.000000,815.000000,47965.000000,46477.000000
24965.000000,799.000000,47945.000000,46455.000000
24953.000000,787.000000,47927.000000,46437.000000
24943.000000,778.000000,47912.000000,46423.000000
24928.000000,762.000000,47888.000000,46405.000000
24909.000000,741.000000,47856.000000,46381.000000
24890.000000,723.000000,47827.000000,46363.000000
24875.000000,711.000000,47804.000000,46353.000000
24855.000000,695.000000,47779.000000,46345.000000
24830.000000,675.000000,47749.000000,46338.000000
24806.000000,657.000000,47722.000000,46335.000000
24789.000000,644.000000,47703.000000,46332.000000
24775.000000,632.000000,47692.000000,46326.000000
24775.000000,632.000000,47700.000000,46326.000000
24801.000000,657.000000,47746.000000,46355.000000
24860.000000,714.000000,47848.000000,46427.000000
24955.000000,806.000000,48018.000000,46543.000000
25102.000000,949.000000,48278.000000,46713.000000
25318.000000,1159.000000,48656.000000,46962.000000
25601.000000,1439.000000,49156.000000,47298.000000
25940.000000,1775.000000,49763.000000,47714.000000
26332.000000,2157.000000,50456.000000,48201.000000
26768.000000,2576.000000,51216.000000,48742.000000
27222.000000,3010.000000,52003.000000,49300.000000
27667.000000,3431.000000,52767.000000,49849.000000
28088.000000,3824.000000,53473.000000,50370.000000
28472.000000,4183.000000,54105.000000,50847.000000
28807.000000,4498.000000,54650.000000,51260.000000
29083.000000,4756.000000,55098.000000,51595.000000
29301.000000,4959.000000,55450.000000,51857.000000
29469.000000,5116.000000,55718.000000,52061.000000
29591.000000,5224.000000,55908.000000,52210.000000
29670.000000,5284.000000,56021.000000,52303.000000
29715.000000,5307.000000,56070.000000,52350.000000
29729.000000,5303.000000,56070.000000,52360.000000
29712.000000,5272.000000,56026.000000,52333.000000
29669.000000,5215.000000,55942.000000,52276.000000
29610.000000,5140.000000,55830.000000,52204.000000
29539.000000,5058.000000,55699.000000,52123.000000
29454.000000,4969.000000,55550.000000,52025.000000
29358.000000,4875.000000,55389.000000,51911.000000
29262.000000,4783.000000,55226.000000,51797.000000
29165.000000,4698.000000,55068.000000,51691.000000
29063.000000,4610.000000,54909.000000,51579.000000
28954.000000,4514.000000,54747.000000,51449.000000
28851.000000,4417.000000,54589.000000,51316.000000
28756.000000,4329.000000,54440.000000,51195.000000
28666.000000,4244.000000,54297.000000,51083.000000
28580.000000,4164.000000,54163.000000,50979.000000
28507.000000,4100.000000,54048.000000,50891.000000
28450.000000,4055.000000,53952.000000,50824.000000
28404.000000,4020.000000,53870.000000,50774.000000
28371.000000,3992.000000,53800.000000,50739.000000
28353.000000,3974.000000,53751.000000,50718.000000
28349.000000,3969.000000,53723.000000,50713.000000
28356.000000,3969.000000,53712.000000,50714.000000
28374.000000,3979.000000,53722.000000,50720.000000
28402.000000,4001.000000,53752.000000,50738.000000
28431.000000,4025.000000,53793.000000,50766.000000
28452.000000,4046.000000,53831.000000,50790.000000
28470.000000,4065.000000,53866.000000,50811.000000
28491.000000,4088.000000,53901.000000,50836.000000
28511.000000,4109.000000,53929.000000,50857.000000
28524.000000,4121.000000,53938.000000,50863.000000
28530.000000,4124.000000,53930.000000,50856.000000
28534.000000,4125.000000,53915.000000,50844.000000
28530.000000,4123.000000,53893.000000,50827.000000
28515.000000,4111.000000,53857.000000,50798.000000
28494.000000,4095.000000,53814.000000,50763.000000
28472.000000,4082.000000,53776.000000,50733.000000
28448.000000,4070.000000,53741.000000,50705.000000
28420.000000,4053.000000,53704.000000,50672.000000
28398.000000,4037.000000,53671.000000,50641.000000
28388.000000,4027.000000,53645.000000,50623.000000
28382.000000,4018.000000,53623.000000,50614.000000
28377.000000,4007.000000,53604.000000,50604.000000
28379.000000,4001.000000,53595.000000,50595.000000
28391.000000,4006.000000,53603.000000,50598.000000
28407.000000,4018.000000,53621.000000,50617.000000
28423.000000,4030.000000,53641.000000,50639.000000
28439.000000,4043.000000,53667.000000,50664.000000
28455.000000,4062.000000,53701.000000,50696.000000
28468.000000,4084.000000,53737.000000,50726.000000
28480.000000,4105.000000,53767.000000,50748.000000
28494.000000,4125.000000,53796.000000,50769.000000
28512.000000,4144.000000,53825.000000,50793.000000
28526.000000,4155.000000,53852.000000,50808.000000
28535.000000,4157.000000,53872.000000,50810.000000
28544.000000,4156.000000,53889.000000,50810.000000
28548.000000,4152.000000,53899.000000,50813.000000
28541.000000,4140.000000,53891.000000,50806.000000
28524.000000,4120.000000,53863.000000,50781.000000
28502.000000,4100.000000,53825.000000,50749.000000
28476.000000,4078.000000,53780.000000,50716.000000
28440.000000,4043.000000,53722.000000,50674.000000
28391.000000,3994.000000,53644.000000,50618.000000
28330.000000,3936.000000,53549.000000,50550.000000
28257.000000,3867.000000,53440.000000,50471.000000
28175.000000,3786.000000,53315.000000,50385.000000
28091.000000,3701.000000,53180.000000,50298.000000
28008.000000,3617.000000,53040.000000,50213.000000
27916.000000,3530.000000,52891.000000,50127.000000
27810.000000,3430.000000,52727.000000,50023.000000
27696.000000,3321.000000,52551.000000,49901.000000
27583.000000,3214.000000,52376.000000,49776.000000
27470.000000,3107.000000,52204.000000,49652.000000
27352.000000,2997.000000,52027.000000,49525.000000
27236.000000,2887.000000,51851.000000,49401.000000
27129.000000,2785.000000,51679.000000,49279.000000
27023.000000,2684.000000,51507.000000,49152.000000
26919.000000,2580.000000,51329.000000,49023.000000
26821.000000,2479.000000,51154.000000,48905.000000
26733.000000,2390.000000,50993.000000,48798.000000
26646.000000,2307.000000,50842.000000,48694.000000
26558.000000,2222.000000,50694.000000,48587.000000
26474.000000,2142.000000,50557.000000,48490.000000
26396.000000,2069.000000,50433.000000,48411.000000
26321.000000,1996.000000,50313.000000,48342.000000
26246.000000,1925.000000,50194.000000,48269.000000
26176.000000,1857.000000,50079.000000,48191.000000
26111.000000,1797.000000,49976.000000,48117.000000
26050.000000,1742.000000,49878.000000,48047.000000
25994.000000,1685.000000,49782.000000,47977.000000
25945.000000,1632.000000,49695.000000,47914.000000
25901.000000,1589.000000,49621.000000,47859.000000
25855.000000,1552.000000,49554.000000,47807.000000
25809.000000,1516.000000,49489.000000,47760.000000
25768.000000,1485.000000,49431.000000,47725.000000
25731.000000,1456.000000,49381.000000,47695.000000
25692.000000,1422.000000,49328.000000,47656.000000
25652.000000,1384.000000,49271.000000,47605.000000
25618.000000,1348.000000,49217.000000,47556.000000
25586.000000,1318.000000,49168.000000,47518.000000
25554.000000,1289.000000,49117.000000,47483.000000
25521.000000,1261.000000,49060.000000,47451.000000
25489.000000,1236.000000,49004.000000,47423.000000
25455.000000,1214.000000,48952.000000,47401.000000
25420.000000,1191.000000,48900.000000,47375.000000
25387.000000,1168.000000,48851.000000,47343.000000
25359.000000,1149.000000,48808.000000,47316.000000
25330.000000,1132.000000,48768.000000,47297.000000
25294.000000,1106.000000,48725.000000,47272.000000
25255.000000,1075.000000,48680.000000,47242.000000
25225.000000,1051.000000,48640.000000,47218.000000
25210.000000,1034.000000,48605.000000,47204.000000
25201.000000,1018.000000,48577.000000,47189.000000
25192.000000,1004.000000,48556.000000,47175.000000
25187.000000,996.000000,48545.000000,47166.000000
25184.000000,993.000000,48539.000000,47157.000000
25179.000000,988.000000,48531.000000,47147.000000
25175.000000,985.000000,48523.000000,47139.000000
25175.000000,989.000000,48515.000000,47136.000000
25175.000000,993.000000,48502.000000,47134.000000
25172.000000,991.000000,48484.000000,47124.000000
25167.000000,986.000000,48466.000000,47110.000000
25158.000000,979.000000,48452.000000,47104.000000
25137.000000,963.000000,48436.000000,47101.000000
25106.000000,933.000000,48409.000000,47087.000000
25075.000000,899.000000,48377.000000,47067.000000
25052.000000,872.000000,48351.000000,47047.000000
25032.000000,851.000000,48325.000000,47022.000000
25014.000000,832.000000,48295.000000,46994.000000
25004.000000,817.000000,48264.000000,46971.000000
24998.000000,807.000000,48237.000000,46958.000000
24988.000000,796.000000,48210.000000,46940.000000
24973.000000,782.000000,48181.000000,46915.000000
24961.000000,771.000000,48152.000000,46898.000000
24950.000000,766.000000,48125.000000,46888.000000
24936.000000,760.000000,48095.000000,46871.000000
24916.000000,750.000000,48060.000000,46842.000000
24897.000000,741.000000,48026.000000,46814.000000
24879.000000,735.000000,47997.000000,46794.000000
24858.000000,723.000000,47964.000000,46778.000000
24833.000000,704.000000,47928.000000,46760.000000
24811.000000,687.000000,47896.000000,46744.000000
24795.000000,676.000000,47872.000000,46731.000000
24781.000000,664.000000,47849.000000,46715.000000
24767.000000,652.000000,47827.000000,46695.000000
24756.000000,642.000000,47808.000000,46679.000000
24745.000000,633.000000,47791.000000,46664.000000
24733.000000,621.000000,47769.000000,46641.000000
24724.000000,607.000000,47748.000000,46616.000000
24717.000000,596.000000,47730.000000,46601.000000
24707.000000,585.000000,47713.000000,46590.000000
24693.000000,571.000000,47692.000000,46576.000000
24680.000000,560.000000,47674.000000,46561.000000
24673.000000,555.000000,47662.000000,46558.000000
24666.000000,551.000000,47651.000000,46564.000000
24653.000000,543.000000,47632.000000,46565.000000
24640.000000,531.000000,47610.000000,46560.000000
24633.000000,525.000000,47595.000000,46560.000000
24626.000000,525.000000,47586.000000,46559.000000
24620.000000,526.000000,47576.000000,46550.000000
24619.000000,529.000000,47564.000000,46539.000000
24623.000000,539.000000,47556.000000,46534.000000
24622.000000,549.000000,47549.000000,46529.000000
24614.000000,552.000000,47539.000000,46518.000000
24609.000000,551.000000,47528.000000,46506.000000
24609.000000,553.000000,47523.000000,46497.000000
24607.000000,553.000000,47517.000000,46483.000000
24598.000000,545.000000,47511.000000,46465.000000
24593.000000,539.000000,47511.000000,46453.000000
24594.000000,539.000000,47517.000000,46457.000000
24592.000000,538.000000,47521.000000,46468.000000
24587.000000,532.000000,47519.000000,46475.000000
24590.000000,531.000000,47518.000000,46477.000000
24599.000000,537.000000,47522.000000,46481.000000
24607.000000,547.000000,47523.000000,46483.000000
24610.000000,554.000000,47513.000000,46476.000000
24615.000000,562.000000,47498.000000,46465.000000
24617.000000,574.000000,47485.000000,46462.000000
24612.000000,581.000000,47471.000000,46461.000000
24603.000000,578.000000,47454.000000,46453.000000
24596.000000,570.000000,47439.000000,46442.000000
24589.000000,560.000000,47427.000000,46433.000000
24578.000000,545.000000,47415.000000,46420.000000
24563.000000,527.000000,47402.000000,46399.000000
24550.000000,512.000000,47393.000000,46380.000000
24538.000000,498.000000,47381.000000,46367.000000
24520.000000,482.000000,47361.000000,46353.000000
24500.000000,465.000000,47338.000000,46338.000000
24488.000000,452.000000,47321.000000,46330.000000
24485.000000,445.000000,47313.000000,46333.000000
24486.000000,441.000000,47312.000000,46338.000000
24492.000000,445.000000,47322.000000,46345.000000
24512.000000,465.000000,47359.000000,46364.000000
24555.000000,510.000000,47439.000000,46403.000000
24626.000000,586.000000,47571.000000,46474.000000
24744.000000,708.000000,47776.000000,46598.000000
24921.000000,890.000000,48081.000000,46794.000000
25157.000000,1131.000000,48493.000000,47069.000000
25445.000000,1423.000000,49003.000000,47419.000000
25784.000000,1759.000000,49598.000000,47838.000000
26165.000000,2128.000000,50259.000000,48313.000000
26569.000000,2511.000000,50959.000000,48821.000000
26972.000000,2887.000000,51660.000000,49327.000000
27363.000000,3245.000000,52334.000000,49812.000000
27731.000000,3581.000000,52961.000000,50267.000000
28059.000000,3880.000000,53515.000000,50682.000000
28332.000000,4123.000000,53975.000000,51034.000000
28549.000000,4312.000000,54337.000000,51317.000000
28713.000000,4454.000000,54608.000000,51537.000000
28824.000000,4554.000000,54795.000000,51688.000000
28891.000000,4618.000000,54906.000000,51776.000000
28928.000000,4651.000000,54952.000000,51820.000000
28937.000000,4658.000000,54949.000000,51826.000000
28915.000000,4639.000000,54903.000000,51795.000000
28865.000000,4595.000000,54818.000000,51728.000000
28800.000000,4536.000000,54704.000000,51640.000000
28723.000000,4462.000000,54568.000000,51540.000000
28631.000000,4371.000000,54409.000000,51422.000000
28528.000000,4267.000000,54227.000000,51281.000000
28420.000000,4160.000000,54035.000000,51129.000000
28315.000000,4059.000000,53846.000000,50990.000000
28211.000000,3959.000000,53656.000000,50859.000000
28107.000000,3856.000000,53467.000000,50722.000000
28008.000000,3755.000000,53288.000000,50586.000000
27917.000000,3664.000000,53124.000000,50457.000000
27827.000000,3581.000000,52972.000000,50333.000000
27741.000000,3500.000000,52828.000000,50218.000000
27666.000000,3428.000000,52696.000000,50120.000000
27602.000000,3367.000000,52580.000000,50038.000000
27546.000000,3314.000000,52481.000000,49963.000000
27500.000000,3268.000000,52395.000000,49893.000000
27466.000000,3233.000000,52323.000000,49839.000000
27435.000000,3208.000000,52266.000000,49804.000000
27407.000000,3188.000000,52219.000000,49778.000000
27390.000000,3178.000000,52184.000000,49761.000000
27389.000000,3183.000000,52170.000000,49760.000000
27399.000000,3199.000000,52174.000000,49772.000000
27410.000000,3217.000000,52183.000000,49780.000000
27421.000000,3233.000000,52195.000000,49783.000000
27433.000000,3249.000000,52212.000000,49792.000000
27441.000000,3259.000000,52224.000000,49799.000000
27438.000000,3256.000000,52218.000000,49792.000000
27424.000000,3243.000000,52194.000000,49770.000000
27400.000000,3227.000000,52158.000000,49742.000000
27369.000000,3204.000000,52110.000000,49708.000000
27329.000000,3171.000000,52052.000000,49666.000000
27292.000000,3138.000000,51992.000000,49621.000000
27262.000000,3110.000000,51937.000000,49574.000000
27234.000000,3085.000000,51888.000000,49526.000000
27203.000000,3059.000000,51841.000000,49478.000000
27178.000000,3038.000000,51803.000000,49439.000000
27167.000000,3030.000000,51781.000000,49420.000000
27162.000000,3028.000000,51770.000000,49417.000000
27159.000000,3029.000000,51769.000000,49414.000000
27168.000000,3035.000000,51783.000000,49415.000000
27190.000000,3052.000000,51812.000000,49430.000000
27219.000000,3076.000000,51850.000000,49454.000000
27250.000000,3104.000000,51896.000000,49483.000000
27286.000000,3137.000000,51950.000000,49523.000000
27327.000000,3180.000000,52015.000000,49575.000000
27368.000000,3228.000000,52090.000000,49630.000000
27411.000000,3276.000000,52169.000000,49685.000000
27460.000000,3327.000000,52249.000000,49742.000000
27508.000000,3380.000000,52324.000000,49801.000000
27546.000000,3424.000000,52388.000000,49849.000000
27572.000000,3452.000000,52435.000000,49879.000000
27593.000000,3472.000000,52472.000000,49903.000000
27609.000000,3486.000000,52499.000000,49924.000000
27614.000000,3488.000000,52505.000000,49931.000000
27608.000000,3478.000000,52491.000000,49917.000000
27597.000000,3462.000000,52465.000000,49891.000000
27576.000000,3441.000000,52429.000000,49858.000000
27540.000000,3408.000000,52376.000000,49815.000000
27493.000000,3363.000000,52304.000000,49759.000000
27445.000000,3318.000000,52223.000000,49700.000000
27399.000000,3276.000000,52139.000000,49640.000000
27348.000000,3229.000000,52049.000000,49572.000000
27293.000000,3181.000000,51953.000000,49501.000000
27237.000000,3136.000000,51853.000000,49430.000000
27179.000000,3088.000000,51751.000000,49356.000000
27113.000000,3031.000000,51641.000000,49277.000000
27048.000000,2971.000000,51529.000000,49198.000000
26990.000000,2914.000000,51418.000000,49125.000000
26940.000000,2857.000000,51306.000000,49057.000000
26887.000000,2792.000000,51188.000000,48982.000000
26830.000000,2725.000000,51068.000000,48901.000000
26771.000000,2663.000000,50951.000000,48829.000000
26706.000000,2603.000000,50837.000000,48765.000000
26635.000000,2538.000000,50724.000000,48691.000000
26564.000000,2474.000000,50615.000000,48606.000000
26501.000000,2416.000000,50515.000000,48530.000000
26442.000000,2360.000000,50419.000000,48463.000000
26387.000000,2302.000000,50321.000000,48392.000000
26339.000000,2248.000000,50224.000000,48320.000000
26295.000000,2203.000000,50134.000000,48251.000000
26250.000000,2159.000000,50052.000000,48185.000000
26202.000000,2111.000000,49972.000000,48123.000000
26156.000000,2066.000000,49897.000000,48074.000000
26114.000000,2028.000000,49830.000000,48037.000000
26070.000000,1992.000000,49764.000000,48001.000000
26025.000000,1954.000000,49699.000000,47959.000000
25987.000000,1921.000000,49638.000000,47917.000000
25956.000000,1893.000000,49582.000000,47882.000000
25927.000000,1865.000000,49526.000000,47843.000000
25895.000000,1834.000000,49470.000000,47797.000000
25862.000000,1806.000000,49418.000000,47754.000000
25831.000000,1786.000000,49374.000000,47720.000000
25803.000000,1768.000000,49335.000000,47686.000000
25779.000000,1747.000000,49295.000000,47649.000000
25761.000000,1729.000000,49261.000000,47617.000000
25745.000000,1714.000000,49233.000000,47597.000000
25726.000000,1695.000000,49202.000000,47574.000000
25704.000000,1670.000000,49166.000000,47546.000000
25683.000000,1643.000000,49130.000000,47519.000000
25659.000000,1618.000000,49098.000000,47495.000000
25628.000000,1591.000000,49066.000000,47466.000000
25596.000000,1565.000000,49032.000000,47439.000000
25574.000000,1546.000000,49003.000000,47423.000000
25558.000000,1534.000000,48981.000000,47414.000000
25541.000000,1520.000000,48957.000000,47398.000000
25525.000000,1508.000000,48932.000000,47378.000000
25513.000000,1503.000000,48912.000000,47358.000000
25499.000000,1497.000000,48892.000000,47341.000000
25481.000000,1485.000000,48865.000000,47319.000000
25466.000000,1468.000000,48836.000000,47291.000000
25458.000000,1453.000000,48814.000000,47270.000000
25453.000000,1443.000000,48796.000000,47260.000000
25442.000000,1431.000000,48774.000000,47251.000000
25428.000000,1419.000000,48749.000000,47242.000000
25416.000000,1411.000000,48728.000000,47237.000000
25402.000000,1403.000000,48706.000000,47231.000000
25384.000000,1387.000000,48678.000000,47217.000000
25366.000000,1368.000000,48645.000000,47199.000000
25348.000000,1348.000000,48616.000000,47182.000000
25325.000000,1329.000000,48587.000000,47160.000000
25297.000000,1307.000000,48556.000000,47132.000000
25274.000000,1288.000000,48524.000000,47111.000000
25258.000000,1272.000000,48497.000000,47098.000000
25243.000000,1255.000000,48472.000000,47081.000000
25226.000000,1234.000000,48443.000000,47053.000000
25211.000000,1217.000000,48414.000000,47027.000000
25198.000000,1204.000000,48391.000000,47012.000000
25186.000000,1188.000000,48369.000000,46999.000000
25174.000000,1171.000000,48343.000000,46977.000000
25165.000000,1158.000000,48319.000000,46950.000000
25162.000000,1155.000000,48303.000000,46932.000000
25160.000000,1156.000000,48290.000000,46919.000000
25156.000000,1156.000000,48271.000000,46905.000000
25153.000000,1156.000000,48252.000000,46891.000000
25153.000000,1159.000000,48242.000000,46879.000000
25150.000000,1160.000000,48237.000000,46871.000000
25143.000000,1157.000000,48232.000000,46868.000000
25138.000000,1153.000000,48227.000000,46870.000000
25136.000000,1152.000000,48222.000000,46870.000000
25132.000000,1150.000000,48211.000000,46861.000000
25123.000000,1146.000000,48194.000000,46844.000000
25114.000000,1144.000000,48178.000000,46826.000000
25104.000000,1143.000000,48165.000000,46807.000000
25086.000000,1133.000000,48146.000000,46781.000000
25066.000000,1115.000000,48115.000000,46752.000000
25048.000000,1101.000000,48081.000000,46735.000000
25029.000000,1087.000000,48047.000000,46727.000000
25008.000000,1069.000000,48014.000000,46713.000000
24989.000000,1052.000000,47985.000000,46692.000000
24978.000000,1045.000000,47968.000000,46677.000000
24971.000000,1044.000000,47957.000000,46669.000000
24960.000000,1038.000000,47941.000000,46659.000000
24946.000000,1026.000000,47916.000000,46646.000000
24937.000000,1014.000000,47893.000000,46639.000000
24929.000000,996.000000,47873.000000,46630.000000
24915.000000,969.000000,47845.000000,46612.000000
24898.000000,941.000000,47814.000000,46592.000000
24887.000000,921.000000,47791.000000,46582.000000
24878.000000,910.000000,47773.000000,46581.000000
24863.000000,904.000000,47755.000000,46580.000000
24848.000000,901.000000,47740.000000,46579.000000
24840.000000,902.000000,47736.000000,46582.000000
24837.000000,904.000000,47743.000000,46583.000000
24841.000000,912.000000,47765.000000,46583.000000
24864.000000,941.000000,47815.000000,46600.000000
24916.000000,1001.000000,47910.000000,46654.000000
25003.000000,1093.000000,48059.000000,46745.000000
25130.000000,1220.000000,48271.000000,46874.000000
25309.000000,1398.000000,48573.000000,47062.000000
25551.000000,1637.000000,48984.000000,47331.000000
25851.000000,1931.000000,49495.000000,47679.000000
26199.000000,2266.000000,50087.000000,48089.000000
26590.000000,2637.000000,50741.000000,48554.000000
27010.000000,3034.000000,51441.000000,49061.000000
27434.000000,3430.000000,52151.000000,49582.000000
27847.000000,3810.000000,52840.000000,50087.000000
28235.000000,4168.000000,53484.000000,50561.000000
28587.000000,4494.000000,54063.000000,50993.000000
28888.000000,4774.000000,54554.000000,51366.000000
29134.000000,5003.000000,54952.000000,51670.000000
29332.000000,5188.000000,55269.000000,51913.000000
29487.000000,5328.000000,55508.000000,52104.000000
29595.000000,5421.000000,55669.000000,52236.000000
29660.000000,5472.000000,55762.000000,52305.000000
29695.000000,5491.000000,55800.000000,52322.000000
29701.000000,5487.000000,55791.000000,52303.000000
29680.000000,5458.000000,55736.000000,52254.000000
29640.000000,5410.000000,55645.000000,52184.000000
29585.000000,5347.000000,55528.000000,52098.000000
29507.000000,5269.000000,55387.000000,51991.000000
29405.000000,5174.000000,55223.000000,51866.000000
29289.000000,5066.000000,55044.000000,51733.000000
29173.000000,4955.000000,54858.000000,51602.000000
29057.000000,4840.000000,54665.000000,51474.000000
28934.000000,4720.000000,54466.000000,51341.000000
28809.000000,4601.000000,54266.000000,51201.000000
28692.000000,4491.000000,54076.000000,51064.000000
28579.000000,4390.000000,53898.000000,50936.000000
28468.000000,4292.000000,53727.000000,50812.000000
28367.000000,4201.000000,53567.000000,50698.000000
28285.000000,4126.000000,53430.000000,50602.000000
28217.000000,4067.000000,53316.000000,50521.000000
28155.000000,4017.000000,53220.000000,50446.000000
28105.000000,3976.000000,53143.000000,50386.000000
28067.000000,3943.000000,53083.000000,50345.000000
28036.000000,3913.000000,53033.000000,50312.000000
28010.000000,3888.000000,52989.000000,50279.000000
27993.000000,3872.000000,52957.000000,50253.000000
27981.000000,3862.000000,52936.000000,50243.000000
27968.000000,3852.000000,52914.000000,50242.000000
27953.000000,3837.000000,52885.000000,50231.000000
27937.000000,3821.000000,52851.000000,50206.000000
27918.000000,3804.000000,52818.000000,50175.000000
27885.000000,3780.000000,52773.000000,50137.000000
27839.000000,3745.000000,52710.000000,50087.000000
27793.000000,3706.000000,52636.000000,50031.000000
27747.000000,3667.000000,52562.000000,49972.000000
27701.000000,3627.000000,52488.000000,49907.000000
27658.000000,3584.000000,52411.000000,49838.000000
27627.000000,3546.000000,52341.000000,49776.000000
27603.000000,3516.000000,52286.000000,49725.000000
27578.000000,3490.000000,52241.000000,49681.000000
27558.000000,3471.000000,52207.000000,49646.000000
27550.000000,3467.000000,52194.000000,49632.000000
27554.000000,3474.000000,52202.000000,49642.000000
27564.000000,3483.000000,52220.000000,49662.000000
27579.000000,3491.000000,52244.000000,49681.000000
27603.000000,3504.000000,52279.000000,49708.000000
27631.000000,3521.000000,52325.000000,49745.000000
27658.000000,3541.000000,52374.000000,49789.000000
27687.000000,3566.000000,52425.000000,49838.000000
27722.000000,3598.000000,52484.000000,49888.000000
27755.000000,3632.000000,52546.000000,49929.000000
27779.000000,3659.000000,52599.000000,49958.000000
27804.000000,3684.000000,52646.000000,49980.000000
27835.000000,3711.000000,52695.000000,50011.000000
27864.000000,3740.000000,52741.000000,50046.000000
27887.000000,3764.000000,52775.000000,50072.000000
27905.000000,3784.000000,52797.000000,50087.000000
27919.000000,3802.000000,52815.000000,50098.000000
27927.000000,3814.000000,52825.000000,50104.000000
27926.000000,3813.000000,52819.000000,50104.000000
27919.000000,3804.000000,52798.000000,50094.000000
27908.000000,3790.000000,52766.000000,50073.000000
27888.000000,3766.000000,52720.000000,50035.000000
27854.000000,3729.000000,52658.000000,49981.000000
27810.000000,3685.000000,52583.000000,49922.000000
27761.000000,3640.000000,52497.000000,49867.000000
27702.000000,3588.000000,52398.000000,49805.000000
27633.000000,3527.000000,52285.000000,49727.000000
27563.000000,3466.000000,52167.000000,49637.000000
27498.000000,3409.000000,52052.000000,49552.000000
27431.000000,3349.000000,51936.000000,49471.000000
27358.000000,3279.000000,51813.000000,49386.000000
27283.000000,3204.000000,51685.000000,49292.000000
27211.000000,3132.000000,51558.000000,49200.000000
27135.000000,3060.000000,51431.000000,49108.000000
27057.000000,2988.000000,51304.000000,49012.000000
26981.000000,2918.000000,51181.000000,48912.000000
26906.000000,2849.000000,51062.000000,48814.000000
26830.000000,2777.000000,50942.000000,48715.000000
26756.000000,2703.000000,50816.000000,48618.000000
26690.000000,2636.000000,50693.000000,48534.000000
26631.000000,2577.000000,50582.000000,48464.000000
26569.000000,2517.000000,50476.000000,48395.000000
26507.000000,2455.000000,50372.000000,48320.000000
26455.000000,2402.000000,50279.000000,48252.000000
26408.000000,2357.000000,50197.000000,48193.000000
26356.000000,2309.000000,50115.000000,48137.000000
26300.000000,2253.000000,50030.000000,48078.000000
26246.000000,2199.000000,49950.000000,48027.000000
26195.000000,2151.000000,49876.000000,47987.000000
26145.000000,2101.000000,49805.000000,47945.000000
26100.000000,2051.000000,49737.000000,47898.000000
26062.000000,2009.000000,49675.000000,47859.000000
26027.000000,1971.000000,49612.000000,47820.000000
25990.000000,1934.000000,49542.000000,47768.000000
25956.000000,1901.000000,49469.000000,47710.000000
25932.000000,1880.000000,49407.000000,47664.000000
25916.000000,1868.000000,49359.000000,47630.000000
25898.000000,1853.000000,49315.000000,47592.000000
25879.000000,1836.000000,49276.000000,47550.000000
25863.000000,1827.000000,49245.000000,47514.000000
25850.000000,1823.000000,49219.000000,47485.000000
25835.000000,1815.000000,49190.000000,47458.000000
25823.000000,1807.000000,49162.000000,47438.000000
25814.000000,1802.000000,49138.000000,47427.000000
25801.000000,1793.000000,49115.000000,47415.000000
25783.000000,1779.000000,49087.000000,47395.000000
25765.000000,1763.000000,49059.000000,47374.000000
25750.000000,1753.000000,49038.000000,47357.000000
25736.000000,1743.000000,49022.000000,47342.000000
25716.000000,1726.000000,49001.000000,47321.000000
25694.000000,1707.000000,48978.000000,47297.000000
25674.000000,1688.000000,48956.000000,47277.000000
25651.000000,1664.000000,48928.000000,47261.000000
25622.000000,1634.000000,48894.000000,47250.000000
25595.000000,1605.000000,48854.000000,47241.000000
25572.000000,1580.000000,48815.000000,47230.000000
25547.000000,1555.000000,48777.000000,47210.000000
25518.000000,1529.000000,48739.000000,47180.000000
25490.000000,1504.000000,48702.000000,47150.000000
25463.000000,1480.000000,48666.000000,47123.000000
25432.000000,1453.000000,48623.000000,47091.000000
25400.000000,1422.000000,48575.000000,47054.000000
25374.000000,1395.000000,48533.000000,47026.000000
25355.000000,1376.000000,48501.000000,47016.000000
25336.000000,1360.000000,48474.000000,47009.000000
25316.000000,1341.000000,48446.000000,46990.000000
25300.000000,1324.000000,48420.000000,46968.000000
25288.000000,1308.000000,48398.000000,46949.000000
25275.000000,1291.000000,48376.000000,46928.000000
25262.000000,1276.000000,48350.000000,46908.000000
25254.000000,1266.000000,48326.000000,46896.000000
25248.000000,1260.000000,48306.000000,46888.000000
25237.000000,1249.000000,48283.000000,46872.000000
25224.000000,1235.000000,48258.000000,46852.000000
25214.000000,1222.000000,48235.000000,46838.000000
25204.000000,1211.000000,48212.000000,46830.000000
25191.000000,1197.000000,48187.000000,46818.000000
25181.000000,1187.000000,48164.000000,46805.000000
25176.000000,1184.000000,48147.000000,46797.000000
25171.000000,1183.000000,48135.000000,46791.000000
25162.000000,1177.000000,48117.000000,46778.000000
25149.000000,1167.000000,48096.000000,46762.000000
25137.000000,1161.000000,48077.000000,46748.000000
25125.000000,1157.000000,48060.000000,46734.000000
25106.000000,1149.000000,48037.000000,46716.000000
25086.000000,1138.000000,48010.000000,46698.000000
25066.000000,1128.000000,47984.000000,46688.000000
25041.000000,1115.000000,47957.000000,46678.000000
25011.000000,1096.000000,47926.000000,46661.000000
24982.000000,1075.000000,47894.000000,46642.000000
24957.000000,1054.000000,47866.000000,46628.000000
24933.000000,1029.000000,47838.000000,46614.000000
24904.000000,994.000000,47804.000000,46593.000000
24875.000000,958.000000,47769.000000,46569.000000
24849.000000,929.000000,47738.000000,46547.000000
24825.000000,904.000000,47708.000000,46523.000000
24804.000000,882.000000,47682.000000,46496.000000
24794.000000,870.000000,47666.000000,46481.000000
24792.000000,866.000000,47662.000000,46479.000000
24792.000000,865.000000,47660.000000,46476.000000
24789.000000,861.000000,47652.000000,46466.000000
24785.000000,859.000000,47641.000000,46454.000000
24780.000000,860.000000,47630.000000,46449.000000
24770.000000,856.000000,47617.000000,46448.000000
24755.000000,848.000000,47599.000000,46447.000000
24742.000000,842.000000,47584.000000,46445.000000
24734.000000,840.000000,47573.000000,46440.000000
24725.000000,833.000000,47560.000000,46430.000000
24712.000000,821.000000,47541.000000,46417.000000
24698.000000,808.000000,47521.000000,46406.000000
24682.000000,795.000000,47503.000000,46398.000000
24662.000000,778.000000,47481.000000,46384.000000
24642.000000,759.000000,47455.000000,46364.000000
24631.000000,747.000000,47434.000000,46349.000000
24628.000000,744.000000,47419.000000,46336.000000
24626.000000,742.000000,47405.000000,46322.000000
24627.000000,739.000000,47391.000000,46309.000000
24630.000000,740.000000,47385.000000,46309.000000
24632.000000,739.000000,47382.000000,46316.000000
24625.000000,732.000000,47378.000000,46318.000000
24615.000000,721.000000,47373.000000,46319.000000
24608.000000,713.000000,47370.000000,46332.000000
24603.000000,708.000000,47365.000000,46350.000000
24591.000000,700.000000,47355.000000,46360.000000
24580.000000,689.000000,47344.000000,46362.000000
24575.000000,685.000000,47338.000000,46364.000000
24573.000000,688.000000,47338.000000,46366.000000
24575.000000,699.000000,47343.000000,46373.000000
24595.000000,726.000000,47370.000000,46397.000000
24644.000000,779.000000,47444.000000,46442.000000
24727.000000,858.000000,47578.000000,46512.000000
24850.000000,970.000000,47776.000000,46622.000000
25020.000000,1130.000000,48058.000000,46796.000000
25242.000000,1349.000000,48445.000000,47049.000000
25510.000000,1621.000000,48930.000000,47376.000000
25820.000000,1931.000000,49492.000000,47761.000000
26165.000000,2270.000000,50110.000000,48190.000000
26536.000000,2633.000000,50762.000000,48648.000000
26912.000000,2998.000000,51424.000000,49118.000000
27279.000000,3352.000000,52071.000000,49580.000000
27630.000000,3683.000000,52684.000000,50025.000000
27958.000000,3984.000000,53246.000000,50444.000000
28247.000000,4247.000000,53735.000000,50810.000000
28489.000000,4467.000000,54136.000000,51107.000000
28690.000000,4647.000000,54451.000000,51341.000000
28845.000000,4789.000000,54685.000000,51517.000000
28949.000000,4885.000000,54840.000000,51637.000000
29006.000000,4937.000000,54926.000000,51706.000000
29033.000000,4958.000000,54957.000000,51735.000000
29036.000000,4955.000000,54942.000000,51734.000000
29013.000000,4926.000000,54882.000000,51703.000000
28969.000000,4873.000000,54788.000000,51641.000000
28915.000000,4807.000000,54670.000000,51560.000000
28851.000000,4736.000000,54536.000000,51469.000000
28771.000000,4658.000000,54385.000000,51363.000000
28680.000000,4573.000000,54219.000000,51243.000000
28585.000000,4484.000000,54045.000000,51118.000000
28487.000000,4390.000000,53870.000000,50995.000000
28380.000000,4288.000000,53692.000000,50871.000000
28269.000000,4184.000000,53510.000000,50742.000000
28160.000000,4084.000000,53334.000000,50616.000000
28055.000000,3989.000000,53168.000000,50495.000000
27952.000000,3896.000000,53007.000000,50376.000000
27856.000000,3811.000000,52856.000000,50263.000000
27775.000000,3737.000000,52723.000000,50163.000000
27707.000000,3672.000000,52608.000000,50079.000000
27654.000000,3616.000000,52509.000000,50007.000000
27621.000000,3578.000000,52435.000000,49952.000000
27608.000000,3569.000000,52393.000000,49918.000000
27608.000000,3582.000000,52377.000000,49909.000000
27614.000000,3603.000000,52382.000000,49911.000000
27627.000000,3632.000000,52404.000000,49923.000000
27650.000000,3667.000000,52439.000000,49953.000000
27680.000000,3697.000000,52473.000000,49993.000000
27708.000000,3717.000000,52501.000000,50028.000000
27734.000000,3731.000000,52522.000000,50049.000000
27755.000000,3742.000000,52541.000000,50057.000000
27763.000000,3743.000000,52549.000000,50051.000000
27756.000000,3729.000000,52538.000000,50029.000000
27741.000000,3704.000000,52511.000000,49999.000000
27718.000000,3672.000000,52471.000000,49965.000000
27683.000000,3635.000000,52418.000000,49919.000000
27640.000000,3589.000000,52350.000000,49865.000000
27599.000000,3542.000000,52279.000000,49816.000000
27561.000000,3501.000000,52213.000000,49776.000000
27524.000000,3467.000000,52153.000000,49739.000000
27487.000000,3439.000000,52099.000000,49700.000000
27458.000000,3420.000000,52055.000000,49668.000000
27441.000000,3408.000000,52024.000000,49647.000000
27427.000000,3397.000000,51999.000000,49631.000000
27415.000000,3384.000000,51979.000000,49617.000000
27411.000000,3376.000000,51969.000000,49610.000000
27415.000000,3377.000000,51971.000000,49614.000000
27416.000000,3380.000000,51977.000000,49622.000000
27413.000000,3380.000000,51984.000000,49632.000000
27411.000000,3382.000000,51993.000000,49645.000000
27409.000000,3386.000000,52003.000000,49655.000000
27404.000000,3388.000000,52012.000000,49655.000000
27402.000000,3389.000000,52022.000000,49650.000000
27407.000000,3393.000000,52037.000000,49649.000000
27411.000000,3399.000000,52052.000000,49652.000000
27406.000000,3399.000000,52058.000000,49646.000000
27394.000000,3392.000000,52056.000000,49630.000000
27379.000000,3381.000000,52046.000000,49614.000000
27357.000000,3363.000000,52025.000000,49598.000000
27324.000000,3333.000000,51990.000000,49569.000000
27281.000000,3292.000000,51943.000000,49530.000000
27239.000000,3249.000000,51889.000000,49494.000000
27197.000000,3203.000000,51826.000000,49461.000000
27151.000000,3150.000000,51746.000000,49419.000000
27104.000000,3095.000000,51653.000000,49368.000000
27062.000000,3045.000000,51558.000000,49313.000000
27017.000000,2999.000000,51464.000000,49253.000000
26962.000000,2948.000000,51366.000000,49185.000000
26902.000000,2894.000000,51260.000000,49110.000000
26842.000000,2839.000000,51151.000000,49033.000000
26780.000000,2781.000000,51038.000000,48950.000000
26712.000000,2718.000000,50920.000000,48863.000000
26645.000000,2654.000000,50803.000000,48782.000000
26578.000000,2595.000000,50689.000000,48709.000000
26508.000000,2534.000000,50573.000000,48639.000000
26436.000000,2469.000000,50449.000000,48563.000000
26368.000000,2405.000000,50328.000000,48481.000000
26306.000000,2347.000000,50218.000000,48406.000000
26245.000000,2293.000000,50114.000000,48339.000000
26185.000000,2239.000000,50014.000000,48272.000000
26129.000000,2190.000000,49921.000000,48209.000000
26080.000000,2146.000000,49841.000000,48157.000000
26036.000000,2104.000000,49768.000000,48112.000000
25994.000000,2061.000000,49698.000000,48065.000000
25958.000000,2023.000000,49633.000000,48019.000000
25926.000000,1994.000000,49571.000000,47977.000000
25896.000000,1969.000000,49510.000000,47935.000000
25873.000000,1947.000000,49451.000000,47891.000000
25862.000000,1929.000000,49401.000000,47857.000000
25855.000000,1915.000000,49358.000000,47834.000000
25843.000000,1896.000000,49314.000000,47807.000000
25824.000000,1872.000000,49267.000000,47772.000000
25805.000000,1848.000000,49223.000000,47742.000000
25784.000000,1824.000000,49180.000000,47722.000000
25757.000000,1797.000000,49134.000000,47698.000000
25728.000000,1769.000000,49084.000000,47668.000000
25702.000000,1746.000000,49040.000000,47642.000000
25680.000000,1727.000000,49003.000000,47627.000000
25656.000000,1703.000000,48967.000000,47607.000000
25630.000000,1677.000000,48926.000000,47578.000000
25609.000000,1655.000000,48889.000000,47551.000000
25589.000000,1638.000000,48857.000000,47527.000000
25565.000000,1620.000000,48824.000000,47500.000000
25542.000000,1603.000000,48791.000000,47474.000000
25524.000000,1592.000000,48763.000000,47451.000000
25509.000000,1582.000000,48740.000000,47427.000000
25493.000000,1569.000000,48716.000000,47403.000000
25483.000000,1557.000000,48692.000000,47385.000000
25478.000000,1551.000000,48673.000000,47375.000000
25470.000000,1547.000000,48660.000000,47366.000000
25454.000000,1534.000000,48641.000000,47354.000000
25433.000000,1518.000000,48618.000000,47344.000000
25412.000000,1503.000000,48596.000000,47339.000000
25388.000000,1485.000000,48573.000000,47329.000000
25356.000000,1460.000000,48545.000000,47311.000000
25325.000000,1435.000000,48518.000000,47295.000000
25301.000000,1414.000000,48495.000000,47289.000000
25278.000000,1393.000000,48467.000000,47282.000000
25253.000000,1367.000000,48432.000000,47260.000000
25229.000000,1345.000000,48397.000000,47229.000000
25209.000000,1330.000000,48365.000000,47205.000000
25191.000000,1317.000000,48336.000000,47186.000000
25172.000000,1303.000000,48306.000000,47167.000000
25154.000000,1291.000000,48276.000000,47151.000000
25138.000000,1281.000000,48251.000000,47143.000000
25121.000000,1270.000000,48228.000000,47137.000000
25102.000000,1255.000000,48205.000000,47133.000000
25087.000000,1244.000000,48187.000000,47135.000000
25077.000000,1235.000000,48173.000000,47134.000000
25065.000000,1223.000000,48157.000000,47118.000000
25051.000000,1207.000000,48137.000000,47093.000000
25041.000000,1194.000000,48115.000000,47074.000000
25034.000000,1183.000000,48096.000000,47062.000000
25025.000000,1168.000000,48074.000000,47044.000000
25014.000000,1151.000000,48050.000000,47020.000000
25006.000000,1140.000000,48028.000000,47004.000000
24999.000000,1131.000000,48007.000000,47000.000000
24987.000000,1118.000000,47983.000000,46995.000000
24970.000000,1100.000000,47955.000000,46988.000000
24952.000000,1082.000000,47928.000000,46980.000000
24935.000000,1064.000000,47903.000000,46966.000000
24915.000000,1046.000000,47880.000000,46943.000000
24899.000000,1033.000000,47860.000000,46918.000000
24889.000000,1028.000000,47846.000000,46899.000000
24878.000000,1026.000000,47835.000000,46885.000000
24865.000000,1021.000000,47820.000000,46873.000000
24856.000000,1017.000000,47805.000000,46865.000000
24852.000000,1014.000000,47795.000000,46861.000000
24847.000000,1010.000000,47787.000000,46860.000000
24838.000000,1002.000000,47777.000000,46858.000000
24835.000000,999.000000,47764.000000,46863.000000
24842.000000,1004.000000,47756.000000,46875.000000
24849.000000,1008.000000,47751.000000,46880.000000
24850.000000,1006.000000,47741.000000,46870.000000
24851.000000,1005.000000,47729.000000,46855.000000
24856.000000,1009.000000,47724.000000,46845.000000
24857.000000,1015.000000,47720.000000,46842.000000
24852.000000,1017.000000,47711.000000,46841.000000
24847.000000,1016.000000,47702.000000,46843.000000
24845.000000,1014.000000,47697.000000,46845.000000
24839.000000,1009.000000,47690.000000,46841.000000
24828.000000,1000.000000,47678.000000,46832.000000
24816.000000,990.000000,47668.000000,46828.000000
24808.000000,984.000000,47664.000000,46828.000000
24803.000000,976.000000,47660.000000,46823.000000
24798.000000,967.000000,47650.000000,46810.000000
24795.000000,964.000000,47642.000000,46801.000000
24790.000000,964.000000,47636.000000,46798.000000
24779.000000,958.000000,47626.000000,46788.000000
24761.000000,944.000000,47610.000000,46766.000000
24747.000000,930.000000,47596.000000,46744.000000
24738.000000,923.000000,47585.000000,46733.000000
24727.000000,917.000000,47572.000000,46727.000000
24717.000000,910.000000,47557.000000,46722.000000
24715.000000,909.000000,47546.000000,46722.000000
24715.000000,912.000000,47540.000000,46728.000000
24712.000000,912.000000,47533.000000,46733.000000
24705.000000,906.000000,47521.000000,46732.000000
24699.000000,898.000000,47512.000000,46732.000000
24692.000000,891.000000,47503.000000,46731.000000
24682.000000,885.000000,47489.000000,46723.000000
24674.000000,880.000000,47473.000000,46713.000000
24673.000000,881.000000,47462.000000,46709.000000
24672.000000,881.000000,47455.000000,46709.000000
24663.000000,874.000000,47446.000000,46701.000000
24651.000000,860.000000,47433.000000,46687.000000
24640.000000,846.000000,47421.000000,46680.000000
24626.000000,830.000000,47407.000000,46677.000000
24606.000000,811.000000,47389.000000,46665.000000
24587.000000,791.000000,47374.000000,46644.000000
24574.000000,775.000000,47366.000000,46626.000000
24560.000000,762.000000,47362.000000,46614.000000
24539.000000,748.000000,47352.000000,46602.000000
24522.000000,740.000000,47340.000000,46596.000000
24516.000000,744.000000,47337.000000,46601.000000
24522.000000,758.000000,47343.000000,46611.000000
24540.000000,778.000000,47362.000000,46626.000000
24579.000000,812.000000,47407.000000,46660.000000
24645.000000,871.000000,47492.000000,46721.000000
24739.000000,961.000000,47626.000000,46806.000000
24862.000000,1085.000000,47821.000000,46922.000000
25024.000000,1249.000000,48092.000000,47090.000000
25235.000000,1460.000000,48449.000000,47323.000000
25486.000000,1709.000000,48885.000000,47616.000000
25767.000000,1989.000000,49387.000000,47957.000000
26078.000000,2296.000000,49940.000000,48332.000000
26408.000000,2621.000000,50526.000000,48736.000000
26744.000000,2948.000000,51121.000000,49153.000000
27071.000000,3263.000000,51701.000000,49561.000000
27384.000000,3559.000000,52250.000000,49947.000000
27673.000000,3828.000000,52749.000000,50305.000000
27926.000000,4059.000000,53182.000000,50622.000000
28135.000000,4248.000000,53538.000000,50892.000000
28303.000000,4397.000000,53822.000000,51113.000000
28430.000000,4508.000000,54034.000000,51283.000000
28512.000000,4577.000000,54172.000000,51396.000000
28550.000000,4603.000000,54239.000000,51448.000000
28556.000000,4599.000000,54244.000000,51453.000000
28533.000000,4569.000000,54195.000000,51423.000000
28481.000000,4515.000000,54100.000000,51356.000000
28404.000000,4442.000000,53966.000000,51262.000000
28313.000000,4360.000000,53806.000000,51152.000000
28213.000000,4270.000000,53627.000000,51028.000000
28100.000000,4170.000000,53432.000000,50885.000000
27980.000000,4060.000000,53226.000000,50726.000000
27863.000000,3947.000000,53020.000000,50567.000000
27747.000000,3834.000000,52817.000000,50415.000000
27631.000000,3720.000000,52614.000000,50271.000000
27518.000000,3609.000000,52414.000000,50138.000000
27410.000000,3509.000000,52226.000000,50017.000000
27305.000000,3415.000000,52050.000000,49899.000000
27202.000000,3321.000000,51882.000000,49783.000000
27106.000000,3233.000000,51726.000000,49676.000000
27024.000000,3155.000000,51586.000000,49586.000000
26951.000000,3087.000000,51458.000000,49510.000000
26885.000000,3023.000000,51339.000000,49438.000000
26830.000000,2965.000000,51235.000000,49368.000000
26789.000000,2921.000000,51152.000000,49311.000000
26758.000000,2887.000000,51089.000000,49270.000000
26727.000000,2856.000000,51038.000000,49239.000000
26705.000000,2832.000000,51003.000000,49215.000000
26695.000000,2824.000000,50985.000000,49198.000000
26688.000000,2826.000000,50976.000000,49183.000000
26680.000000,2831.000000,50966.000000,49167.000000
26678.000000,2837.000000,50952.000000,49155.000000
26677.000000,2843.000000,50935.000000,49145.000000
26669.000000,2844.000000,50914.000000,49123.000000
26652.000000,2833.000000,50882.000000,49084.000000
26630.000000,2815.000000,50842.000000,49042.000000
26606.000000,2794.000000,50798.000000,49008.000000
26576.000000,2766.000000,50746.000000,48974.000000
26541.000000,2733.000000,50685.000000,48935.000000
26506.000000,2702.000000,50627.000000,48899.000000
26476.000000,2678.000000,50582.000000,48869.000000
26451.000000,2658.000000,50546.000000,48843.000000
26433.000000,2639.000000,50518.000000,48822.000000
26425.000000,2625.000000,50504.000000,48813.000000
26427.000000,2621.000000,50505.000000,48816.000000
26434.000000,2624.000000,50518.000000,48826.000000
26448.000000,2634.000000,50540.000000,48841.000000
26475.000000,2660.000000,50578.000000,48867.000000
26515.000000,2703.000000,50636.000000,48904.000000
26565.000000,2753.000000,50703.000000,48947.000000
26622.000000,2807.000000,50774.000000,48996.000000
26681.000000,2864.000000,50852.000000,49055.000000
26734.000000,2917.000000,50933.000000,49118.000000
26782.000000,2963.000000,51008.000000,49174.000000
26833.000000,3006.000000,51080.000000,49225.000000
26890.000000,3055.000000,51155.000000,49280.000000
26944.000000,3106.000000,51231.000000,49336.000000
26988.000000,3149.000000,51296.000000,49380.000000
27023.000000,3181.000000,51347.000000,49414.000000
27054.000000,3211.000000,51388.000000,49443.000000
27078.000000,3235.000000,51418.000000,49466.000000
27086.000000,3244.000000,51430.000000,49474.000000
27079.000000,3238.000000,51425.000000,49466.000000
27066.000000,3227.000000,51412.000000,49452.000000
27049.000000,3210.000000,51388.000000,49428.000000
27022.000000,3184.000000,51347.000000,49389.000000
26987.000000,3152.000000,51290.000000,49341.000000
26949.000000,3117.000000,51223.000000,49292.000000
26901.000000,3074.000000,51143.000000,49234.000000
26845.000000,3025.000000,51050.000000,49165.000000
26791.000000,2976.000000,50954.000000,49095.000000
26741.000000,2928.000000,50861.000000,49037.000000
26690.000000,2878.000000,50769.000000,48988.000000
26637.000000,2825.000000,50674.000000,48930.000000
26587.000000,2774.000000,50584.000000,48866.000000
26543.000000,2731.000000,50499.000000,48808.000000
26501.000000,2692.000000,50415.000000,48752.000000
26458.000000,2649.000000,50325.000000,48692.000000
26416.000000,2607.000000,50233.000000,48632.000000
26377.000000,2568.000000,50146.000000,48578.000000
26334.000000,2527.000000,50062.000000,48522.000000
26288.000000,2483.000000,49978.000000,48461.000000
26243.000000,2443.000000,49900.000000,48403.000000
26202.000000,2409.000000,49834.000000,48350.000000
26161.000000,2375.000000,49771.000000,48299.000000
26119.000000,2336.000000,49706.000000,48251.000000
26079.000000,2300.000000,49643.000000,48207.000000
26040.000000,2268.000000,49585.000000,48160.000000
26003.000000,2236.000000,49530.000000,48106.000000
25971.000000,2204.000000,49478.000000,48057.000000
25945.000000,2176.000000,49434.000000,48021.000000
25920.000000,2151.000000,49396.000000,47990.000000
25896.000000,2126.000000,49356.000000,47956.000000
25873.000000,2104.000000,49312.000000,47922.000000
25856.000000,2086.000000,49269.000000,47894.000000
25840.000000,2067.000000,49226.000000,47870.000000
25817.000000,2042.000000,49180.000000,47841.000000
25792.000000,2016.000000,49135.000000,47807.000000
25768.000000,1991.000000,49093.000000,47781.000000
25742.000000,1965.000000,49055.000000,47765.000000
25711.000000,1935.000000,49016.000000,47744.000000
25682.000000,1908.000000,48977.000000,47712.000000
25660.000000,1889.000000,48943.000000,47686.000000
25642.000000,1873.000000,48913.000000,47670.000000
25626.000000,1855.000000,48883.000000,47650.000000
25612.000000,1840.000000,48854.000000,47626.000000
25604.000000,1832.000000,48834.000000,47611.000000
25598.000000,1825.000000,48821.000000,47604.000000
25589.000000,1814.000000,48809.000000,47596.000000
25579.000000,1804.000000,48797.000000,47589.000000
25576.000000,1801.000000,48790.000000,47584.000000
25573.000000,1802.000000,48785.000000,47573.000000
25565.000000,1802.000000,48776.000000,47560.000000
25558.000000,1801.000000,48765.000000,47553.000000
25555.000000,1803.000000,48756.000000,47554.000000
25551.000000,1802.000000,48744.000000,47552.000000
25541.000000,1792.000000,48724.000000,47545.000000
25531.000000,1780.000000,48704.000000,47538.000000
25521.000000,1768.000000,48689.000000,47533.000000
25504.000000,1751.000000,48670.000000,47521.000000
25481.000000,1729.000000,48642.000000,47502.000000
25458.000000,1711.000000,48614.000000,47487.000000
25438.000000,1698.000000,48592.000000,47483.000000
25417.000000,1680.000000,48569.000000,47478.000000
25397.000000,1657.000000,48544.000000,47467.000000
25386.000000,1640.000000,48524.000000,47457.000000
25384.000000,1633.000000,48510.000000,47452.000000
25382.000000,1629.000000,48496.000000,47439.000000
25377.000000,1624.000000,48481.000000,47418.000000
25376.000000,1621.000000,48472.000000,47399.000000
25379.000000,1622.000000,48467.000000,47386.000000
25378.000000,1619.000000,48460.000000,47375.000000
25374.000000,1612.000000,48447.000000,47364.000000
25372.000000,1606.000000,48437.000000,47359.000000
25369.000000,1605.000000,48430.000000,47358.000000
25362.000000,1600.000000,48423.000000,47352.000000
25354.000000,1595.000000,48416.000000,47343.000000
25351.000000,1594.000000,48412.000000,47336.000000
25349.000000,1595.000000,48408.000000,47322.000000
25343.000000,1591.000000,48396.000000,47299.000000
25337.000000,1583.000000,48376.000000,47280.000000
25333.000000,1576.000000,48355.000000,47272.000000
25323.000000,1568.000000,48332.000000,47267.000000
25305.000000,1557.000000,48305.000000,47260.000000
25288.000000,1546.000000,48281.000000,47250.000000
25281.000000,1542.000000,48263.000000,47242.000000
25279.000000,1540.000000,48251.000000,47231.000000
25276.000000,1538.000000,48238.000000,47213.000000
25272.000000,1537.000000,48223.000000,47192.000000
25272.000000,1540.000000,48212.000000,47178.000000
25271.000000,1542.000000,48202.000000,47168.000000
25263.000000,1537.000000,48189.000000,47158.000000
25253.000000,1527.000000,48173.000000,47155.000000
25245.000000,1519.000000,48159.000000,47160.000000
25239.000000,1510.000000,48147.000000,47163.000000
25227.000000,1496.000000,48131.000000,47157.000000
25212.000000,1481.000000,48111.000000,47150.000000
25201.000000,1470.000000,48094.000000,47146.000000
25190.000000,1461.000000,48076.000000,47141.000000
25179.000000,1448.000000,48055.000000,47131.000000
25173.000000,1437.000000,48034.000000,47122.000000
25167.000000,1430.000000,48017.000000,47118.000000
25160.000000,1423.000000,48004.000000,47114.000000
25150.000000,1416.000000,47990.000000,47105.000000
25144.000000,1411.000000,47979.000000,47096.000000
25140.000000,1408.000000,47971.000000,47093.000000
25133.000000,1400.000000,47962.000000,47086.000000
25123.000000,1387.000000,47950.000000,47067.000000
25116.000000,1376.000000,47940.000000,47053.000000
25113.000000,1369.000000,47932.000000,47054.000000
25105.000000,1362.000000,47919.000000,47055.000000
25091.000000,1354.000000,47900.000000,47051.000000
25078.000000,1351.000000,47884.000000,47044.000000
25067.000000,1351.000000,47871.000000,47038.000000
25049.000000,1347.000000,47855.000000,47029.000000
25028.000000,1339.000000,47837.000000,47018.000000
25012.000000,1330.000000,47825.000000,47012.000000
25002.000000,1320.000000,47821.000000,47011.000000
24992.000000,1309.000000,47822.000000,47007.000000
24987.000000,1305.000000,47830.000000,47000.000000
25000.000000,1314.000000,47857.000000,47010.000000
25030.000000,1343.000000,47908.000000,47040.000000
25078.000000,1390.000000,47987.000000,47085.000000
25157.000000,1462.000000,48108.000000,47155.000000
25279.000000,1574.000000,48293.000000,47276.000000
25442.000000,1727.000000,48556.000000,47454.000000
25645.000000,1922.000000,48896.000000,47679.000000
25895.000000,2162.000000,49316.000000,47954.000000
26190.000000,2448.000000,49814.000000,48291.000000
26518.000000,2768.000000,50376.000000,48680.000000
26864.000000,3106.000000,50973.000000,49093.000000
27220.000000,3449.000000,51588.000000,49516.000000
27580.000000,3790.000000,52203.000000,49947.000000
27923.000000,4114.000000,52792.000000,50369.000000
28234.000000,4408.000000,53326.000000,50755.000000
28509.000000,4663.000000,53788.000000,51096.000000
28745.000000,4880.000000,54176.000000,51392.000000
28934.000000,5055.000000,54485.000000,51636.000000
29075.000000,5181.000000,54713.000000,51818.000000
29172.000000,5264.000000,54872.000000,51940.000000
29230.000000,5312.000000,54969.000000,52011.000000
29247.000000,5325.000000,55003.000000,52034.000000
29230.000000,5302.000000,54979.000000,52016.000000
29189.000000,5257.000000,54912.000000,51971.000000
29129.000000,5196.000000,54815.000000,51910.000000
29048.000000,5120.000000,54689.000000,51829.000000
28955.000000,5032.000000,54542.000000,51724.000000
28863.000000,4942.000000,54384.000000,51612.000000
28773.000000,4853.000000,54221.000000,51504.000000
28677.000000,4760.000000,54049.000000,51390.000000
28574.000000,4661.000000,53869.000000,51260.000000
28472.000000,4565.000000,53690.000000,51122.000000
28371.000000,4473.000000,53513.000000,50991.000000
28271.000000,4380.000000,53336.000000,50863.000000
28177.000000,4285.000000,53166.000000,50736.000000
28093.000000,4197.000000,53015.000000,50617.000000
28015.000000,4118.000000,52882.000000,50514.000000
27941.000000,4044.000000,52761.000000,50420.000000
27874.000000,3972.000000,52650.000000,50329.000000
27819.000000,3913.000000,52550.000000,50246.000000
27771.000000,3866.000000,52464.000000,50169.000000
27728.000000,3825.000000,52387.000000,50094.000000
27692.000000,3790.000000,52319.000000,50030.000000
27664.000000,3762.000000,52263.000000,49985.000000
27637.000000,3740.000000,52218.000000,49954.000000
27614.000000,3720.000000,52183.000000,49929.000000
27602.000000,3709.000000,52158.000000,49911.000000
27602.000000,3707.000000,52142.000000,49904.000000
27603.000000,3703.000000,52126.000000,49903.000000
27594.000000,3692.000000,52100.000000,49888.000000
27576.000000,3677.000000,52064.000000,49860.000000
27553.000000,3662.000000,52021.000000,49829.000000
27523.000000,3640.000000,51970.000000,49797.000000
27485.000000,3606.000000,51909.000000,49751.000000
27443.000000,3569.000000,51847.000000,49691.000000
27407.000000,3539.000000,51788.000000,49635.000000
27377.000000,3515.000000,51730.000000,49592.000000
27346.000000,3490.000000,51672.000000,49555.000000
27320.000000,3469.000000,51618.000000,49526.000000
27299.000000,3453.000000,51574.000000,49507.000000
27282.000000,3440.000000,51543.000000,49496.000000
27273.000000,3432.000000,51521.000000,49487.000000
27277.000000,3434.000000,51513.000000,49487.000000
27293.000000,3447.000000,51526.000000,49495.000000
27312.000000,3462.000000,51553.000000,49509.000000
27332.000000,3481.000000,51588.000000,49526.000000
27359.000000,3509.000000,51631.000000,49554.000000
27390.000000,3544.000000,51679.000000,49596.000000
27418.000000,3576.000000,51727.000000,49636.000000
27442.000000,3600.000000,51772.000000,49667.000000
27466.000000,3618.000000,51814.000000,49694.000000
27487.000000,3635.000000,51854.000000,49723.000000
27503.000000,3649.000000,51886.000000,49749.000000
27513.000000,3659.000000,51910.000000,49770.000000
27521.000000,3671.000000,51929.000000,49791.000000
27526.000000,3684.000000,51945.000000,49812.000000
27524.000000,3688.000000,51950.000000,49824.000000
27513.000000,3681.000000,51942.000000,49822.000000
27499.000000,3670.000000,51926.000000,49810.000000
27480.000000,3656.000000,51903.000000,49789.000000
27454.000000,3633.000000,51867.000000,49755.000000
27420.000000,3601.000000,51817.000000,49715.000000
27385.000000,3566.000000,51761.000000,49674.000000
27345.000000,3529.000000,51697.000000,49625.000000
27294.000000,3484.000000,51618.000000,49564.000000
27236.000000,3430.000000,51523.000000,49497.000000
27176.000000,3373.000000,51421.000000,49433.000000
27112.000000,3313.000000,51311.000000,49366.000000
27043.000000,3245.000000,51191.000000,49285.000000
26972.000000,3174.000000,51069.000000,49198.000000
26905.000000,3105.000000,50952.000000,49119.000000
26834.000000,3038.000000,50835.000000,49043.000000
26760.000000,2968.000000,50714.000000,48956.000000
26686.000000,2899.000000,50594.000000,48860.000000
26616.000000,2835.000000,50481.000000,48775.000000
26547.000000,2770.000000,50371.000000,48703.000000
26476.000000,2703.000000,50260.000000,48630.000000
26410.000000,2636.000000,50152.000000,48553.000000
26352.000000,2574.000000,50053.000000,48480.000000
26297.000000,2514.000000,49959.000000,48412.000000
26245.000000,2455.000000,49865.000000,48349.000000
26196.000000,2402.000000,49776.000000,48295.000000
26154.000000,2360.000000,49701.000000,48251.000000
26116.000000,2326.000000,49637.000000,48213.000000
26079.000000,2291.000000,49574.000000,48174.000000
26043.000000,2260.000000,49512.000000,48137.000000
26011.000000,2233.000000,49456.000000,48104.000000
25978.000000,2202.000000,49405.000000,48065.000000
25946.000000,2168.000000,49351.000000,48021.000000
25919.000000,2138.000000,49298.000000,47985.000000
25897.000000,2117.000000,49253.000000,47960.000000
25873.000000,2099.000000,49210.000000,47929.000000
25848.000000,2078.000000,49168.000000,47890.000000
25828.000000,2062.000000,49128.000000,47855.000000
25817.000000,2055.000000,49095.000000,47829.000000
25804.000000,2044.000000,49064.000000,47801.000000
25789.000000,2028.000000,49030.000000,47769.000000
25775.000000,2013.000000,48998.000000,47744.000000
25766.000000,2001.000000,48973.000000,47728.000000
25758.000000,1991.000000,48955.000000,47716.000000
25751.000000,1983.000000,48940.000000,47707.000000
25744.000000,1982.000000,48925.000000,47707.000000
25737.000000,1981.000000,48909.000000,47710.000000
25728.000000,1972.000000,48890.000000,47707.000000
25722.000000,1958.000000,48869.000000,47704.000000
25721.000000,1948.000000,48852.000000,47708.000000
25718.000000,1940.000000,48839.000000,47711.000000
25710.000000,1928.000000,48822.000000,47701.000000
25703.000000,1917.000000,48802.000000,47682.000000
25697.000000,1913.000000,48784.000000,47667.000000
25690.000000,1910.000000,48767.000000,47655.000000
25677.000000,1901.000000,48745.000000,47640.000000
25663.000000,1886.000000,48721.000000,47623.000000
25651.000000,1876.000000,48704.000000,47612.000000
25638.000000,1868.000000,48692.000000,47603.000000
25618.000000,1855.000000,48680.000000,47585.000000
25596.000000,1838.000000,48667.000000,47568.000000
25574.000000,1822.000000,48653.000000,47558.000000
25550.000000,1803.000000,48634.000000,47547.000000
25522.000000,1779.000000,48607.000000,47525.000000
25493.000000,1756.000000,48579.000000,47501.000000
25470.000000,1741.000000,48560.000000,47482.000000
25453.000000,1728.000000,48543.000000,47463.000000
25436.000000,1713.000000,48522.000000,47435.000000
25423.000000,1701.000000,48502.000000,47408.000000
25417.000000,1698.000000,48489.000000,47395.000000
25413.000000,1698.000000,48480.000000,47392.000000
25410.000000,1692.000000,48469.000000,47390.000000
25408.000000,1685.000000,48457.000000,47385.000000
25410.000000,1683.000000,48449.000000,47380.000000
25413.000000,1684.000000,48441.000000,47376.000000
25412.000000,1684.000000,48430.000000,47370.000000
25408.000000,1684.000000,48417.000000,47366.000000
25402.000000,1681.000000,48405.000000,47364.000000
25393.000000,1672.000000,48390.000000,47360.000000
25382.000000,1660.000000,48373.000000,47358.000000
25376.000000,1655.000000,48357.000000,47360.000000
25373.000000,1652.000000,48343.000000,47360.000000
25367.000000,1644.000000,48328.000000,47353.000000
25360.000000,1635.000000,48317.000000,47345.000000
25362.000000,1632.000000,48310.000000,47344.000000
25369.000000,1634.000000,48302.000000,47344.000000
25373.000000,1632.000000,48290.000000,47338.000000
25375.000000,1628.000000,48275.000000,47330.000000
25375.000000,1628.000000,48263.000000,47325.000000
25374.000000,1630.000000,48253.000000,47324.000000
25367.000000,1629.000000,48240.000000,47322.000000
25356.000000,1624.000000,48224.000000,47317.000000
25339.000000,1617.000000,48210.000000,47312.000000
25314.000000,1608.000000,48196.000000,47306.000000
25286.000000,1593.000000,48179.000000,47295.000000
25260.000000,1574.000000,48161.000000,47283.000000
25242.000000,1559.000000,48146.000000,47276.000000
25230.000000,1546.000000,48127.000000,47267.000000
25218.000000,1531.000000,48101.000000,47253.000000
25207.000000,1519.000000,48075.000000,47236.000000
25199.000000,1509.000000,48054.000000,47222.000000
25189.000000,1496.000000,48034.000000,47209.000000
25177.000000,1481.000000,48014.000000,47189.000000
25165.000000,1470.000000,47998.000000,47162.000000
25155.000000,1465.000000,47987.000000,47140.000000
25145.000000,1461.000000,47975.000000,47130.000000
25137.000000,1456.000000,47960.000000,47123.000000
25135.000000,1453.000000,47951.000000,47113.000000
25135.000000,1452.000000,47946.000000,47104.000000
25133.000000,1451.000000,47942.000000,47099.000000
25128.000000,1446.000000,47935.000000,47099.000000
25125.000000,1438.000000,47928.000000,47104.000000
25122.000000,1433.000000,47920.000000,47105.000000
25119.000000,1429.000000,47911.000000,47100.000000
25115.000000,1426.000000,47905.000000,47096.000000
25114.000000,1427.000000,47905.000000,47094.000000
25110.000000,1428.000000,47899.000000,47091.000000
25102.000000,1423.000000,47885.000000,47081.000000
25094.000000,1415.000000,47868.000000,47061.000000
25088.000000,1406.000000,47852.000000,47041.000000
25082.000000,1398.000000,47838.000000,47029.000000
25073.000000,1389.000000,47823.000000,47018.000000
25061.000000,1377.000000,47806.000000,47001.000000
25047.000000,1368.000000,47792.000000,46982.000000
25033.000000,1361.000000,47779.000000,46968.000000
25017.000000,1353.000000,47764.000000,46956.000000
25002.000000,1342.000000,47750.000000,46951.000000
24988.000000,1330.000000,47743.000000,46954.000000
24973.000000,1315.000000,47737.000000,46960.000000
24958.000000,1297.000000,47730.000000,46963.000000
24944.000000,1281.000000,47725.000000,46964.000000
24932.000000,1270.000000,47720.000000,46965.000000
24920.000000,1259.000000,47707.000000,46961.000000
24906.000000,1249.000000,47689.000000,46950.000000
24897.000000,1245.000000,47678.000000,46940.000000
24899.000000,1249.000000,47681.000000,46939.000000
24918.000000,1265.000000,47702.000000,46948.000000
24954.000000,1294.000000,47746.000000,46965.000000
25013.000000,1342.000000,47828.000000,46997.000000
25102.000000,1419.000000,47966.000000,47063.000000
25221.000000,1532.000000,48168.000000,47172.000000
25378.000000,1683.000000,48440.000000,47328.000000
25584.000000,1877.000000,48790.000000,47546.000000
25837.000000,2120.000000,49220.000000,47832.000000
26120.000000,2399.000000,49713.000000,48176.000000
26423.000000,2701.000000,50249.000000,48553.000000
26744.000000,3020.000000,50815.000000,48950.000000
27073.000000,3344.000000,51396.000000,49362.000000
27393.000000,3654.000000,51966.000000,49778.000000
27696.000000,3943.000000,52501.000000,50173.000000
27975.000000,4206.000000,52987.000000,50532.000000
28227.000000,4442.000000,53418.000000,50849.000000
28443.000000,4640.000000,53782.000000,51115.000000
28614.000000,4794.000000,54068.000000,51326.000000
28744.000000,4906.000000,54282.000000,51481.000000
28839.000000,4984.000000,54428.000000,51589.000000
28893.000000,5026.000000,54508.000000,51654.000000
28909.000000,5035.000000,54525.000000,51678.000000
28898.000000,5021.000000,54494.000000,51672.000000
28864.000000,4984.000000,54425.000000,51642.000000
28805.000000,4924.000000,54316.000000,51581.000000
28724.000000,4845.000000,54170.000000,51486.000000
28631.000000,4755.000000,53997.000000,51367.000000
28531.000000,4657.000000,53810.000000,51235.000000
28419.000000,4548.000000,53608.000000,51089.000000
28296.000000,4433.000000,53396.000000,50930.000000
28174.000000,4318.000000,53182.000000,50766.000000
28054.000000,4203.000000,52973.000000,50607.000000
27931.000000,4085.000000,52762.000000,50453.000000
27810.000000,3969.000000,52557.000000,50308.000000
27697.000000,3863.000000,52366.000000,50182.000000
27594.000000,3768.000000,52192.000000,50075.000000
27494.000000,3679.000000,52033.000000,49975.000000
27401.000000,3598.000000,51889.000000,49878.000000
27324.000000,3530.000000,51765.000000,49796.000000
27265.000000,3474.000000,51660.000000,49731.000000
27215.000000,3425.000000,51571.000000,49672.000000
27177.000000,3386.000000,51497.000000,49617.000000
27155.000000,3363.000000,51446.000000,49574.000000
27145.000000,3354.000000,51416.000000,49541.000000
27136.000000,3348.000000,51395.000000,49509.000000
27129.000000,3343.000000,51380.000000,49483.000000
27125.000000,3343.000000,51373.000000,49469.000000
27120.000000,3344.000000,51366.000000,49457.000000
27109.000000,3341.000000,51352.000000,49435.000000
27098.000000,3339.000000,51335.000000,49406.000000
27091.000000,3335.000000,51319.000000,49381.000000
27080.000000,3326.000000,51296.000000,49359.000000
27061.000000,3307.000000,51258.000000,49329.000000
27040.000000,3285.000000,51212.000000,49296.000000
27018.000000,3265.000000,51167.000000,49272.000000
26993.000000,3242.000000,51122.000000,49252.000000
26966.000000,3213.000000,51072.000000,49232.000000
26940.000000,3187.000000,51025.000000,49213.000000
26919.000000,3168.000000,50988.000000,49194.000000
26898.000000,3149.000000,50956.000000,49171.000000
26873.000000,3127.000000,50926.000000,49144.000000
26851.000000,3110.000000,50903.000000,49118.000000
26837.000000,3101.000000,50890.000000,49101.000000
26829.000000,3095.000000,50885.000000,49092.000000
26828.000000,3094.000000,50889.000000,49089.000000
26842.000000,3103.000000,50902.000000,49100.000000
26866.000000,3123.000000,50927.000000,49124.000000
26893.000000,3145.000000,50955.000000,49148.000000
26918.000000,3166.000000,50982.000000,49167.000000
26945.000000,3190.000000,51014.000000,49188.000000
26972.000000,3216.000000,51049.000000,49210.000000
26992.000000,3236.000000,51079.000000,49229.000000
27005.000000,3251.000000,51102.000000,49243.000000
27016.000000,3264.000000,51123.000000,49256.000000
27023.000000,3274.000000,51139.000000,49264.000000
27020.000000,3272.000000,51142.000000,49264.000000
27006.000000,3257.000000,51132.000000,49253.000000
26987.000000,3236.000000,51117.000000,49239.000000
26964.000000,3212.000000,51097.000000,49222.000000
26936.000000,3180.000000,51066.000000,49198.000000
26906.000000,3144.000000,51021.000000,49168.000000
26875.000000,3110.000000,50967.000000,49136.000000
26839.000000,3077.000000,50907.000000,49094.000000
26793.000000,3038.000000,50835.000000,49038.000000
26741.000000,2994.000000,50755.000000,48978.000000
26687.000000,2949.000000,50673.000000,48925.000000
26629.000000,2902.000000,50588.000000,48877.000000
26567.000000,2849.000000,50493.000000,48823.000000
26507.000000,2793.000000,50394.000000,48762.000000
26452.000000,2740.000000,50299.000000,48700.000000
26398.000000,2686.000000,50203.000000,48639.000000
26337.000000,2625.000000,50104.000000,48572.000000
26278.000000,2564.000000,50005.000000,48508.000000
26226.000000,2507.000000,49911.000000,48454.000000
26175.000000,2453.000000,49818.000000,48402.000000
26119.000000,2397.000000,49725.000000,48341.000000
26064.000000,2343.000000,49638.000000,48281.000000
26017.000000,2294.000000,49559.000000,48230.000000
25974.000000,2250.000000,49487.000000,48182.000000
25929.000000,2207.000000,49416.000000,48135.000000
25890.000000,2169.000000,49349.000000,48093.000000
25858.000000,2138.000000,49288.000000,48057.000000
25827.000000,2107.000000,49229.000000,48015.000000
25796.000000,2072.000000,49169.000000,47967.000000
25767.000000,2040.000000,49112.000000,47924.000000
25742.000000,2015.000000,49061.000000,47896.000000
25716.000000,1991.000000,49011.000000,47874.000000
25692.000000,1966.000000,48961.000000,47844.000000
25674.000000,1945.000000,48919.000000,47812.000000
25661.000000,1930.000000,48887.000000,47788.000000
25645.000000,1915.000000,48858.000000,47767.000000
25625.000000,1896.000000,48826.000000,47743.000000
25608.000000,1877.000000,48797.000000,47719.000000
25592.000000,1864.000000,48773.000000,47700.000000
25574.000000,1849.000000,48749.000000,47679.000000
25557.000000,1831.000000,48724.000000,47658.000000
25548.000000,1821.000000,48706.000000,47644.000000
25544.000000,1817.000000,48691.000000,47635.000000
25535.000000,1814.000000,48673.000000,47627.000000
25524.000000,1811.000000,48652.000000,47621.000000
25517.000000,1811.000000,48636.000000,47616.000000
25509.000000,1810.000000,48621.000000,47608.000000
25494.000000,1799.000000,48602.000000,47593.000000
25477.000000,1783.000000,48585.000000,47575.000000
25465.000000,1772.000000,48571.000000,47563.000000
25455.000000,1765.000000,48558.000000,47554.000000
25439.000000,1751.000000,48540.000000,47536.000000
25416.000000,1734.000000,48518.000000,47511.000000
25393.000000,1718.000000,48497.000000,47492.000000
25370.000000,1704.000000,48477.000000,47480.000000
25346.000000,1684.000000,48451.000000,47467.000000
25326.000000,1662.000000,48423.000000,47454.000000
25312.000000,1644.000000,48401.000000,47446.000000
25302.000000,1629.000000,48385.000000,47432.000000
25291.000000,1615.000000,48367.000000,47414.000000
25282.000000,1604.000000,48348.000000,47403.000000
25275.000000,1600.000000,48332.000000,47398.000000
25265.000000,1596.000000,48313.000000,47391.000000
25252.000000,1590.000000,48293.000000,47383.000000
25245.000000,1588.000000,48278.000000,47380.000000
25244.000000,1591.000000,48268.000000,47381.000000
25245.000000,1596.000000,48259.000000,47379.000000
25245.000000,1599.000000,48247.000000,47371.000000
25244.000000,1604.000000,48237.000000,47364.000000
25245.000000,1608.000000,48231.000000,47362.000000
25241.000000,1604.000000,48223.000000,47357.000000
25234.000000,1593.000000,48212.000000,47348.000000
25225.000000,1582.000000,48200.000000,47338.000000
25214.000000,1574.000000,48188.000000,47329.000000
25204.000000,1567.000000,48173.000000,47318.000000
25195.000000,1557.000000,48154.000000,47308.000000
25188.000000,1545.000000,48136.000000,47306.000000
25183.000000,1536.000000,48123.000000,47307.000000
25178.000000,1530.000000,48113.000000,47301.000000
25174.000000,1526.000000,48102.000000,47285.000000
25176.000000,1525.000000,48089.000000,47272.000000
25180.000000,1525.000000,48077.000000,47261.000000
25184.000000,1525.000000,48063.000000,47252.000000
25186.000000,1526.000000,48053.000000,47250.000000
25188.000000,1532.000000,48051.000000,47257.000000
25184.000000,1537.000000,48049.000000,47267.000000
25175.000000,1537.000000,48042.000000,47273.000000
25165.000000,1535.000000,48031.000000,47276.000000
25154.000000,1529.000000,48022.000000,47279.000000
25142.000000,1521.000000,48013.000000,47287.000000
25131.000000,1513.000000,48005.000000,47294.000000
25123.000000,1508.000000,47999.000000,47298.000000
25121.000000,1508.000000,47998.000000,47300.000000
25120.000000,1511.000000,47995.000000,47293.000000
25117.000000,1511.000000,47988.000000,47277.000000
25117.000000,1512.000000,47980.000000,47260.000000
25122.000000,1515.000000,47977.000000,47250.000000
25129.000000,1516.000000,47973.000000,47243.000000
25133.000000,1515.000000,47965.000000,47236.000000
25140.000000,1519.000000,47959.000000,47232.000000
25151.000000,1528.000000,47960.000000,47229.000000
25158.000000,1535.000000,47961.000000,47219.000000
25160.000000,1538.000000,47960.000000,47200.000000
25159.000000,1542.000000,47963.000000,47179.000000
25154.000000,1547.000000,47968.000000,47163.000000
25143.000000,1549.000000,47969.000000,47149.000000
25131.000000,1545.000000,47964.000000,47131.000000
25123.000000,1537.000000,47953.000000,47115.000000
25121.000000,1531.000000,47941.000000,47109.000000
25119.000000,1525.000000,47932.000000,47107.000000
25118.000000,1518.000000,47925.000000,47104.000000
25119.000000,1513.000000,47917.000000,47105.000000
25124.000000,1512.000000,47908.000000,47106.000000
25127.000000,1515.000000,47901.000000,47101.000000
25129.000000,1521.000000,47899.000000,47098.000000
25131.000000,1530.000000,47900.000000,47102.000000
25132.000000,1539.000000,47902.000000,47112.000000
25126.000000,1544.000000,47902.000000,47118.000000
25114.000000,1543.000000,47903.000000,47119.000000
25101.000000,1538.000000,47902.000000,47122.000000
25087.000000,1529.000000,47894.000000,47126.000000
25070.000000,1516.000000,47879.000000,47123.000000
25055.000000,1499.000000,47862.000000,47116.000000
25044.000000,1484.000000,47850.000000,47111.000000
25035.000000,1474.000000,47839.000000,47111.000000
25025.000000,1465.000000,47827.000000,47106.000000
25017.000000,1457.000000,47813.000000,47097.000000
25015.000000,1453.000000,47802.000000,47090.000000
25013.000000,1452.000000,47790.000000,47078.000000
25007.000000,1449.000000,47775.000000,47062.000000
25003.000000,1444.000000,47762.000000,47048.000000
25001.000000,1440.000000,47754.000000,47041.000000
24995.000000,1434.000000,47747.000000,47035.000000
24983.000000,1422.000000,47736.000000,47025.000000
24968.000000,1408.000000,47723.000000,47018.000000
24955.000000,1395.000000,47711.000000,47017.000000
24941.000000,1382.000000,47697.000000,47015.000000
24923.000000,1369.000000,47682.000000,47006.000000
24904.000000,1358.000000,47668.000000,46994.000000
24887.000000,1349.000000,47657.000000,46981.000000
24870.000000,1339.000000,47646.000000,46967.000000
24851.000000,1328.000000,47632.000000,46947.000000
24835.000000,1316.000000,47619.000000,46928.000000
24824.000000,1310.000000,47613.000000,46918.000000
24819.000000,1307.000000,47610.000000,46917.000000
24822.000000,1308.000000,47614.000000,46921.000000
24839.000000,1319.000000,47629.000000,46935.000000
24874.000000,1350.000000,47667.000000,46966.000000
24926.000000,1399.000000,47736.000000,47013.000000
25001.000000,1468.000000,47844.000000,47075.000000
25110.000000,1568.000000,48007.000000,47167.000000
25254.000000,1707.000000,48236.000000,47304.000000
25431.000000,1881.000000,48530.000000,47485.000000
25639.000000,2086.000000,48888.000000,47709.000000
25881.000000,2328.000000,49310.000000,47980.000000
26153.000000,2600.000000,49788.000000,48299.000000
26444.000000,2883.000000,50299.000000,48653.000000
26743.000000,3165.000000,50821.000000,49018.000000
27042.000000,3445.000000,51343.000000,49383.000000
27333.000000,3721.000000,51852.000000,49744.000000
27603.000000,3979.000000,52328.000000,50087.000000
27844.000000,4206.000000,52753.000000,50395.000000
28056.000000,4401.000000,53122.000000,50668.000000
28236.000000,4565.000000,53434.000000,50903.000000
28375.000000,4689.000000,53675.000000,51090.000000
28468.000000,4768.000000,53839.000000,51222.000000
28524.000000,4812.000000,53937.000000,51306.000000
28546.000000,4826.000000,53980.000000,51346.000000
28536.000000,4813.000000,53966.000000,51336.000000
28498.000000,4773.000000,53901.000000,51283.000000
28441.000000,4717.000000,53795.000000,51206.000000
28366.000000,4647.000000,53657.000000,51111.000000
28273.000000,4563.000000,53491.000000,50990.000000
28169.000000,4468.000000,53304.000000,50848.000000
28061.000000,4365.000000,53109.000000,50701.000000
27946.000000,4257.000000,52907.000000,50559.000000
27823.000000,4141.000000,52698.000000,50409.000000
27697.000000,4024.000000,52484.000000,50252.000000
27574.000000,3910.000000,52273.000000,50099.000000
27456.000000,3800.000000,52068.000000,49949.000000
27342.000000,3689.000000,51869.000000,49802.000000
27238.000000,3582.000000,51682.000000,49664.000000
27145.000000,3488.000000,51513.000000,49538.000000
27059.000000,3403.000000,51358.000000,49421.000000
26977.000000,3321.000000,51212.000000,49312.000000
26904.000000,3246.000000,51080.000000,49216.000000
26843.000000,3183.000000,50968.000000,49137.000000
26790.000000,3130.000000,50874.000000,49076.000000
26744.000000,3085.000000,50795.000000,49028.000000
26712.000000,3055.000000,50734.000000,48989.000000
26694.000000,3042.000000,50694.000000,48964.000000
26685.000000,3041.000000,50666.000000,48948.000000
26676.000000,3040.000000,50640.000000,48928.000000
26669.000000,3040.000000,50621.000000,48902.000000
26666.000000,3045.000000,50610.000000,48881.000000
26661.000000,3049.000000,50597.000000,48865.000000
26649.000000,3046.000000,50575.000000,48847.000000
26632.000000,3036.000000,50546.000000,48827.000000
26614.000000,3021.000000,50516.000000,48806.000000
26591.000000,3002.000000,50485.000000,48779.000000
26565.000000,2977.000000,50450.000000,48745.000000
26541.000000,2953.000000,50414.000000,48717.000000
26523.000000,2934.000000,50385.000000,48702.000000
26509.000000,2918.000000,50361.000000,48689.000000
26498.000000,2907.000000,50341.000000,48676.000000
26497.000000,2910.000000,50333.000000,48673.000000
26508.000000,2925.000000,50338.000000,48681.000000
26523.000000,2943.000000,50349.000000,48691.000000
26538.000000,2961.000000,50363.000000,48703.000000
26557.000000,2982.000000,50385.000000,48723.000000
26580.000000,3007.000000,50416.000000,48751.000000
26605.000000,3028.000000,50448.000000,48779.000000
26631.000000,3046.000000,50479.000000,48802.000000
26660.000000,3066.000000,50517.000000,48824.000000
26688.000000,3092.000000,50563.000000,48842.000000
26711.000000,3120.000000,50612.000000,48856.000000
26734.000000,3150.000000,50661.000000,48872.000000
26763.000000,3186.000000,50715.000000,48897.000000
26795.000000,3225.000000,50772.000000,48930.000000
26824.000000,3257.000000,50822.000000,48950.000000
26848.000000,3280.000000,50863.000000,48954.000000
26868.000000,3296.000000,50897.000000,48960.000000
26883.000000,3305.000000,50921.000000,48970.000000
26888.000000,3305.000000,50929.000000,48971.000000
26880.000000,3297.000000,50921.000000,48966.000000
26864.000000,3282.000000,50899.000000,48958.000000
26834.000000,3253.000000,50862.000000,48937.000000
26791.000000,3209.000000,50808.000000,48900.000000
26741.000000,3155.000000,50736.000000,48854.000000
26689.000000,3097.000000,50656.000000,48801.000000
26632.000000,3040.000000,50566.000000,48741.000000
26568.000000,2982.000000,50469.000000,48681.000000
26502.000000,2921.000000,50373.000000,48624.000000
26441.000000,2861.000000,50281.000000,48571.000000
26383.000000,2803.000000,50188.000000,48516.000000
26326.000000,2744.000000,50093.000000,48455.000000
26278.000000,2688.000000,50000.000000,48392.000000
26241.000000,2644.000000,49915.000000,48335.000000
26208.000000,2608.000000,49836.000000,48284.000000
26173.000000,2574.000000,49760.000000,48237.000000
26141.000000,2542.000000,49689.000000,48194.000000
26111.000000,2519.000000,49626.000000,48157.000000
26076.000000,2497.000000,49567.000000,48117.000000
26037.000000,2470.000000,49507.000000,48073.000000
26003.000000,2442.000000,49452.000000,48036.000000
25973.000000,2415.000000,49401.000000,48010.000000
25941.000000,2385.000000,49347.000000,47982.000000
25907.000000,2351.000000,49287.000000,47944.000000
25878.000000,2320.000000,49228.000000,47905.000000
25851.000000,2292.000000,49176.000000,47875.000000
25819.000000,2259.000000,49125.000000,47846.000000
25786.000000,2225.000000,49071.000000,47814.000000
25759.000000,2195.000000,49024.000000,47782.000000
25737.000000,2173.000000,48985.000000,47752.000000
25716.000000,2154.000000,48947.000000,47721.000000
25693.000000,2135.000000,48910.000000,47694.000000
25673.000000,2119.000000,48876.000000,47675.000000
25654.000000,2104.000000,48846.000000,47655.000000
25634.000000,2086.000000,48817.000000,47625.000000
25617.000000,2066.000000,48786.000000,47591.000000
25606.000000,2051.000000,48757.000000,47565.000000
25597.000000,2039.000000,48730.000000,47548.000000
25582.000000,2025.000000,48701.000000,47527.000000
25563.000000,2011.000000,48672.000000,47507.000000
25546.000000,2002.000000,48652.000000,47506.000000
25532.000000,1996.000000,48637.000000,47520.000000
25518.000000,1989.000000,48616.000000,47529.000000
25507.000000,1979.000000,48590.000000,47528.000000
25501.000000,1976.000000,48569.000000,47523.000000
25495.000000,1972.000000,48553.000000,47512.000000
25482.000000,1960.000000,48533.000000,47499.000000
25466.000000,1944.000000,48510.000000,47491.000000
25452.000000,1928.000000,48491.000000,47485.000000
25434.000000,1909.000000,48470.000000,47476.000000
25412.000000,1888.000000,48444.000000,47457.000000
25393.000000,1871.000000,48420.000000,47432.000000
25381.000000,1860.000000,48404.000000,47411.000000
25369.000000,1849.000000,48390.000000,47391.000000
25353.000000,1833.000000,48371.000000,47364.000000
25336.000000,1818.000000,48353.000000,47336.000000
25325.000000,1810.000000,48343.000000,47317.000000
25316.000000,1808.000000,48333.000000,47310.000000
25308.000000,1805.000000,48320.000000,47305.000000
25304.000000,1802.000000,48311.000000,47299.000000
25303.000000,1798.000000,48306.000000,47294.000000
25299.000000,1791.000000,48297.000000,47288.000000
25294.000000,1780.000000,48279.000000,47277.000000
25292.000000,1772.000000,48263.000000,47269.000000
25292.000000,1769.000000,48251.000000,47263.000000
25284.000000,1760.000000,48235.000000,47251.000000
25266.000000,1742.000000,48214.000000,47232.000000
25248.000000,1720.000000,48191.000000,47216.000000
25231.000000,1700.000000,48166.000000,47206.000000
25207.000000,1678.000000,48135.000000,47193.000000
25178.000000,1652.000000,48101.000000,47178.000000
25156.000000,1631.000000,48073.000000,47167.000000
25140.000000,1618.000000,48057.000000,47158.000000
25126.000000,1605.000000,48045.000000,47145.000000
25112.000000,1593.000000,48031.000000,47132.000000
25101.000000,1587.000000,48021.000000,47127.000000
25090.000000,1586.000000,48016.000000,47131.000000
25077.000000,1585.000000,48009.000000,47140.000000
25068.000000,1584.000000,47999.000000,47153.000000
25067.000000,1587.000000,47993.000000,47165.000000
25070.000000,1591.000000,47990.000000,47173.000000
25068.000000,1589.000000,47984.000000,47168.000000
25060.000000,1581.000000,47975.000000,47154.000000
25051.000000,1575.000000,47966.000000,47144.000000
25045.000000,1572.000000,47957.000000,47139.000000
25041.000000,1567.000000,47946.000000,47131.000000
25043.000000,1565.000000,47938.000000,47128.000000
25052.000000,1572.000000,47936.000000,47136.000000
25061.000000,1581.000000,47937.000000,47145.000000
25064.000000,1585.000000,47930.000000,47146.000000
25066.000000,1585.000000,47920.000000,47147.000000
25067.000000,1586.000000,47913.000000,47156.000000
25061.000000,1577.000000,47904.000000,47165.000000
25044.000000,1558.000000,47891.000000,47161.000000
25028.000000,1541.000000,47877.000000,47149.000000
25017.000000,1529.000000,47866.000000,47137.000000
25004.000000,1520.000000,47857.000000,47124.000000
24984.000000,1510.000000,47845.000000,47109.000000
24965.000000,1501.000000,47837.000000,47095.000000
24952.000000,1496.000000,47835.000000,47087.000000
24944.000000,1490.000000,47835.000000,47082.000000
24937.000000,1484.000000,47833.000000,47079.000000
24932.000000,1476.000000,47830.000000,47082.000000
24925.000000,1467.000000,47820.000000,47088.000000
24913.000000,1457.000000,47806.000000,47088.000000
24900.000000,1446.000000,47795.000000,47080.000000
24892.000000,1438.000000,47786.000000,47077.000000
24888.000000,1433.000000,47776.000000,47078.000000
24884.000000,1427.000000,47763.000000,47074.000000
24880.000000,1421.000000,47750.000000,47062.000000
24878.000000,1417.000000,47739.000000,47049.000000
24873.000000,1410.000000,47726.000000,47039.000000
24862.000000,1395.000000,47709.000000,47028.000000
24851.000000,1378.000000,47694.000000,47018.000000
24843.000000,1367.000000,47687.000000,47013.000000
24838.000000,1363.000000,47685.000000,47013.000000
24834.000000,1364.000000,47688.000000,47012.000000
24835.000000,1371.000000,47700.000000,47016.000000
24853.000000,1393.000000,47735.000000,47035.000000
24892.000000,1434.000000,47799.000000,47072.000000
24951.000000,1495.000000,47896.000000,47129.000000
25038.000000,1581.000000,48035.000000,47211.000000
25160.000000,1697.000000,48229.000000,47335.000000
25316.000000,1845.000000,48478.000000,47499.000000
25499.000000,2024.000000,48781.000000,47693.000000
25712.000000,2233.000000,49141.000000,47923.000000
25954.000000,2473.000000,49558.000000,48197.000000
26215.000000,2732.000000,50015.000000,48505.000000
26480.000000,2995.000000,50491.000000,48829.000000
26744.000000,3253.000000,50967.000000,49161.000000
27007.000000,3504.000000,51431.000000,49497.000000
27257.000000,3739.000000,51867.000000,49823.000000
27479.000000,3944.000000,52258.000000,50121.000000
27672.000000,4120.000000,52597.000000,50377.000000
27836.000000,4272.000000,52885.000000,50590.000000
27965.000000,4395.000000,53117.000000,50762.000000
28054.000000,4482.000000,53283.000000,50886.000000
28109.000000,4531.000000,53386.000000,50966.000000
28138.000000,4551.000000,53435.000000,51009.000000
28141.000000,4545.000000,53433.000000,51011.000000
28124.000000,4518.000000,53386.000000,50975.000000
28095.000000,4481.000000,53305.000000,50914.000000
28050.000000,4434.000000,53196.000000,50838.000000
27981.000000,4372.000000,53060.000000,50743.000000
27894.000000,4295.000000,52899.000000,50630.000000
27800.000000,4213.000000,52729.000000,50505.000000
27701.000000,4127.000000,52556.000000,50379.000000
27594.000000,4033.000000,52375.000000,50250.000000
27482.000000,3930.000000,52187.000000,50115.000000
27374.000000,3828.000000,52003.000000,49980.000000
27272.000000,3727.000000,51824.000000,49851.000000
27172.000000,3625.000000,51646.000000,49726.000000
27068.000000,3523.000000,51469.000000,49601.000000
26968.000000,3427.000000,51299.000000,49484.000000
26876.000000,3342.000000,51143.000000,49371.000000
26792.000000,3266.000000,51002.000000,49260.000000
26723.000000,3200.000000,50878.000000,49157.000000
26672.000000,3149.000000,50778.000000,49075.000000
26631.000000,3106.000000,50696.000000,49018.000000
26594.000000,3067.000000,50625.000000,48972.000000
26565.000000,3034.000000,50567.000000,48932.000000
26548.000000,3013.000000,50526.000000,48904.000000
26539.000000,3002.000000,50498.000000,48887.000000
26531.000000,2993.000000,50475.000000,48869.000000
26528.000000,2985.000000,50448.000000,48849.000000
26527.000000,2983.000000,50422.000000,48835.000000
26522.000000,2983.000000,50396.000000,48824.000000
26508.000000,2974.000000,50362.000000,48806.000000
26490.000000,2960.000000,50327.000000,48779.000000
26474.000000,2946.000000,50295.000000,48750.000000
26457.000000,2932.000000,50265.000000,48716.000000
26438.000000,2913.000000,50233.000000,48678.000000
26425.000000,2895.000000,50201.000000,48647.000000
26419.000000,2884.000000,50174.000000,48629.000000
26411.000000,2875.000000,50151.000000,48614.000000
26398.000000,2862.000000,50128.000000,48596.000000
26388.000000,2851.000000,50110.000000,48577.000000
26384.000000,2846.000000,50101.000000,48569.000000
26382.000000,2844.000000,50096.000000,48568.000000
26380.000000,2841.000000,50093.000000,48565.000000
26384.000000,2843.000000,50097.000000,48566.000000
26395.000000,2854.000000,50113.000000,48574.000000
26407.000000,2869.000000,50135.000000,48585.000000
26414.000000,2881.000000,50159.000000,48591.000000
26425.000000,2896.000000,50183.000000,48597.000000
26440.000000,2915.000000,50213.000000,48610.000000
26455.000000,2933.000000,50242.000000,48627.000000
26470.000000,2950.000000,50266.000000,48644.000000
26490.000000,2969.000000,50288.000000,48664.000000
26512.000000,2991.000000,50311.000000,48688.000000
26526.000000,3008.000000,50330.000000,48708.000000
26531.000000,3017.000000,50341.000000,48724.000000
26535.000000,3020.000000,50347.000000,48733.000000
26535.000000,3019.000000,50346.000000,48732.000000
26523.000000,3008.000000,50334.000000,48721.000000
26504.000000,2988.000000,50310.000000,48702.000000
26484.000000,2965.000000,50279.000000,48681.000000
26463.000000,2944.000000,50246.000000,48659.000000
26432.000000,2917.000000,50204.000000,48630.000000
26392.000000,2881.000000,50149.000000,48594.000000
26352.000000,2843.000000,50090.000000,48556.000000
26313.000000,2807.000000,50030.000000,48518.000000
26272.000000,2768.000000,49965.000000,48471.000000
26229.000000,2722.000000,49896.000000,48420.000000
26186.000000,2676.000000,49829.000000,48373.000000
26143.000000,2632.000000,49761.000000,48325.000000
26097.000000,2586.000000,49688.000000,48266.000000
26050.000000,2540.000000,49613.000000,48205.000000
26008.000000,2498.000000,49540.000000,48154.000000
25967.000000,2456.000000,49464.000000,48107.000000
25922.000000,2409.000000,49383.000000,48059.000000
25877.000000,2360.000000,49301.000000,48015.000000
25835.000000,2318.000000,49229.000000,47984.000000
25793.000000,2279.000000,49164.000000,47958.000000
25746.000000,2236.000000,49098.000000,47926.000000
25701.000000,2194.000000,49036.000000,47894.000000
25660.000000,2159.000000,48981.000000,47868.000000
25621.000000,2125.000000,48931.000000,47838.000000
25582.000000,2089.000000,48881.000000,47801.000000
25547.000000,2055.000000,48833.000000,47771.000000
25519.000000,2028.000000,48791.000000,47747.000000
25493.000000,2005.000000,48754.000000,47718.000000
25467.000000,1978.000000,48717.000000,47687.000000
25447.000000,1951.000000,48684.000000,47665.000000
25436.000000,1931.000000,48657.000000,47660.000000
25425.000000,1916.000000,48627.000000,47663.000000
25410.000000,1900.000000,48593.000000,47657.000000
25397.000000,1889.000000,48564.000000,47645.000000
25388.000000,1885.000000,48545.000000,47634.000000
25377.000000,1882.000000,48531.000000,47621.000000
25363.000000,1874.000000,48515.000000,47603.000000
25351.000000,1864.000000,48499.000000,47590.000000
25340.000000,1858.000000,48485.000000,47583.000000
25326.000000,1853.000000,48465.000000,47572.000000
25311.000000,1844.000000,48436.000000,47553.000000
25300.000000,1836.000000,48409.000000,47532.000000
25292.000000,1832.000000,48388.000000,47512.000000
25283.000000,1828.000000,48365.000000,47494.000000
25275.000000,1821.000000,48342.000000,47481.000000
25270.000000,1815.000000,48323.000000,47476.000000
25265.000000,1810.000000,48308.000000,47478.000000
25256.000000,1803.000000,48292.000000,47474.000000
25246.000000,1794.000000,48276.000000,47461.000000
25240.000000,1791.000000,48266.000000,47449.000000
25237.000000,1791.000000,48258.000000,47437.000000
25234.000000,1789.000000,48249.000000,47421.000000
25232.000000,1783.000000,48241.000000,47407.000000
25236.000000,1781.000000,48238.000000,47407.000000
25241.000000,1781.000000,48235.000000,47412.000000
25244.000000,1777.000000,48227.000000,47411.000000
25248.000000,1773.000000,48220.000000,47408.000000
25257.000000,1775.000000,48219.000000,47412.000000
25263.000000,1777.000000,48217.000000,47414.000000
25263.000000,1775.000000,48210.000000,47409.000000
25263.000000,1771.000000,48200.000000,47401.000000
25270.000000,1776.000000,48196.000000,47398.000000
25278.000000,1786.000000,48195.000000,47400.000000
25275.000000,1791.000000,48189.000000,47397.000000
25267.000000,1791.000000,48178.000000,47392.000000
25261.000000,1792.000000,48172.000000,47392.000000
25255.000000,1790.000000,48169.000000,47394.000000
25248.000000,1784.000000,48165.000000,47389.000000
25241.000000,1781.000000,48158.000000,47387.000000
25237.000000,1785.000000,48152.000000,47390.000000
25233.000000,1790.000000,48145.000000,47384.000000
25230.000000,1795.000000,48139.000000,47372.000000
25231.000000,1800.000000,48140.000000,47366.000000
25236.000000,1804.000000,48142.000000,47363.000000
25240.000000,1800.000000,48140.000000,47354.000000
25243.000000,1793.000000,48134.000000,47341.000000
25246.000000,1789.000000,48129.000000,47333.000000
25249.000000,1790.000000,48127.000000,47333.000000
25251.000000,1792.000000,48123.000000,47333.000000
25252.000000,1794.000000,48117.000000,47327.000000
25254.000000,1801.000000,48113.000000,47325.000000
25256.000000,1813.000000,48113.000000,47331.000000
25255.000000,1826.000000,48114.000000,47336.000000
25253.000000,1835.000000,48115.000000,47340.000000
25255.000000,1844.000000,48118.000000,47348.000000
25257.000000,1849.000000,48119.000000,47354.000000
25254.000000,1847.000000,48113.000000,47351.000000
25246.000000,1840.000000,48105.000000,47341.000000
25239.000000,1836.000000,48101.000000,47332.000000
25236.000000,1836.000000,48100.000000,47324.000000
25235.000000,1835.000000,48097.000000,47312.000000
25233.000000,1832.000000,48092.000000,47296.000000
25233.000000,1830.000000,48087.000000,47285.000000
25234.000000,1826.000000,48081.000000,47282.000000
25229.000000,1819.000000,48072.000000,47278.000000
25226.000000,1809.000000,48059.000000,47275.000000
25228.000000,1803.000000,48048.000000,47277.000000
25234.000000,1799.000000,48037.000000,47281.000000
25235.000000,1792.000000,48023.000000,47278.000000
25231.000000,1785.000000,48010.000000,47270.000000
25226.000000,1778.000000,48002.000000,47270.000000
25217.000000,1773.000000,47997.000000,47278.000000
25207.000000,1766.000000,47994.000000,47280.000000
25202.000000,1761.000000,47995.000000,47274.000000
25204.000000,1761.000000,48000.000000,47269.000000
25208.000000,1760.000000,48004.000000,47267.000000
25207.000000,1753.000000,48000.000000,47259.000000
25208.000000,1744.000000,47991.000000,47249.000000
25214.000000,1741.000000,47983.000000,47247.000000
25217.000000,1738.000000,47974.000000,47244.000000
25213.000000,1735.000000,47962.000000,47234.000000
25208.000000,1735.000000,47953.000000,47226.000000
25204.000000,1738.000000,47952.000000,47224.000000
25200.000000,1739.000000,47950.000000,47220.000000
25191.000000,1736.000000,47941.000000,47207.000000
25180.000000,1730.000000,47929.000000,47196.000000
25169.000000,1723.000000,47920.000000,47194.000000
25155.000000,1710.000000,47910.000000,47194.000000
25138.000000,1692.000000,47894.000000,47183.000000
25121.000000,1673.000000,47878.000000,47170.000000
25106.000000,1660.000000,47866.000000,47165.000000
25090.000000,1648.000000,47852.000000,47162.000000
25072.000000,1636.000000,47837.000000,47162.000000
25055.000000,1626.000000,47825.000000,47166.000000
25042.000000,1619.000000,47814.000000,47165.000000
25031.000000,1613.000000,47803.000000,47160.000000
25024.000000,1608.000000,47798.000000,47156.000000
25023.000000,1606.000000,47797.000000,47155.000000
25024.000000,1611.000000,47799.000000,47154.000000
25025.000000,1617.000000,47804.000000,47148.000000
25037.000000,1628.000000,47822.000000,47145.000000
25071.000000,1662.000000,47873.000000,47161.000000
25130.000000,1726.000000,47972.000000,47209.000000
25220.000000,1814.000000,48122.000000,47285.000000
25344.000000,1931.000000,48324.000000,47397.000000
25506.000000,2084.000000,48590.000000,47555.000000
25700.000000,2271.000000,48920.000000,47759.000000
25919.000000,2488.000000,49304.000000,48004.000000
26160.000000,2730.000000,49734.000000,48293.000000
26419.000000,2988.000000,50199.000000,48619.000000
26679.000000,3246.000000,50676.000000,48963.000000
26930.000000,3490.000000,51139.000000,49302.000000
27167.000000,3716.000000,51576.000000,49625.000000
27387.000000,3927.000000,51983.000000,49931.000000
27583.000000,4113.000000,52351.000000,50208.000000
27747.000000,4267.000000,52665.000000,50441.000000
27878.000000,4391.000000,52922.000000,50634.000000
27985.000000,4487.000000,53124.000000,50794.000000
28063.000000,4553.000000,53266.000000,50911.000000
28109.000000,4586.000000,53346.000000,50977.000000
28129.000000,4591.000000,53371.000000,51006.000000
28131.000000,4579.000000,53354.000000,51008.000000
28111.000000,4548.000000,53298.000000,50980.000000
28071.000000,4499.000000,53207.000000,50921.000000
28018.000000,4438.000000,53093.000000,50838.000000
27952.000000,4371.000000,52960.000000,50742.000000
27868.000000,4290.000000,52804.000000,50635.000000
27768.000000,4196.000000,52625.000000,50509.000000
27663.000000,4093.000000,52434.000000,50372.000000
27555.000000,3989.000000,52239.000000,50234.000000
27440.000000,3882.000000,52039.000000,50093.000000
27319.000000,3768.000000,51833.000000,49946.000000
27204.000000,3655.000000,51631.000000,49803.000000
27098.000000,3552.000000,51442.000000,49671.000000
26996.000000,3456.000000,51266.000000,49552.000000
26902.000000,3367.000000,51102.000000,49442.000000
26822.000000,3290.000000,50955.000000,49345.000000
26751.000000,3220.000000,50824.000000,49261.000000
26684.000000,3155.000000,50703.000000,49183.000000
26620.000000,3096.000000,50594.000000,49108.000000
26567.000000,3052.000000,50507.000000,49047.000000
26528.000000,3022.000000,50444.000000,49004.000000
26495.000000,3000.000000,50393.000000,48968.000000
26470.000000,2984.000000,50348.000000,48936.000000
26457.000000,2975.000000,50317.000000,48911.000000
26452.000000,2971.000000,50297.000000,48894.000000
26444.000000,2965.000000,50279.000000,48879.000000
26434.000000,2959.000000,50260.000000,48868.000000
26425.000000,2953.000000,50241.000000,48859.000000
26412.000000,2941.000000,50218.000000,48848.000000
26390.000000,2914.000000,50185.000000,48828.000000
26362.000000,2880.000000,50147.000000,48803.000000
26337.000000,2851.000000,50109.000000,48782.000000
26313.000000,2827.000000,50073.000000,48769.000000
26286.000000,2801.000000,50035.000000,48750.000000
26261.000000,2776.000000,49998.000000,48729.000000
26243.000000,2758.000000,49969.000000,48713.000000
26227.000000,2746.000000,49944.000000,48696.000000
26213.000000,2738.000000,49923.000000,48673.000000
26207.000000,2738.000000,49912.000000,48656.000000
26211.000000,2748.000000,49916.000000,48652.000000
26222.000000,2761.000000,49930.000000,48653.000000
26235.000000,2773.000000,49948.000000,48651.000000
26252.000000,2791.000000,49970.000000,48652.000000
26276.000000,2820.000000,50001.000000,48664.000000
26301.000000,2850.000000,50037.000000,48686.000000
26322.000000,2875.000000,50068.000000,48708.000000
26342.000000,2893.000000,50094.000000,48731.000000
26360.000000,2904.000000,50118.000000,48752.000000
26367.000000,2904.000000,50132.000000,48762.000000
26362.000000,2895.000000,50135.000000,48761.000000
26354.000000,2886.000000,50133.000000,48761.000000
26347.000000,2881.000000,50130.000000,48766.000000
26335.000000,2873.000000,50119.000000,48768.000000
26317.000000,2858.000000,50101.000000,48756.000000
26305.000000,2845.000000,50082.000000,48747.000000
26297.000000,2838.000000,50066.000000,48749.000000
26283.000000,2827.000000,50045.000000,48752.000000
26263.000000,2810.000000,50018.000000,48746.000000
26247.000000,2795.000000,49988.000000,48738.000000
26235.000000,2785.000000,49956.000000,48728.000000
26219.000000,2768.000000,49916.000000,48709.000000
26199.000000,2746.000000,49870.000000,48686.000000
26184.000000,2725.000000,49825.000000,48667.000000
26172.000000,2706.000000,49785.000000,48652.000000
26154.000000,2685.000000,49741.000000,48634.000000
26132.000000,2661.000000,49691.000000,48609.000000
26113.000000,2639.000000,49641.000000,48588.000000
26095.000000,2619.000000,49593.000000,48572.000000
26076.000000,2599.000000,49541.000000,48550.000000
26057.000000,2578.000000,49487.000000,48527.000000
26035.000000,2558.000000,49436.000000,48506.000000
26006.000000,2533.000000,49386.000000,48480.000000
25967.000000,2500.000000,49333.000000,48442.000000
25929.000000,2464.000000,49278.000000,48398.000000
25898.000000,2431.000000,49228.000000,48361.000000
25869.000000,2403.000000,49181.000000,48332.000000
25836.000000,2370.000000,49127.000000,48295.000000
25803.000000,2334.000000,49071.000000,48254.000000
25778.000000,2305.000000,49017.000000,48219.000000
25757.000000,2280.000000,48965.000000,48186.000000
25734.000000,2257.000000,48913.000000,48153.000000
25713.000000,2236.000000,48866.000000,48129.000000
25696.000000,2220.000000,48830.000000,48115.000000
25676.000000,2205.000000,48803.000000,48102.000000
25653.000000,2189.000000,48777.000000,48084.000000
25631.000000,2174.000000,48756.000000,48065.000000
25613.000000,2166.000000,48740.000000,48055.000000
25597.000000,2155.000000,48723.000000,48049.000000
25579.000000,2138.000000,48698.000000,48038.000000
25560.000000,2117.000000,48670.000000,48022.000000
25544.000000,2099.000000,48644.000000,48009.000000
25525.000000,2079.000000,48616.000000,47997.000000
25504.000000,2054.000000,48584.000000,47984.000000
25485.000000,2031.000000,48553.000000,47975.000000
25472.000000,2016.000000,48528.000000,47980.000000
25456.000000,2001.000000,48504.000000,47987.000000
25438.000000,1982.000000,48476.000000,47985.000000
25423.000000,1969.000000,48451.000000,47983.000000
25412.000000,1962.000000,48433.000000,47988.000000
25398.000000,1955.000000,48414.000000,47991.000000
25383.000000,1945.000000,48393.000000,47986.000000
25372.000000,1938.000000,48378.000000,47980.000000
25366.000000,1935.000000,48369.000000,47977.000000
25357.000000,1927.000000,48358.000000,47974.000000
25346.000000,1915.000000,48343.000000,47971.000000
25337.000000,1904.000000,48328.000000,47967.000000
25327.000000,1895.000000,48314.000000,47961.000000
25313.000000,1887.000000,48301.000000,47949.000000
25299.000000,1878.000000,48291.000000,47939.000000
25291.000000,1872.000000,48284.000000,47936.000000
25283.000000,1868.000000,48274.000000,47933.000000
25272.000000,1859.000000,48258.000000,47922.000000
25262.000000,1848.000000,48242.000000,47909.000000
25255.000000,1842.000000,48232.000000,47906.000000
25250.000000,1839.000000,48228.000000,47911.000000
25241.000000,1834.000000,48220.000000,47909.000000
25233.000000,1826.000000,48208.000000,47900.000000
25230.000000,1821.000000,48199.000000,47893.000000
25228.000000,1817.000000,48193.000000,47889.000000
25221.000000,1809.000000,48181.000000,47878.000000
25214.000000,1799.000000,48168.000000,47871.000000
25213.000000,1790.000000,48163.000000,47876.000000
25212.000000,1783.000000,48159.000000,47884.000000
25209.000000,1775.000000,48153.000000,47887.000000
25207.000000,1769.000000,48148.000000,47895.000000
25207.000000,1766.000000,48148.000000,47910.000000
25204.000000,1759.000000,48144.000000,47918.000000
25196.000000,1749.000000,48133.000000,47916.000000
25189.000000,1740.000000,48122.000000,47909.000000
25186.000000,1736.000000,48116.000000,47905.000000
