660nm,730nm,850nm,940nm
30122.000000,56761.000000,5237.000000,24520.000000
30193.000000,56779.000000,5314.000000,24635.000000
30266.000000,56795.000000,5394.000000,24752.000000
30339.000000,56810.000000,5476.000000,24873.000000
30413.000000,56826.000000,5560.000000,24994.000000
30487.000000,56843.000000,5644.000000,25114.000000
30558.000000,56860.000000,5726.000000,25233.000000
30628.000000,56876.000000,5807.000000,25353.000000
30694.000000,56891.000000,5884.000000,25469.000000
30756.000000,56903.000000,5957.000000,25578.000000
30812.000000,56914.000000,6025.000000,25680.000000
30863.000000,56925.000000,6088.000000,25773.000000
30908.000000,56937.000000,6146.000000,25856.000000
30950.000000,56948.000000,6197.000000,25925.000000
30986.000000,56958.000000,6239.000000,25982.000000
31012.000000,56967.000000,6270.000000,26027.000000
31030.000000,56974.000000,6291.000000,26060.000000
31037.000000,56977.000000,6303.000000,26081.000000
31038.000000,56977.000000,6307.000000,26092.000000
31032.000000,56975.000000,6305.000000,26091.000000
31021.000000,56972.000000,6297.000000,26081.000000
31004.000000,56968.000000,6285.000000,26066.000000
30985.000000,56964.000000,6273.000000,26051.000000
30966.000000,56959.000000,6257.000000,26040.000000
30946.000000,56954.000000,6239.000000,26021.000000
30922.000000,56949.000000,6218.000000,25991.000000
30898.000000,56944.000000,6197.000000,25955.000000
30875.000000,56940.000000,6177.000000,25921.000000
30851.000000,56935.000000,6158.000000,25887.000000
30829.000000,56928.000000,6140.000000,25855.000000
30814.000000,56923.000000,6127.000000,25831.000000
30808.000000,56921.000000,6118.000000,25817.000000
30807.000000,56920.000000,6112.000000,25811.000000
30810.000000,56919.000000,6111.000000,25813.000000
30812.000000,56916.000000,6112.000000,25820.000000
30814.000000,56913.000000,6114.000000,25825.000000
30817.000000,56912.000000,6116.000000,25828.000000
30822.000000,56913.000000,6120.000000,25831.000000
30828.000000,56915.000000,6126.000000,25839.000000
30833.000000,56918.000000,6135.000000,25853.000000
30836.000000,56920.000000,6144.000000,25870.000000
30839.000000,56922.000000,6155.000000,25886.000000
30842.000000,56923.000000,6166.000000,25901.000000
30844.000000,56924.000000,6174.000000,25915.000000
30845.000000,56923.000000,6179.000000,25924.000000
30843.000000,56922.000000,6181.000000,25928.000000
30840.000000,56920.000000,6183.000000,25928.000000
30837.000000,56919.000000,6183.000000,25925.000000
30833.000000,56917.000000,6181.000000,25919.000000
30831.000000,56916.000000,6177.000000,25911.000000
30831.000000,56917.000000,6171.000000,25904.000000
30829.000000,56920.000000,6162.000000,25897.000000
30824.000000,56923.000000,6150.000000,25889.000000
30819.000000,56925.000000,6134.000000,25879.000000
30816.000000,56925.000000,6117.000000,25866.000000
30813.000000,56923.000000,6101.000000,25852.000000
30808.000000,56920.000000,6086.000000,25835.000000
30799.000000,56917.000000,6071.000000,25820.000000
30786.000000,56914.000000,6060.000000,25805.000000
30777.000000,56913.000000,6051.000000,25792.000000
30771.000000,56912.000000,6045.000000,25780.000000
30770.000000,56911.000000,6040.000000,25768.000000
30771.000000,56909.000000,6036.000000,25754.000000
30773.000000,56909.000000,6033.000000,25738.000000
30774.000000,56910.000000,6032.000000,25724.000000
30773.000000,56911.000000,6033.000000,25711.000000
30770.000000,56912.000000,6031.000000,25698.000000
30763.000000,56911.000000,6028.000000,25685.000000
30752.000000,56909.000000,6023.000000,25676.000000
30740.000000,56906.000000,6020.000000,25670.000000
30726.000000,56901.000000,6015.000000,25667.000000
30714.000000,56895.000000,6008.000000,25665.000000
30705.000000,56889.000000,6004.000000,25664.000000
30700.000000,56885.000000,6002.000000,25664.000000
30696.000000,56882.000000,6000.000000,25662.000000
30692.000000,56880.000000,5995.000000,25656.000000
30686.000000,56878.000000,5987.000000,25645.000000
30675.000000,56875.000000,5976.000000,25627.000000
30663.000000,56871.000000,5966.000000,25610.000000
30651.000000,56866.000000,5955.000000,25594.000000
30635.000000,56861.000000,5943.000000,25575.000000
30615.000000,56855.000000,5931.000000,25552.000000
30596.000000,56847.000000,5918.000000,25523.000000
30579.000000,56840.000000,5903.000000,25492.000000
30559.000000,56832.000000,5887.000000,25458.000000
30536.000000,56826.000000,5868.000000,25424.000000
30511.000000,56819.000000,5848.000000,25391.000000
30484.000000,56812.000000,5827.000000,25357.000000
30455.000000,56806.000000,5804.000000,25322.000000
30426.000000,56801.000000,5780.000000,25284.000000
30398.000000,56797.000000,5755.000000,25245.000000
30372.000000,56793.000000,5730.000000,25208.000000
30345.000000,56788.000000,5702.000000,25174.000000
30317.000000,56783.000000,5673.000000,25140.000000
30290.000000,56779.000000,5643.000000,25107.000000
30263.000000,56773.000000,5613.000000,25072.000000
30238.000000,56767.000000,5584.000000,25036.000000
30213.000000,56761.000000,5557.000000,25000.000000
30189.000000,56757.000000,5532.000000,24964.000000
30164.000000,56753.000000,5508.000000,24924.000000
30140.000000,56749.000000,5485.000000,24884.000000
30116.000000,56744.000000,5462.000000,24846.000000
30091.000000,56736.000000,5437.000000,24807.000000
30064.000000,56727.000000,5411.000000,24763.000000
30037.000000,56715.000000,5385.000000,24718.000000
30010.000000,56702.000000,5356.000000,24673.000000
29985.000000,56689.000000,5328.000000,24628.000000
29960.000000,56676.000000,5299.000000,24584.000000
29933.000000,56665.000000,5271.000000,24541.000000
29906.000000,56657.000000,5245.000000,24500.000000
29879.000000,56651.000000,5220.000000,24461.000000
29850.000000,56647.000000,5196.000000,24425.000000
29822.000000,56644.000000,5174.000000,24394.000000
29798.000000,56643.000000,5155.000000,24367.000000
29780.000000,56643.000000,5139.000000,24342.000000
29767.000000,56643.000000,5123.000000,24321.000000
29756.000000,56642.000000,5108.000000,24302.000000
29745.000000,56639.000000,5093.000000,24282.000000
29734.000000,56635.000000,5077.000000,24257.000000
29725.000000,56630.000000,5061.000000,24230.000000
29717.000000,56626.000000,5046.000000,24202.000000
29709.000000,56624.000000,5033.000000,24174.000000
29700.000000,56621.000000,5019.000000,24145.000000
29687.000000,56618.000000,5002.000000,24118.000000
29669.000000,56614.000000,4982.000000,24090.000000
29648.000000,56611.000000,4961.000000,24061.000000
29628.000000,56609.000000,4937.000000,24031.000000
29608.000000,56608.000000,4910.000000,23996.000000
29588.000000,56607.000000,4885.000000,23958.000000
29568.000000,56605.000000,4863.000000,23924.000000
29549.000000,56603.000000,4845.000000,23894.000000
29529.000000,56598.000000,4831.000000,23868.000000
29508.000000,56591.000000,4816.000000,23840.000000
29485.000000,56584.000000,4799.000000,23804.000000
29463.000000,56576.000000,4778.000000,23760.000000
29443.000000,56568.000000,4759.000000,23718.000000
29419.000000,56558.000000,4739.000000,23678.000000
29390.000000,56549.000000,4718.000000,23639.000000
29360.000000,56543.000000,4696.000000,23604.000000
29337.000000,56539.000000,4673.000000,23571.000000
29318.000000,56534.000000,4649.000000,23537.000000
29302.000000,56531.000000,4627.000000,23507.000000
29286.000000,56528.000000,4607.000000,23480.000000
29273.000000,56526.000000,4588.000000,23456.000000
29263.000000,56524.000000,4575.000000,23438.000000
29260.000000,56524.000000,4569.000000,23426.000000
29264.000000,56527.000000,4571.000000,23420.000000
29275.000000,56532.000000,4580.000000,23427.000000
29296.000000,56540.000000,4595.000000,23446.000000
29328.000000,56550.000000,4618.000000,23479.000000
29368.000000,56560.000000,4651.000000,23526.000000
29415.000000,56572.000000,4693.000000,23589.000000
29468.000000,56584.000000,4745.000000,23664.000000
29527.000000,56596.000000,4807.000000,23752.000000
29591.000000,56611.000000,4877.000000,23855.000000
29660.000000,56626.000000,4952.000000,23975.000000
29735.000000,56644.000000,5032.000000,24105.000000
29811.000000,56665.000000,5116.000000,24242.000000
29887.000000,56688.000000,5203.000000,24383.000000
29965.000000,56710.000000,5292.000000,24525.000000
30041.000000,56731.000000,5382.000000,24662.000000
30117.000000,56751.000000,5472.000000,24795.000000
30192.000000,56770.000000,5561.000000,24923.000000
30263.000000,56787.000000,5645.000000,25045.000000
30331.000000,56802.000000,5725.000000,25159.000000
30396.000000,56815.000000,5801.000000,25261.000000
30456.000000,56828.000000,5870.000000,25349.000000
30508.000000,56843.000000,5930.000000,25426.000000
30550.000000,56855.000000,5979.000000,25489.000000
30581.000000,56864.000000,6016.000000,25537.000000
30602.000000,56871.000000,6043.000000,25576.000000
30618.000000,56876.000000,6062.000000,25611.000000
30629.000000,56880.000000,6074.000000,25638.000000
30636.000000,56881.000000,6078.000000,25658.000000
30639.000000,56880.000000,6078.000000,25673.000000
30637.000000,56880.000000,6075.000000,25687.000000
30634.000000,56879.000000,6069.000000,25701.000000
30632.000000,56878.000000,6062.000000,25714.000000
30633.000000,56875.000000,6055.000000,25723.000000
30637.000000,56873.000000,6049.000000,25727.000000
30642.000000,56874.000000,6045.000000,25725.000000
30649.000000,56875.000000,6045.000000,25717.000000
30654.000000,56876.000000,6047.000000,25709.000000
30657.000000,56877.000000,6048.000000,25700.000000
30655.000000,56877.000000,6045.000000,25690.000000
30649.000000,56878.000000,6041.000000,25679.000000
30642.000000,56880.000000,6040.000000,25666.000000
30635.000000,56881.000000,6040.000000,25653.000000
30629.000000,56879.000000,6038.000000,25643.000000
30628.000000,56876.000000,6037.000000,25640.000000
30632.000000,56873.000000,6038.000000,25644.000000
30642.000000,56873.000000,6043.000000,25657.000000
30656.000000,56875.000000,6052.000000,25677.000000
30675.000000,56880.000000,6065.000000,25697.000000
30695.000000,56884.000000,6082.000000,25716.000000
30716.000000,56890.000000,6099.000000,25736.000000
30734.000000,56898.000000,6115.000000,25759.000000
30751.000000,56907.000000,6130.000000,25782.000000
30764.000000,56913.000000,6144.000000,25802.000000
30774.000000,56917.000000,6152.000000,25815.000000
30781.000000,56918.000000,6156.000000,25820.000000
30783.000000,56919.000000,6154.000000,25814.000000
30781.000000,56919.000000,6146.000000,25802.000000
30777.000000,56917.000000,6137.000000,25788.000000
30775.000000,56915.000000,6127.000000,25773.000000
30773.000000,56913.000000,6118.000000,25760.000000
30771.000000,56912.000000,6111.000000,25749.000000
30770.000000,56911.000000,6104.000000,25740.000000
30769.000000,56909.000000,6099.000000,25733.000000
30770.000000,56907.000000,6096.000000,25727.000000
30771.000000,56905.000000,6095.000000,25722.000000
30772.000000,56903.000000,6094.000000,25719.000000
30773.000000,56902.000000,6094.000000,25718.000000
30774.000000,56901.000000,6094.000000,25722.000000
30778.000000,56902.000000,6093.000000,25727.000000
30787.000000,56906.000000,6091.000000,25730.000000
30797.000000,56909.000000,6090.000000,25733.000000
30807.000000,56911.000000,6093.000000,25735.000000
30817.000000,56913.000000,6097.000000,25737.000000
30826.000000,56915.000000,6102.000000,25741.000000
30834.000000,56916.000000,6109.000000,25745.000000
30842.000000,56919.000000,6117.000000,25750.000000
30851.000000,56923.000000,6128.000000,25756.000000
30862.000000,56927.000000,6141.000000,25765.000000
30875.000000,56931.000000,6155.000000,25777.000000
30889.000000,56936.000000,6168.000000,25793.000000
30905.000000,56940.000000,6180.000000,25811.000000
30921.000000,56944.000000,6190.000000,25828.000000
30935.000000,56947.000000,6195.000000,25840.000000
30947.000000,56949.000000,6196.000000,25846.000000
30957.000000,56950.000000,6195.000000,25849.000000
30965.000000,56949.000000,6193.000000,25849.000000
30971.000000,56948.000000,6194.000000,25848.000000
30976.000000,56947.000000,6196.000000,25847.000000
30983.000000,56948.000000,6197.000000,25847.000000
30987.000000,56950.000000,6197.000000,25845.000000
30986.000000,56950.000000,6195.000000,25843.000000
30980.000000,56949.000000,6191.000000,25841.000000
30973.000000,56948.000000,6184.000000,25839.000000
30966.000000,56946.000000,6176.000000,25833.000000
30957.000000,56945.000000,6164.000000,25826.000000
30947.000000,56943.000000,6149.000000,25816.000000
30935.000000,56941.000000,6132.000000,25805.000000
30921.000000,56939.000000,6114.000000,25789.000000
30908.000000,56939.000000,6097.000000,25768.000000
30892.000000,56936.000000,6079.000000,25745.000000
30874.000000,56932.000000,6058.000000,25719.000000
30854.000000,56927.000000,6038.000000,25691.000000
30834.000000,56921.000000,6018.000000,25661.000000
30816.000000,56914.000000,5998.000000,25629.000000
30800.000000,56908.000000,5978.000000,25596.000000
30785.000000,56902.000000,5959.000000,25567.000000
30769.000000,56897.000000,5941.000000,25540.000000
30754.000000,56893.000000,5923.000000,25516.000000
30740.000000,56890.000000,5905.000000,25497.000000
30729.000000,56887.000000,5888.000000,25475.000000
30721.000000,56887.000000,5873.000000,25454.000000
30713.000000,56887.000000,5862.000000,25436.000000
30705.000000,56886.000000,5852.000000,25421.000000
30696.000000,56884.000000,5843.000000,25407.000000
30689.000000,56882.000000,5835.000000,25394.000000
30682.000000,56879.000000,5827.000000,25379.000000
30673.000000,56877.000000,5818.000000,25359.000000
30662.000000,56875.000000,5807.000000,25333.000000
30651.000000,56872.000000,5795.000000,25306.000000
30639.000000,56869.000000,5783.000000,25282.000000
30628.000000,56865.000000,5770.000000,25258.000000
30617.000000,56861.000000,5754.000000,25233.000000
30606.000000,56857.000000,5736.000000,25207.000000
30594.000000,56855.000000,5715.000000,25182.000000
30583.000000,56852.000000,5694.000000,25155.000000
30572.000000,56850.000000,5673.000000,25124.000000
30561.000000,56846.000000,5655.000000,25091.000000
30547.000000,56842.000000,5640.000000,25057.000000
30530.000000,56839.000000,5626.000000,25022.000000
30518.000000,56836.000000,5612.000000,24990.000000
30512.000000,56834.000000,5599.000000,24966.000000
30508.000000,56833.000000,5585.000000,24949.000000
30502.000000,56831.000000,5572.000000,24931.000000
30493.000000,56827.000000,5557.000000,24909.000000
30480.000000,56822.000000,5540.000000,24880.000000
30462.000000,56814.000000,5520.000000,24847.000000
30439.000000,56805.000000,5496.000000,24810.000000
30412.000000,56795.000000,5469.000000,24769.000000
30383.000000,56785.000000,5442.000000,24726.000000
30352.000000,56776.000000,5415.000000,24679.000000
30321.000000,56767.000000,5388.000000,24630.000000
30291.000000,56758.000000,5360.000000,24584.000000
30262.000000,56750.000000,5334.000000,24541.000000
30236.000000,56741.000000,5307.000000,24500.000000
30213.000000,56735.000000,5281.000000,24465.000000
30193.000000,56732.000000,5257.000000,24437.000000
30176.000000,56730.000000,5237.000000,24407.000000
30158.000000,56730.000000,5220.000000,24373.000000
30139.000000,56729.000000,5203.000000,24341.000000
30121.000000,56729.000000,5182.000000,24314.000000
30100.000000,56730.000000,5159.000000,24289.000000
30077.000000,56729.000000,5134.000000,24266.000000
30055.000000,56726.000000,5111.000000,24241.000000
30034.000000,56721.000000,5087.000000,24209.000000
30015.000000,56714.000000,5063.000000,24172.000000
29997.000000,56707.000000,5036.000000,24132.000000
29978.000000,56700.000000,5011.000000,24090.000000
29961.000000,56694.000000,4989.000000,24052.000000
29947.000000,56690.000000,4975.000000,24024.000000
29941.000000,56688.000000,4968.000000,24005.000000
29945.000000,56690.000000,4971.000000,24001.000000
29959.000000,56694.000000,4984.000000,24017.000000
29986.000000,56699.000000,5012.000000,24051.000000
30027.000000,56708.000000,5056.000000,24104.000000
30083.000000,56722.000000,5114.000000,24180.000000
30155.000000,56740.000000,5188.000000,24279.000000
30239.000000,56762.000000,5273.000000,24397.000000
30334.000000,56787.000000,5369.000000,24528.000000
30438.000000,56815.000000,5473.000000,24670.000000
30546.000000,56842.000000,5582.000000,24824.000000
30657.000000,56870.000000,5694.000000,24989.000000
30769.000000,56901.000000,5811.000000,25162.000000
30882.000000,56933.000000,5928.000000,25337.000000
30992.000000,56964.000000,6044.000000,25512.000000
31096.000000,56992.000000,6159.000000,25684.000000
31195.000000,57018.000000,6269.000000,25849.000000
31289.000000,57042.000000,6375.000000,26009.000000
31377.000000,57065.000000,6476.000000,26163.000000
31458.000000,57084.000000,6568.000000,26306.000000
31533.000000,57101.000000,6651.000000,26437.000000
31602.000000,57117.000000,6726.000000,26559.000000
31664.000000,57130.000000,6793.000000,26669.000000
31718.000000,57142.000000,6851.000000,26765.000000
31766.000000,57152.000000,6903.000000,26850.000000
31809.000000,57161.000000,6949.000000,26925.000000
31847.000000,57168.000000,6988.000000,26986.000000
31879.000000,57175.000000,7022.000000,27035.000000
31905.000000,57181.000000,7050.000000,27075.000000
31924.000000,57187.000000,7071.000000,27108.000000
31939.000000,57193.000000,7086.000000,27135.000000
31948.000000,57198.000000,7096.000000,27159.000000
31956.000000,57201.000000,7106.000000,27177.000000
31966.000000,57204.000000,7117.000000,27192.000000
31975.000000,57207.000000,7129.000000,27205.000000
31986.000000,57211.000000,7140.000000,27220.000000
32000.000000,57215.000000,7153.000000,27238.000000
32022.000000,57219.000000,7169.000000,27259.000000
32049.000000,57223.000000,7186.000000,27284.000000
32078.000000,57228.000000,7205.000000,27312.000000
32107.000000,57235.000000,7226.000000,27342.000000
32132.000000,57241.000000,7249.000000,27374.000000
32155.000000,57246.000000,7273.000000,27409.000000
32180.000000,57251.000000,7296.000000,27441.000000
32205.000000,57256.000000,7319.000000,27472.000000
32234.000000,57260.000000,7342.000000,27504.000000
32263.000000,57265.000000,7365.000000,27540.000000
32292.000000,57270.000000,7386.000000,27576.000000
32317.000000,57274.000000,7407.000000,27611.000000
32338.000000,57277.000000,7430.000000,27646.000000
32356.000000,57281.000000,7452.000000,27681.000000
32373.000000,57286.000000,7476.000000,27713.000000
32390.000000,57291.000000,7501.000000,27749.000000
32406.000000,57294.000000,7526.000000,27788.000000
32421.000000,57297.000000,7548.000000,27824.000000
32432.000000,57298.000000,7564.000000,27852.000000
32441.000000,57299.000000,7574.000000,27870.000000
32447.000000,57300.000000,7578.000000,27881.000000
32450.000000,57301.000000,7576.000000,27884.000000
32450.000000,57300.000000,7569.000000,27877.000000
32447.000000,57299.000000,7560.000000,27864.000000
32440.000000,57296.000000,7551.000000,27849.000000
32430.000000,57295.000000,7543.000000,27834.000000
32418.000000,57294.000000,7533.000000,27818.000000
32403.000000,57291.000000,7523.000000,27798.000000
32386.000000,57287.000000,7511.000000,27777.000000
32368.000000,57282.000000,7498.000000,27757.000000
32351.000000,57276.000000,7485.000000,27740.000000
32336.000000,57272.000000,7473.000000,27727.000000
32322.000000,57270.000000,7466.000000,27717.000000
32311.000000,57270.000000,7461.000000,27710.000000
32303.000000,57270.000000,7459.000000,27708.000000
32301.000000,57271.000000,7459.000000,27708.000000
32300.000000,57273.000000,7458.000000,27709.000000
32301.000000,57276.000000,7458.000000,27712.000000
32308.000000,57281.000000,7460.000000,27719.000000
32317.000000,57285.000000,7465.000000,27731.000000
32328.000000,57288.000000,7471.000000,27746.000000
32339.000000,57291.000000,7478.000000,27761.000000
32350.000000,57293.000000,7484.000000,27773.000000
32362.000000,57294.000000,7490.000000,27782.000000
32379.000000,57294.000000,7498.000000,27793.000000
32399.000000,57295.000000,7511.000000,27808.000000
32419.000000,57297.000000,7526.000000,27824.000000
32437.000000,57300.000000,7541.000000,27841.000000
32453.000000,57304.000000,7555.000000,27858.000000
32467.000000,57307.000000,7568.000000,27873.000000
32481.000000,57310.000000,7581.000000,27887.000000
32492.000000,57312.000000,7592.000000,27901.000000
32500.000000,57313.000000,7599.000000,27912.000000
32506.000000,57312.000000,7601.000000,27919.000000
32509.000000,57310.000000,7598.000000,27922.000000
32511.000000,57308.000000,7594.000000,27920.000000
32512.000000,57309.000000,7589.000000,27915.000000
32511.000000,57309.000000,7585.000000,27907.000000
32507.000000,57308.000000,7578.000000,27894.000000
32500.000000,57307.000000,7568.000000,27878.000000
32493.000000,57307.000000,7554.000000,27859.000000
32488.000000,57306.000000,7538.000000,27842.000000
32481.000000,57306.000000,7524.000000,27826.000000
32473.000000,57305.000000,7510.000000,27810.000000
32462.000000,57302.000000,7496.000000,27791.000000
32449.000000,57297.000000,7481.000000,27769.000000
32434.000000,57292.000000,7465.000000,27744.000000
32416.000000,57286.000000,7447.000000,27716.000000
32397.000000,57280.000000,7428.000000,27684.000000
32376.000000,57273.000000,7405.000000,27648.000000
32357.000000,57267.000000,7380.000000,27610.000000
32338.000000,57263.000000,7355.000000,27572.000000
32316.000000,57259.000000,7329.000000,27534.000000
32293.000000,57254.000000,7306.000000,27496.000000
32268.000000,57250.000000,7284.000000,27462.000000
32244.000000,57245.000000,7260.000000,27429.000000
32220.000000,57240.000000,7234.000000,27392.000000
32195.000000,57235.000000,7207.000000,27354.000000
32173.000000,57229.000000,7181.000000,27315.000000
32151.000000,57222.000000,7154.000000,27273.000000
32129.000000,57213.000000,7129.000000,27229.000000
32107.000000,57205.000000,7106.000000,27186.000000
32085.000000,57198.000000,7083.000000,27148.000000
32064.000000,57193.000000,7059.000000,27115.000000
32045.000000,57186.000000,7036.000000,27085.000000
32028.000000,57180.000000,7014.000000,27055.000000
32010.000000,57176.000000,6993.000000,27025.000000
31991.000000,57173.000000,6974.000000,26994.000000
31973.000000,57169.000000,6956.000000,26961.000000
31954.000000,57165.000000,6935.000000,26928.000000
31936.000000,57160.000000,6911.000000,26892.000000
31917.000000,57154.000000,6889.000000,26853.000000
31900.000000,57147.000000,6869.000000,26814.000000
31885.000000,57140.000000,6849.000000,26777.000000
31872.000000,57135.000000,6830.000000,26738.000000
31861.000000,57131.000000,6811.000000,26702.000000
31853.000000,57127.000000,6793.000000,26673.000000
31846.000000,57125.000000,6777.000000,26651.000000
31839.000000,57125.000000,6764.000000,26634.000000
31835.000000,57124.000000,6751.000000,26617.000000
31831.000000,57123.000000,6736.000000,26597.000000
31823.000000,57122.000000,6721.000000,26575.000000
31814.000000,57121.000000,6705.000000,26553.000000
31803.000000,57119.000000,6688.000000,26531.000000
31789.000000,57118.000000,6670.000000,26506.000000
31775.000000,57119.000000,6651.000000,26480.000000
31760.000000,57118.000000,6630.000000,26457.000000
31744.000000,57114.000000,6610.000000,26434.000000
31728.000000,57112.000000,6592.000000,26410.000000
31714.000000,57110.000000,6574.000000,26380.000000
31701.000000,57108.000000,6555.000000,26347.000000
31690.000000,57105.000000,6536.000000,26317.000000
31681.000000,57101.000000,6518.000000,26296.000000
31671.000000,57096.000000,6502.000000,26284.000000
31656.000000,57091.000000,6486.000000,26272.000000
31636.000000,57086.000000,6469.000000,26256.000000
31613.000000,57082.000000,6449.000000,26235.000000
31592.000000,57077.000000,6429.000000,26212.000000
31572.000000,57071.000000,6408.000000,26184.000000
31553.000000,57065.000000,6385.000000,26148.000000
31534.000000,57061.000000,6363.000000,26110.000000
31514.000000,57057.000000,6340.000000,26074.000000
31494.000000,57054.000000,6318.000000,26036.000000
31474.000000,57051.000000,6297.000000,25996.000000
31456.000000,57047.000000,6276.000000,25954.000000
31437.000000,57043.000000,6255.000000,25910.000000
31417.000000,57038.000000,6234.000000,25873.000000
31401.000000,57034.000000,6214.000000,25843.000000
31391.000000,57031.000000,6199.000000,25822.000000
31386.000000,57030.000000,6189.000000,25809.000000
31387.000000,57032.000000,6187.000000,25803.000000
31397.000000,57036.000000,6194.000000,25806.000000
31416.000000,57041.000000,6213.000000,25823.000000
31445.000000,57048.000000,6244.000000,25859.000000
31483.000000,57057.000000,6284.000000,25913.000000
31533.000000,57067.000000,6334.000000,25981.000000
31594.000000,57079.000000,6395.000000,26065.000000
31665.000000,57094.000000,6465.000000,26163.000000
31744.000000,57114.000000,6545.000000,26278.000000
31830.000000,57136.000000,6634.000000,26408.000000
31922.000000,57160.000000,6731.000000,26551.000000
32016.000000,57186.000000,6834.000000,26703.000000
32108.000000,57213.000000,6942.000000,26858.000000
32200.000000,57240.000000,7054.000000,27015.000000
32293.000000,57268.000000,7167.000000,27175.000000
32388.000000,57296.000000,7280.000000,27341.000000
32484.000000,57323.000000,7393.000000,27508.000000
32578.000000,57348.000000,7502.000000,27669.000000
32669.000000,57372.000000,7605.000000,27824.000000
32755.000000,57395.000000,7707.000000,27972.000000
32838.000000,57416.000000,7806.000000,28111.000000
32915.000000,57433.000000,7898.000000,28239.000000
32984.000000,57449.000000,7979.000000,28356.000000
33047.000000,57463.000000,8052.000000,28461.000000
33104.000000,57475.000000,8117.000000,28554.000000
33155.000000,57484.000000,8171.000000,28637.000000
33197.000000,57490.000000,8217.000000,28708.000000
33231.000000,57492.000000,8254.000000,28768.000000
33258.000000,57494.000000,8285.000000,28817.000000
33280.000000,57498.000000,8311.000000,28854.000000
33296.000000,57503.000000,8331.000000,28882.000000
33308.000000,57508.000000,8345.000000,28906.000000
33314.000000,57513.000000,8352.000000,28922.000000
33313.000000,57515.000000,8354.000000,28932.000000
33308.000000,57516.000000,8354.000000,28939.000000
33305.000000,57515.000000,8352.000000,28945.000000
33307.000000,57516.000000,8350.000000,28948.000000
33309.000000,57516.000000,8350.000000,28953.000000
33309.000000,57517.000000,8352.000000,28959.000000
33311.000000,57517.000000,8358.000000,28967.000000
33314.000000,57517.000000,8365.000000,28976.000000
33319.000000,57518.000000,8371.000000,28983.000000
33324.000000,57520.000000,8379.000000,28992.000000
33329.000000,57520.000000,8391.000000,29004.000000
33335.000000,57521.000000,8404.000000,29018.000000
33341.000000,57522.000000,8418.000000,29032.000000
33347.000000,57525.000000,8433.000000,29049.000000
33351.000000,57529.000000,8448.000000,29068.000000
33355.000000,57533.000000,8462.000000,29088.000000
33358.000000,57537.000000,8475.000000,29104.000000
33361.000000,57540.000000,8486.000000,29116.000000
33362.000000,57541.000000,8494.000000,29125.000000
33359.000000,57541.000000,8499.000000,29129.000000
33354.000000,57541.000000,8505.000000,29132.000000
33349.000000,57542.000000,8508.000000,29135.000000
33343.000000,57541.000000,8508.000000,29134.000000
33335.000000,57538.000000,8503.000000,29129.000000
33325.000000,57536.000000,8496.000000,29122.000000
33311.000000,57532.000000,8484.000000,29111.000000
33294.000000,57527.000000,8469.000000,29092.000000
33275.000000,57521.000000,8453.000000,29067.000000
33256.000000,57514.000000,8438.000000,29038.000000
33237.000000,57506.000000,8419.000000,29007.000000
33216.000000,57497.000000,8398.000000,28973.000000
33194.000000,57489.000000,8373.000000,28938.000000
33170.000000,57482.000000,8348.000000,28901.000000
33144.000000,57475.000000,8325.000000,28865.000000
33119.000000,57468.000000,8305.000000,28828.000000
33095.000000,57462.000000,8287.000000,28795.000000
33072.000000,57457.000000,8270.000000,28771.000000
33051.000000,57453.000000,8255.000000,28754.000000
33033.000000,57450.000000,8241.000000,28738.000000
33016.000000,57448.000000,8228.000000,28721.000000
33003.000000,57446.000000,8218.000000,28705.000000
32992.000000,57443.000000,8211.000000,28690.000000
32980.000000,57441.000000,8205.000000,28674.000000
32969.000000,57439.000000,8199.000000,28660.000000
32960.000000,57437.000000,8195.000000,28648.000000
32952.000000,57436.000000,8190.000000,28637.000000
32942.000000,57435.000000,8184.000000,28627.000000
32932.000000,57433.000000,8176.000000,28615.000000
32919.000000,57431.000000,8166.000000,28601.000000
32904.000000,57427.000000,8154.000000,28582.000000
32885.000000,57423.000000,8140.000000,28559.000000
32866.000000,57417.000000,8126.000000,28536.000000
32849.000000,57410.000000,8113.000000,28518.000000
32833.000000,57403.000000,8101.000000,28505.000000
32818.000000,57397.000000,8089.000000,28494.000000
32804.000000,57391.000000,8079.000000,28484.000000
32791.000000,57386.000000,8069.000000,28473.000000
32778.000000,57384.000000,8059.000000,28455.000000
32762.000000,57384.000000,8049.000000,28430.000000
32744.000000,57385.000000,8036.000000,28401.000000
32726.000000,57384.000000,8019.000000,28374.000000
32710.000000,57383.000000,7998.000000,28348.000000
32692.000000,57380.000000,7973.000000,28319.000000
32670.000000,57374.000000,7942.000000,28286.000000
32640.000000,57366.000000,7909.000000,28244.000000
32605.000000,57357.000000,7872.000000,28191.000000
32566.000000,57349.000000,7833.000000,28133.000000
32522.000000,57340.000000,7794.000000,28075.000000
32477.000000,57329.000000,7755.000000,28019.000000
32432.000000,57317.000000,7716.000000,27965.000000
32388.000000,57304.000000,7677.000000,27912.000000
32342.000000,57289.000000,7638.000000,27861.000000
32294.000000,57274.000000,7597.000000,27810.000000
32246.000000,57259.000000,7559.000000,27757.000000
32200.000000,57246.000000,7522.000000,27702.000000
32158.000000,57233.000000,7485.000000,27647.000000
32119.000000,57221.000000,7448.000000,27591.000000
32085.000000,57211.000000,7413.000000,27536.000000
32053.000000,57201.000000,7380.000000,27482.000000
32022.000000,57192.000000,7348.000000,27431.000000
31993.000000,57183.000000,7317.000000,27382.000000
31963.000000,57175.000000,7285.000000,27334.000000
31932.000000,57167.000000,7254.000000,27288.000000
31901.000000,57161.000000,7224.000000,27246.000000
31872.000000,57155.000000,7196.000000,27208.000000
31845.000000,57150.000000,7168.000000,27169.000000
31818.000000,57145.000000,7140.000000,27129.000000
31790.000000,57139.000000,7113.000000,27092.000000
31760.000000,57133.000000,7088.000000,27055.000000
31732.000000,57128.000000,7062.000000,27018.000000
31705.000000,57126.000000,7035.000000,26980.000000
31682.000000,57125.000000,7009.000000,26939.000000
31660.000000,57122.000000,6984.000000,26894.000000
31639.000000,57118.000000,6957.000000,26848.000000
31616.000000,57112.000000,6928.000000,26805.000000
31589.000000,57104.000000,6900.000000,26765.000000
31558.000000,57096.000000,6871.000000,26721.000000
31525.000000,57087.000000,6839.000000,26673.000000
31488.000000,57077.000000,6805.000000,26622.000000
31448.000000,57069.000000,6770.000000,26571.000000
31406.000000,57059.000000,6734.000000,26520.000000
31362.000000,57049.000000,6698.000000,26466.000000
31317.000000,57037.000000,6662.000000,26412.000000
31273.000000,57026.000000,6627.000000,26361.000000
31233.000000,57017.000000,6593.000000,26311.000000
31197.000000,57008.000000,6560.000000,26262.000000
31162.000000,56999.000000,6527.000000,26214.000000
31129.000000,56989.000000,6494.000000,26167.000000
31099.000000,56981.000000,6461.000000,26119.000000
31072.000000,56973.000000,6431.000000,26073.000000
31049.000000,56968.000000,6405.000000,26032.000000
31026.000000,56965.000000,6383.000000,25996.000000
31004.000000,56962.000000,6364.000000,25963.000000
30982.000000,56958.000000,6345.000000,25930.000000
30957.000000,56952.000000,6323.000000,25896.000000
30929.000000,56944.000000,6296.000000,25861.000000
30900.000000,56936.000000,6264.000000,25823.000000
30866.000000,56928.000000,6228.000000,25782.000000
30824.000000,56919.000000,6191.000000,25734.000000
30777.000000,56909.000000,6153.000000,25677.000000
30728.000000,56899.000000,6114.000000,25613.000000
30678.000000,56887.000000,6074.000000,25545.000000
30628.000000,56874.000000,6033.000000,25475.000000
30578.000000,56859.000000,5991.000000,25404.000000
30528.000000,56844.000000,5950.000000,25333.000000
30479.000000,56829.000000,5909.000000,25261.000000
30433.000000,56815.000000,5870.000000,25191.000000
30391.000000,56803.000000,5833.000000,25123.000000
30350.000000,56792.000000,5798.000000,25061.000000
30310.000000,56784.000000,5764.000000,25002.000000
30270.000000,56778.000000,5729.000000,24948.000000
30234.000000,56773.000000,5695.000000,24900.000000
30201.000000,56768.000000,5663.000000,24859.000000
30172.000000,56763.000000,5635.000000,24824.000000
30147.000000,56759.000000,5613.000000,24792.000000
30126.000000,56757.000000,5596.000000,24765.000000
30112.000000,56756.000000,5586.000000,24749.000000
30106.000000,56757.000000,5584.000000,24748.000000
30107.000000,56759.000000,5591.000000,24765.000000
30117.000000,56764.000000,5610.000000,24800.000000
30140.000000,56771.000000,5641.000000,24848.000000
30177.000000,56781.000000,5684.000000,24909.000000
30225.000000,56795.000000,5737.000000,24986.000000
30282.000000,56810.000000,5803.000000,25078.000000
30345.000000,56826.000000,5880.000000,25183.000000
30413.000000,56844.000000,5967.000000,25302.000000
30487.000000,56861.000000,6062.000000,25434.000000
30566.000000,56880.000000,6160.000000,25573.000000
30646.000000,56898.000000,6259.000000,25714.000000
30726.000000,56918.000000,6356.000000,25856.000000
30805.000000,56938.000000,6450.000000,25995.000000
30882.000000,56959.000000,6540.000000,26125.000000
30953.000000,56978.000000,6627.000000,26246.000000
31017.000000,56995.000000,6709.000000,26358.000000
31073.000000,57012.000000,6783.000000,26457.000000
31120.000000,57026.000000,6845.000000,26544.000000
31161.000000,57037.000000,6899.000000,26618.000000
31195.000000,57045.000000,6944.000000,26680.000000
31218.000000,57049.000000,6980.000000,26731.000000
31233.000000,57052.000000,7009.000000,26774.000000
31241.000000,57053.000000,7028.000000,26808.000000
31244.000000,57052.000000,7041.000000,26831.000000
31243.000000,57050.000000,7050.000000,26846.000000
31241.000000,57047.000000,7055.000000,26856.000000
31240.000000,57045.000000,7056.000000,26860.000000
31238.000000,57044.000000,7052.000000,26859.000000
31232.000000,57043.000000,7046.000000,26851.000000
31224.000000,57040.000000,7037.000000,26835.000000
31216.000000,57035.000000,7025.000000,26812.000000
31206.000000,57030.000000,7014.000000,26785.000000
31194.000000,57027.000000,7005.000000,26761.000000
31182.000000,57025.000000,6995.000000,26741.000000
31173.000000,57024.000000,6985.000000,26729.000000
31167.000000,57024.000000,6976.000000,26723.000000
31164.000000,57025.000000,6969.000000,26722.000000
31163.000000,57027.000000,6966.000000,26723.000000
31166.000000,57032.000000,6968.000000,26726.000000
31173.000000,57037.000000,6975.000000,26734.000000
31185.000000,57041.000000,6983.000000,26745.000000
31200.000000,57044.000000,6995.000000,26758.000000
31218.000000,57048.000000,7009.000000,26771.000000
31237.000000,57052.000000,7023.000000,26786.000000
31255.000000,57055.000000,7038.000000,26804.000000
31269.000000,57058.000000,7055.000000,26823.000000
31277.000000,57062.000000,7073.000000,26841.000000
31284.000000,57066.000000,7089.000000,26858.000000
31289.000000,57069.000000,7101.000000,26874.000000
31290.000000,57069.000000,7108.000000,26888.000000
31288.000000,57067.000000,7113.000000,26898.000000
31283.000000,57064.000000,7115.000000,26905.000000
31274.000000,57059.000000,7115.000000,26904.000000
31268.000000,57055.000000,7111.000000,26896.000000
31261.000000,57049.000000,7104.000000,26880.000000
31253.000000,57043.000000,7095.000000,26859.000000
31245.000000,57040.000000,7083.000000,26839.000000
31237.000000,57039.000000,7073.000000,26823.000000
31230.000000,57039.000000,7063.000000,26811.000000
31220.000000,57039.000000,7053.000000,26796.000000
31208.000000,57039.000000,7041.000000,26780.000000
31195.000000,57040.000000,7027.000000,26766.000000
31185.000000,57041.000000,7013.000000,26758.000000
31178.000000,57043.000000,6999.000000,26754.000000
31172.000000,57043.000000,6986.000000,26749.000000
31167.000000,57042.000000,6974.000000,26737.000000
31160.000000,57041.000000,6964.000000,26720.000000
31151.000000,57040.000000,6954.000000,26702.000000
31140.000000,57039.000000,6946.000000,26686.000000
31129.000000,57038.000000,6940.000000,26674.000000
31121.000000,57036.000000,6935.000000,26667.000000
31116.000000,57037.000000,6933.000000,26664.000000
31117.000000,57038.000000,6934.000000,26668.000000
31125.000000,57040.000000,6938.000000,26677.000000
31139.000000,57041.000000,6944.000000,26690.000000
31155.000000,57042.000000,6952.000000,26705.000000
31172.000000,57044.000000,6961.000000,26721.000000
31188.000000,57046.000000,6971.000000,26735.000000
31204.000000,57046.000000,6979.000000,26746.000000
31216.000000,57044.000000,6983.000000,26755.000000
31222.000000,57042.000000,6985.000000,26759.000000
31224.000000,57043.000000,6987.000000,26756.000000
31224.000000,57045.000000,6987.000000,26747.000000
31220.000000,57047.000000,6985.000000,26735.000000
31213.000000,57049.000000,6983.000000,26726.000000
31205.000000,57050.000000,6981.000000,26716.000000
31196.000000,57048.000000,6976.000000,26706.000000
31184.000000,57045.000000,6968.000000,26693.000000
31171.000000,57042.000000,6959.000000,26677.000000
31158.000000,57038.000000,6949.000000,26663.000000
31144.000000,57033.000000,6940.000000,26652.000000
31130.000000,57030.000000,6931.000000,26637.000000
31117.000000,57028.000000,6918.000000,26617.000000
31104.000000,57025.000000,6899.000000,26594.000000
31090.000000,57022.000000,6878.000000,26574.000000
31075.000000,57019.000000,6857.000000,26553.000000
31055.000000,57016.000000,6833.000000,26529.000000
31030.000000,57012.000000,6805.000000,26496.000000
30999.000000,57006.000000,6776.000000,26458.000000
30966.000000,57000.000000,6746.000000,26417.000000
30930.000000,56994.000000,6714.000000,26374.000000
30894.000000,56987.000000,6679.000000,26326.000000
30859.000000,56979.000000,6644.000000,26275.000000
30825.000000,56971.000000,6612.000000,26221.000000
30792.000000,56962.000000,6582.000000,26168.000000
30758.000000,56953.000000,6553.000000,26121.000000
30723.000000,56944.000000,6527.000000,26079.000000
30690.000000,56937.000000,6505.000000,26042.000000
30663.000000,56930.000000,6486.000000,26007.000000
30641.000000,56925.000000,6466.000000,25976.000000
30621.000000,56920.000000,6445.000000,25949.000000
30604.000000,56915.000000,6422.000000,25921.000000
30587.000000,56910.000000,6397.000000,25887.000000
30571.000000,56904.000000,6370.000000,25848.000000
30554.000000,56898.000000,6345.000000,25807.000000
30540.000000,56894.000000,6324.000000,25768.000000
30529.000000,56890.000000,6304.000000,25729.000000
30519.000000,56887.000000,6284.000000,25690.000000
30509.000000,56885.000000,6267.000000,25653.000000
30497.000000,56882.000000,6250.000000,25619.000000
30485.000000,56880.000000,6235.000000,25590.000000
30475.000000,56878.000000,6221.000000,25564.000000
30469.000000,56878.000000,6208.000000,25542.000000
30467.000000,56878.000000,6198.000000,25528.000000
30468.000000,56878.000000,6188.000000,25521.000000
30469.000000,56879.000000,6178.000000,25517.000000
30469.000000,56879.000000,6169.000000,25513.000000
30466.000000,56880.000000,6160.000000,25509.000000
30460.000000,56878.000000,6149.000000,25503.000000
30451.000000,56876.000000,6135.000000,25492.000000
30442.000000,56872.000000,6121.000000,25474.000000
30433.000000,56869.000000,6108.000000,25455.000000
30425.000000,56865.000000,6097.000000,25435.000000
30415.000000,56861.000000,6087.000000,25413.000000
30405.000000,56858.000000,6077.000000,25390.000000
30394.000000,56856.000000,6066.000000,25367.000000
30385.000000,56854.000000,6053.000000,25346.000000
30381.000000,56852.000000,6042.000000,25327.000000
30379.000000,56850.000000,6029.000000,25309.000000
30377.000000,56846.000000,6014.000000,25290.000000
30376.000000,56843.000000,6000.000000,25271.000000
30374.000000,56842.000000,5989.000000,25256.000000
30371.000000,56843.000000,5978.000000,25245.000000
30365.000000,56846.000000,5968.000000,25236.000000
30357.000000,56847.000000,5959.000000,25225.000000
30350.000000,56846.000000,5949.000000,25210.000000
30345.000000,56844.000000,5936.000000,25189.000000
30344.000000,56841.000000,5925.000000,25168.000000
30343.000000,56838.000000,5919.000000,25153.000000
30343.000000,56836.000000,5915.000000,25145.000000
30346.000000,56837.000000,5913.000000,25144.000000
30354.000000,56838.000000,5914.000000,25151.000000
30369.000000,56839.000000,5923.000000,25165.000000
30392.000000,56842.000000,5940.000000,25189.000000
30426.000000,56848.000000,5969.000000,25226.000000
30473.000000,56858.000000,6012.000000,25283.000000
30532.000000,56872.000000,6070.000000,25362.000000
30602.000000,56889.000000,6142.000000,25460.000000
30677.000000,56910.000000,6225.000000,25573.000000
30757.000000,56933.000000,6318.000000,25697.000000
30840.000000,56956.000000,6417.000000,25831.000000
30928.000000,56980.000000,6519.000000,25971.000000
31021.000000,57006.000000,6624.000000,26116.000000
31118.000000,57033.000000,6731.000000,26271.000000
31218.000000,57062.000000,6838.000000,26433.000000
31319.000000,57091.000000,6946.000000,26594.000000
31416.000000,57121.000000,7050.000000,26753.000000
31508.000000,57148.000000,7148.000000,26905.000000
31591.000000,57173.000000,7240.000000,27050.000000
31665.000000,57194.000000,7325.000000,27184.000000
31730.000000,57212.000000,7400.000000,27303.000000
31785.000000,57225.000000,7469.000000,27408.000000
31831.000000,57234.000000,7529.000000,27499.000000
31868.000000,57241.000000,7578.000000,27573.000000
31895.000000,57245.000000,7616.000000,27630.000000
31915.000000,57247.000000,7644.000000,27675.000000
31931.000000,57247.000000,7667.000000,27712.000000
31945.000000,57246.000000,7685.000000,27741.000000
31954.000000,57244.000000,7699.000000,27763.000000
31961.000000,57241.000000,7709.000000,27779.000000
31966.000000,57239.000000,7717.000000,27792.000000
31971.000000,57238.000000,7723.000000,27802.000000
31976.000000,57239.000000,7725.000000,27808.000000
31982.000000,57242.000000,7724.000000,27813.000000
31989.000000,57246.000000,7725.000000,27818.000000
31999.000000,57251.000000,7729.000000,27822.000000
32011.000000,57255.000000,7734.000000,27828.000000
32023.000000,57259.000000,7740.000000,27835.000000
32034.000000,57263.000000,7747.000000,27844.000000
32045.000000,57268.000000,7754.000000,27857.000000
32057.000000,57272.000000,7764.000000,27872.000000
32067.000000,57277.000000,7778.000000,27893.000000
32077.000000,57283.000000,7796.000000,27918.000000
32089.000000,57290.000000,7815.000000,27948.000000
32103.000000,57297.000000,7834.000000,27976.000000
32123.000000,57303.000000,7854.000000,28001.000000
32147.000000,57305.000000,7873.000000,28029.000000
32173.000000,57307.000000,7892.000000,28062.000000
32199.000000,57309.000000,7912.000000,28098.000000
32224.000000,57312.000000,7934.000000,28135.000000
32245.000000,57314.000000,7957.000000,28168.000000
32261.000000,57316.000000,7976.000000,28191.000000
32271.000000,57318.000000,7990.000000,28203.000000
32276.000000,57318.000000,7998.000000,28204.000000
32276.000000,57318.000000,8000.000000,28198.000000
32275.000000,57318.000000,7998.000000,28188.000000
32274.000000,57318.000000,7994.000000,28181.000000
32271.000000,57316.000000,7988.000000,28178.000000
32266.000000,57314.000000,7980.000000,28179.000000
32258.000000,57312.000000,7972.000000,28178.000000
32248.000000,57310.000000,7964.000000,28169.000000
32238.000000,57310.000000,7956.000000,28155.000000
32230.000000,57312.000000,7949.000000,28141.000000
32226.000000,57311.000000,7943.000000,28132.000000
32225.000000,57308.000000,7939.000000,28126.000000
32223.000000,57304.000000,7933.000000,28120.000000
32219.000000,57299.000000,7926.000000,28111.000000
32215.000000,57296.000000,7917.000000,28104.000000
32213.000000,57295.000000,7908.000000,28098.000000
32211.000000,57294.000000,7901.000000,28091.000000
32209.000000,57293.000000,7895.000000,28081.000000
32207.000000,57292.000000,7891.000000,28070.000000
32205.000000,57293.000000,7887.000000,28058.000000
32204.000000,57293.000000,7883.000000,28048.000000
32204.000000,57292.000000,7879.000000,28038.000000
32204.000000,57291.000000,7878.000000,28029.000000
32204.000000,57291.000000,7877.000000,28024.000000
32205.000000,57291.000000,7879.000000,28023.000000
32207.000000,57292.000000,7880.000000,28022.000000
32206.000000,57294.000000,7880.000000,28018.000000
32205.000000,57295.000000,7881.000000,28013.000000
32203.000000,57294.000000,7881.000000,28009.000000
32201.000000,57293.000000,7877.000000,28007.000000
32201.000000,57292.000000,7871.000000,28006.000000
32203.000000,57290.000000,7866.000000,28011.000000
32207.000000,57288.000000,7865.000000,28022.000000
32211.000000,57288.000000,7865.000000,28034.000000
32215.000000,57288.000000,7867.000000,28043.000000
32215.000000,57288.000000,7869.000000,28049.000000
32216.000000,57287.000000,7872.000000,28052.000000
32217.000000,57286.000000,7873.000000,28051.000000
32217.000000,57285.000000,7871.000000,28042.000000
32215.000000,57286.000000,7865.000000,28027.000000
32211.000000,57288.000000,7857.000000,28009.000000
32207.000000,57289.000000,7845.000000,27987.000000
32199.000000,57289.000000,7830.000000,27964.000000
32186.000000,57287.000000,7812.000000,27941.000000
32170.000000,57282.000000,7792.000000,27918.000000
32152.000000,57277.000000,7773.000000,27894.000000
32133.000000,57272.000000,7755.000000,27870.000000
32113.000000,57266.000000,7738.000000,27846.000000
32091.000000,57259.000000,7718.000000,27819.000000
32064.000000,57252.000000,7695.000000,27788.000000
32035.000000,57245.000000,7672.000000,27752.000000
32007.000000,57239.000000,7648.000000,27713.000000
31978.000000,57233.000000,7624.000000,27674.000000
31948.000000,57226.000000,7598.000000,27637.000000
31919.000000,57219.000000,7569.000000,27603.000000
31893.000000,57212.000000,7539.000000,27565.000000
31870.000000,57204.000000,7508.000000,27528.000000
31851.000000,57195.000000,7479.000000,27495.000000
31832.000000,57188.000000,7451.000000,27463.000000
31813.000000,57183.000000,7424.000000,27430.000000
31794.000000,57181.000000,7400.000000,27395.000000
31772.000000,57177.000000,7378.000000,27358.000000
31749.000000,57173.000000,7353.000000,27320.000000
31723.000000,57167.000000,7326.000000,27279.000000
31695.000000,57162.000000,7296.000000,27235.000000
31665.000000,57156.000000,7265.000000,27188.000000
31636.000000,57150.000000,7235.000000,27140.000000
31611.000000,57144.000000,7207.000000,27094.000000
31589.000000,57139.000000,7181.000000,27051.000000
31569.000000,57136.000000,7156.000000,27010.000000
31551.000000,57134.000000,7133.000000,26973.000000
31536.000000,57131.000000,7112.000000,26941.000000
31522.000000,57128.000000,7090.000000,26913.000000
31509.000000,57124.000000,7071.000000,26890.000000
31497.000000,57121.000000,7055.000000,26872.000000
31486.000000,57118.000000,7042.000000,26854.000000
31474.000000,57113.000000,7028.000000,26835.000000
31460.000000,57109.000000,7016.000000,26817.000000
31445.000000,57105.000000,7003.000000,26800.000000
31429.000000,57102.000000,6989.000000,26783.000000
31413.000000,57098.000000,6974.000000,26764.000000
31399.000000,57091.000000,6958.000000,26742.000000
31386.000000,57085.000000,6941.000000,26715.000000
31372.000000,57079.000000,6920.000000,26683.000000
31359.000000,57072.000000,6898.000000,26650.000000
31345.000000,57067.000000,6874.000000,26619.000000
31326.000000,57062.000000,6850.000000,26588.000000
31302.000000,57057.000000,6825.000000,26555.000000
31277.000000,57051.000000,6802.000000,26520.000000
31252.000000,57046.000000,6779.000000,26488.000000
31229.000000,57042.000000,6758.000000,26460.000000
31207.000000,57040.000000,6738.000000,26435.000000
31189.000000,57037.000000,6720.000000,26410.000000
31173.000000,57032.000000,6703.000000,26384.000000
31158.000000,57026.000000,6688.000000,26357.000000
31142.000000,57019.000000,6673.000000,26328.000000
31121.000000,57012.000000,6656.000000,26295.000000
31097.000000,57003.000000,6633.000000,26257.000000
31070.000000,56992.000000,6606.000000,26215.000000
31039.000000,56982.000000,6577.000000,26174.000000
31006.000000,56973.000000,6546.000000,26129.000000
30974.000000,56963.000000,6516.000000,26083.000000
30945.000000,56954.000000,6487.000000,26038.000000
30918.000000,56946.000000,6459.000000,25997.000000
30895.000000,56939.000000,6431.000000,25956.000000
30873.000000,56936.000000,6403.000000,25916.000000
30851.000000,56933.000000,6375.000000,25877.000000
30830.000000,56929.000000,6348.000000,25840.000000
30805.000000,56925.000000,6322.000000,25805.000000
30778.000000,56920.000000,6296.000000,25768.000000
30750.000000,56915.000000,6272.000000,25732.000000
30723.000000,56909.000000,6248.000000,25700.000000
30697.000000,56902.000000,6226.000000,25670.000000
30675.000000,56898.000000,6206.000000,25642.000000
30661.000000,56897.000000,6190.000000,25620.000000
30655.000000,56896.000000,6181.000000,25604.000000
30656.000000,56895.000000,6177.000000,25596.000000
30665.000000,56898.000000,6182.000000,25597.000000
30681.000000,56904.000000,6196.000000,25609.000000
30708.000000,56913.000000,6222.000000,25636.000000
30749.000000,56924.000000,6263.000000,25683.000000
30803.000000,56936.000000,6318.000000,25752.000000
30866.000000,56950.000000,6386.000000,25843.000000
30938.000000,56970.000000,6464.000000,25953.000000
31020.000000,56993.000000,6554.000000,26080.000000
31111.000000,57019.000000,6654.000000,26222.000000
31209.000000,57046.000000,6763.000000,26373.000000
31311.000000,57076.000000,6877.000000,26531.000000
31417.000000,57106.000000,6996.000000,26695.000000
31526.000000,57135.000000,7118.000000,26865.000000
31635.000000,57162.000000,7239.000000,27038.000000
31740.000000,57188.000000,7354.000000,27208.000000
31838.000000,57213.000000,7462.000000,27370.000000
31929.000000,57236.000000,7562.000000,27522.000000
32010.000000,57257.000000,7655.000000,27662.000000
32082.000000,57276.000000,7739.000000,27787.000000
32145.000000,57293.000000,7813.000000,27898.000000
32198.000000,57308.000000,7876.000000,27993.000000
32241.000000,57319.000000,7931.000000,28072.000000
32275.000000,57327.000000,7978.000000,28136.000000
32301.000000,57332.000000,8015.000000,28189.000000
32322.000000,57334.000000,8045.000000,28232.000000
32340.000000,57334.000000,8068.000000,28263.000000
32358.000000,57333.000000,8085.000000,28289.000000
32373.000000,57334.000000,8100.000000,28313.000000
32384.000000,57336.000000,8110.000000,28332.000000
32391.000000,57340.000000,8118.000000,28344.000000
32399.000000,57344.000000,8126.000000,28353.000000
32408.000000,57348.000000,8134.000000,28363.000000
32417.000000,57354.000000,8141.000000,28372.000000
32428.000000,57363.000000,8147.000000,28382.000000
32438.000000,57371.000000,8151.000000,28396.000000
32447.000000,57377.000000,8154.000000,28411.000000
32458.000000,57382.000000,8158.000000,28424.000000
32470.000000,57386.000000,8164.000000,28433.000000
32483.000000,57387.000000,8174.000000,28443.000000
32497.000000,57390.000000,8187.000000,28454.000000
32510.000000,57393.000000,8201.000000,28468.000000
32522.000000,57394.000000,8215.000000,28483.000000
32533.000000,57395.000000,8229.000000,28500.000000
32547.000000,57396.000000,8245.000000,28522.000000
32566.000000,57398.000000,8265.000000,28546.000000
32585.000000,57401.000000,8287.000000,28570.000000
32601.000000,57404.000000,8311.000000,28600.000000
32615.000000,57409.000000,8334.000000,28636.000000
32628.000000,57414.000000,8352.000000,28672.000000
32641.000000,57419.000000,8369.000000,28702.000000
32654.000000,57423.000000,8385.000000,28732.000000
32665.000000,57425.000000,8401.000000,28763.000000
32674.000000,57429.000000,8417.000000,28790.000000
32684.000000,57433.000000,8433.000000,28813.000000
32694.000000,57436.000000,8446.000000,28829.000000
32703.000000,57437.000000,8455.000000,28839.000000
32708.000000,57436.000000,8457.000000,28842.000000
32710.000000,57435.000000,8457.000000,28838.000000
32709.000000,57434.000000,8456.000000,28826.000000
32703.000000,57433.000000,8450.000000,28805.000000
32690.000000,57432.000000,8440.000000,28779.000000
32673.000000,57430.000000,8427.000000,28750.000000
32657.000000,57428.000000,8411.000000,28721.000000
32644.000000,57425.000000,8393.000000,28696.000000
32630.000000,57422.000000,8375.000000,28673.000000
32615.000000,57418.000000,8357.000000,28653.000000
32602.000000,57414.000000,8340.000000,28637.000000
32591.000000,57408.000000,8325.000000,28625.000000
32583.000000,57403.000000,8310.000000,28617.000000
32578.000000,57398.000000,8299.000000,28614.000000
32576.000000,57396.000000,8293.000000,28612.000000
32574.000000,57398.000000,8292.000000,28610.000000
32574.000000,57400.000000,8292.000000,28609.000000
32575.000000,57400.000000,8294.000000,28611.000000
32579.000000,57401.000000,8299.000000,28618.000000
32589.000000,57402.000000,8306.000000,28630.000000
32602.000000,57403.000000,8316.000000,28643.000000
32615.000000,57404.000000,8324.000000,28653.000000
32626.000000,57406.000000,8329.000000,28659.000000
32635.000000,57410.000000,8331.000000,28662.000000
32640.000000,57412.000000,8331.000000,28660.000000
32643.000000,57414.000000,8330.000000,28656.000000
32646.000000,57412.000000,8328.000000,28649.000000
32648.000000,57408.000000,8327.000000,28644.000000
32650.000000,57406.000000,8325.000000,28643.000000
32649.000000,57404.000000,8324.000000,28645.000000
32643.000000,57403.000000,8326.000000,28647.000000
32635.000000,57401.000000,8327.000000,28646.000000
32627.000000,57401.000000,8324.000000,28641.000000
32618.000000,57402.000000,8318.000000,28631.000000
32610.000000,57402.000000,8311.000000,28622.000000
32601.000000,57403.000000,8302.000000,28615.000000
32593.000000,57404.000000,8292.000000,28609.000000
32584.000000,57404.000000,8283.000000,28602.000000
32577.000000,57403.000000,8273.000000,28594.000000
32569.000000,57401.000000,8260.000000,28579.000000
32561.000000,57400.000000,8244.000000,28558.000000
32554.000000,57399.000000,8229.000000,28535.000000
32548.000000,57399.000000,8215.000000,28511.000000
32537.000000,57398.000000,8201.000000,28487.000000
32524.000000,57396.000000,8185.000000,28465.000000
32511.000000,57393.000000,8167.000000,28443.000000
32499.000000,57390.000000,8149.000000,28422.000000
32486.000000,57387.000000,8131.000000,28401.000000
32471.000000,57383.000000,8113.000000,28378.000000
32455.000000,57380.000000,8091.000000,28350.000000
32438.000000,57377.000000,8066.000000,28319.000000
32418.000000,57372.000000,8039.000000,28286.000000
32395.000000,57365.000000,8010.000000,28249.000000
32369.000000,57356.000000,7981.000000,28208.000000
32341.000000,57347.000000,7953.000000,28168.000000
32315.000000,57341.000000,7928.000000,28128.000000
32291.000000,57337.000000,7907.000000,28088.000000
32269.000000,57332.000000,7886.000000,28047.000000
32248.000000,57326.000000,7864.000000,28006.000000
32227.000000,57321.000000,7841.000000,27963.000000
32208.000000,57315.000000,7818.000000,27923.000000
32189.000000,57310.000000,7794.000000,27889.000000
32170.000000,57303.000000,7769.000000,27858.000000
32152.000000,57293.000000,7745.000000,27826.000000
32133.000000,57284.000000,7720.000000,27794.000000
32113.000000,57276.000000,7697.000000,27764.000000
32092.000000,57269.000000,7674.000000,27736.000000
32070.000000,57262.000000,7651.000000,27705.000000
32052.000000,57257.000000,7627.000000,27673.000000
32035.000000,57252.000000,7604.000000,27639.000000
32020.000000,57249.000000,7583.000000,27605.000000
32005.000000,57248.000000,7564.000000,27570.000000
31992.000000,57248.000000,7545.000000,27537.000000
31978.000000,57248.000000,7526.000000,27508.000000
31961.000000,57246.000000,7507.000000,27480.000000
31940.000000,57242.000000,7487.000000,27451.000000
31916.000000,57238.000000,7465.000000,27421.000000
31890.000000,57234.000000,7441.000000,27390.000000
31863.000000,57229.000000,7413.000000,27354.000000
31833.000000,57222.000000,7387.000000,27314.000000
31801.000000,57212.000000,7363.000000,27269.000000
31769.000000,57202.000000,7340.000000,27222.000000
31740.000000,57193.000000,7314.000000,27174.000000
31712.000000,57186.000000,7288.000000,27129.000000
31686.000000,57180.000000,7262.000000,27090.000000
31663.000000,57173.000000,7236.000000,27061.000000
31642.000000,57165.000000,7210.000000,27036.000000
31623.000000,57157.000000,7187.000000,27012.000000
31606.000000,57151.000000,7167.000000,26989.000000
31590.000000,57148.000000,7150.000000,26968.000000
31575.000000,57146.000000,7135.000000,26950.000000
31561.000000,57144.000000,7121.000000,26932.000000
31547.000000,57143.000000,7106.000000,26917.000000
31532.000000,57140.000000,7089.000000,26901.000000
31517.000000,57137.000000,7069.000000,26881.000000
31501.000000,57135.000000,7048.000000,26858.000000
31485.000000,57132.000000,7028.000000,26833.000000
31468.000000,57129.000000,7009.000000,26806.000000
31451.000000,57125.000000,6989.000000,26775.000000
31435.000000,57122.000000,6969.000000,26739.000000
31418.000000,57118.000000,6949.000000,26702.000000
31400.000000,57113.000000,6930.000000,26667.000000
31380.000000,57107.000000,6909.000000,26631.000000
31362.000000,57102.000000,6884.000000,26596.000000
31346.000000,57097.000000,6858.000000,26561.000000
31333.000000,57092.000000,6833.000000,26527.000000
31321.000000,57087.000000,6811.000000,26495.000000
31309.000000,57083.000000,6790.000000,26465.000000
31296.000000,57082.000000,6769.000000,26438.000000
31279.000000,57080.000000,6746.000000,26412.000000
31259.000000,57077.000000,6722.000000,26382.000000
31236.000000,57073.000000,6699.000000,26348.000000
31214.000000,57070.000000,6676.000000,26312.000000
31192.000000,57065.000000,6650.000000,26273.000000
31169.000000,57058.000000,6623.000000,26231.000000
31145.000000,57050.000000,6597.000000,26188.000000
31120.000000,57044.000000,6571.000000,26144.000000
31095.000000,57037.000000,6543.000000,26097.000000
31068.000000,57031.000000,6513.000000,26049.000000
31040.000000,57025.000000,6482.000000,26002.000000
31016.000000,57018.000000,6452.000000,25958.000000
30996.000000,57012.000000,6424.000000,25916.000000
30977.000000,57006.000000,6397.000000,25873.000000
30960.000000,57001.000000,6373.000000,25831.000000
30944.000000,56999.000000,6354.000000,25801.000000
30934.000000,56999.000000,6342.000000,25784.000000
30932.000000,57000.000000,6338.000000,25779.000000
30939.000000,57002.000000,6346.000000,25786.000000
30958.000000,57007.000000,6367.000000,25808.000000
30989.000000,57016.000000,6403.000000,25850.000000
31031.000000,57028.000000,6454.000000,25912.000000
31084.000000,57043.000000,6517.000000,25993.000000
31148.000000,57060.000000,6590.000000,26089.000000
31220.000000,57078.000000,6673.000000,26201.000000
31301.000000,57096.000000,6767.000000,26330.000000
31390.000000,57117.000000,6870.000000,26469.000000
31486.000000,57142.000000,6977.000000,26617.000000
31589.000000,57169.000000,7088.000000,26772.000000
31695.000000,57198.000000,7201.000000,26930.000000
31801.000000,57225.000000,7313.000000,27090.000000
31906.000000,57250.000000,7426.000000,27254.000000
32008.000000,57275.000000,7537.000000,27422.000000
32106.000000,57298.000000,7646.000000,27590.000000
32198.000000,57320.000000,7749.000000,27751.000000
32283.000000,57342.000000,7843.000000,27901.000000
32358.000000,57363.000000,7928.000000,28035.000000
32424.000000,57381.000000,8004.000000,28153.000000
32479.000000,57395.000000,8071.000000,28256.000000
32523.000000,57406.000000,8128.000000,28340.000000
32556.000000,57414.000000,8176.000000,28408.000000
32580.000000,57419.000000,8216.000000,28462.000000
32598.000000,57422.000000,8248.000000,28506.000000
32614.000000,57426.000000,8273.000000,28539.000000
32625.000000,57431.000000,8290.000000,28565.000000
32632.000000,57435.000000,8300.000000,28584.000000
32638.000000,57437.000000,8306.000000,28594.000000
32644.000000,57439.000000,8308.000000,28598.000000
32651.000000,57440.000000,8310.000000,28599.000000
32660.000000,57441.000000,8313.000000,28603.000000
32668.000000,57442.000000,8316.000000,28607.000000
32674.000000,57444.000000,8320.000000,28611.000000
32680.000000,57446.000000,8326.000000,28615.000000
32688.000000,57449.000000,8332.000000,28623.000000
32698.000000,57453.000000,8339.000000,28636.000000
32712.000000,57456.000000,8347.000000,28650.000000
32727.000000,57458.000000,8357.000000,28665.000000
32744.000000,57461.000000,8369.000000,28686.000000
32764.000000,57467.000000,8384.000000,28714.000000
32791.000000,57474.000000,8402.000000,28746.000000
32822.000000,57482.000000,8423.000000,28778.000000
32850.000000,57489.000000,8446.000000,28812.000000
32877.000000,57496.000000,8471.000000,28847.000000
32904.000000,57503.000000,8498.000000,28877.000000
32933.000000,57509.000000,8524.000000,28905.000000
32961.000000,57513.000000,8549.000000,28932.000000
32987.000000,57516.000000,8572.000000,28961.000000
33009.000000,57519.000000,8592.000000,28987.000000
33024.000000,57521.000000,8607.000000,29009.000000
33033.000000,57523.000000,8618.000000,29026.000000
33039.000000,57524.000000,8628.000000,29043.000000
33043.000000,57524.000000,8637.000000,29055.000000
33043.000000,57525.000000,8645.000000,29064.000000
33041.000000,57525.000000,8650.000000,29070.000000
33037.000000,57525.000000,8652.000000,29071.000000
33032.000000,57524.000000,8649.000000,29065.000000
33025.000000,57522.000000,8641.000000,29056.000000
33013.000000,57519.000000,8629.000000,29043.000000
32998.000000,57518.000000,8616.000000,29029.000000
32981.000000,57516.000000,8605.000000,29014.000000
32965.000000,57514.000000,8594.000000,28999.000000
32951.000000,57512.000000,8581.000000,28985.000000
32937.000000,57510.000000,8568.000000,28971.000000
32923.000000,57509.000000,8554.000000,28956.000000
32910.000000,57508.000000,8537.000000,28939.000000
32897.000000,57507.000000,8519.000000,28919.000000
32884.000000,57505.000000,8498.000000,28897.000000
32871.000000,57501.000000,8479.000000,28872.000000
32856.000000,57496.000000,8461.000000,28851.000000
32842.000000,57492.000000,8445.000000,28833.000000
32828.000000,57489.000000,8434.000000,28816.000000
32815.000000,57485.000000,8424.000000,28801.000000
32801.000000,57478.000000,8415.000000,28787.000000
32789.000000,57472.000000,8409.000000,28772.000000
32780.000000,57468.000000,8404.000000,28756.000000
32774.000000,57465.000000,8399.000000,28738.000000
32770.000000,57462.000000,8395.000000,28720.000000
32768.000000,57460.000000,8393.000000,28705.000000
32767.000000,57462.000000,8392.000000,28693.000000
32766.000000,57464.000000,8388.000000,28681.000000
32766.000000,57466.000000,8382.000000,28671.000000
32767.000000,57466.000000,8376.000000,28663.000000
32768.000000,57466.000000,8367.000000,28654.000000
32768.000000,57464.000000,8360.000000,28646.000000
32765.000000,57462.000000,8353.000000,28637.000000
32759.000000,57462.000000,8345.000000,28626.000000
32746.000000,57460.000000,8336.000000,28607.000000
32728.000000,57456.000000,8324.000000,28584.000000
32708.000000,57451.000000,8311.000000,28559.000000
32686.000000,57445.000000,8295.000000,28532.000000
32661.000000,57436.000000,8275.000000,28501.000000
32631.000000,57425.000000,8251.000000,28465.000000
32599.000000,57415.000000,8222.000000,28425.000000
32566.000000,57405.000000,8191.000000,28381.000000
32530.000000,57394.000000,8158.000000,28334.000000
32489.000000,57382.000000,8123.000000,28284.000000
32448.000000,57371.000000,8087.000000,28235.000000
32411.000000,57361.000000,8051.000000,28189.000000
32379.000000,57353.000000,8018.000000,28142.000000
32352.000000,57346.000000,7988.000000,28096.000000
32326.000000,57339.000000,7960.000000,28052.000000
32299.000000,57334.000000,7931.000000,28010.000000
32269.000000,57329.000000,7900.000000,27969.000000
32238.000000,57324.000000,7869.000000,27927.000000
32205.000000,57319.000000,7839.000000,27889.000000
32176.000000,57312.000000,7810.000000,27855.000000
32150.000000,57306.000000,7780.000000,27819.000000
32125.000000,57301.000000,7751.000000,27780.000000
32098.000000,57295.000000,7719.000000,27736.000000
32066.000000,57287.000000,7685.000000,27685.000000
32031.000000,57278.000000,7649.000000,27626.000000
31993.000000,57269.000000,7611.000000,27563.000000
31952.000000,57260.000000,7569.000000,27500.000000
31908.000000,57250.000000,7524.000000,27438.000000
31860.000000,57240.000000,7480.000000,27374.000000
31807.000000,57228.000000,7435.000000,27308.000000
31751.000000,57214.000000,7390.000000,27242.000000
31693.000000,57199.000000,7344.000000,27174.000000
31639.000000,57183.000000,7298.000000,27105.000000
31587.000000,57168.000000,7251.000000,27038.000000
31535.000000,57154.000000,7204.000000,26972.000000
31484.000000,57141.000000,7157.000000,26907.000000
31439.000000,57129.000000,7111.000000,26842.000000
31397.000000,57118.000000,7069.000000,26779.000000
31356.000000,57107.000000,7031.000000,26719.000000
31317.000000,57098.000000,6996.000000,26663.000000
31281.000000,57090.000000,6962.000000,26611.000000
31245.000000,57082.000000,6931.000000,26564.000000
31207.000000,57074.000000,6900.000000,26518.000000
31171.000000,57065.000000,6870.000000,26472.000000
31139.000000,57057.000000,6840.000000,26426.000000
31112.000000,57051.000000,6812.000000,26384.000000
31086.000000,57047.000000,6784.000000,26343.000000
31060.000000,57041.000000,6755.000000,26302.000000
31036.000000,57034.000000,6726.000000,26260.000000
31013.000000,57026.000000,6698.000000,26218.000000
30991.000000,57019.000000,6670.000000,26176.000000
30968.000000,57013.000000,6640.000000,26135.000000
30940.000000,57006.000000,6610.000000,26092.000000
30905.000000,56999.000000,6580.000000,26046.000000
30868.000000,56992.000000,6550.000000,25999.000000
30830.000000,56984.000000,6520.000000,25952.000000
30792.000000,56977.000000,6490.000000,25907.000000
30757.000000,56970.000000,6461.000000,25860.000000
30725.000000,56965.000000,6433.000000,25810.000000
30695.000000,56959.000000,6406.000000,25762.000000
30665.000000,56954.000000,6377.000000,25715.000000
30638.000000,56948.000000,6350.000000,25670.000000
30614.000000,56943.000000,6325.000000,25628.000000
30593.000000,56939.000000,6304.000000,25591.000000
30573.000000,56935.000000,6283.000000,25558.000000
30552.000000,56931.000000,6261.000000,25524.000000
30528.000000,56927.000000,6236.000000,25485.000000
30507.000000,56923.000000,6209.000000,25445.000000
30488.000000,56918.000000,6181.000000,25405.000000
30470.000000,56912.000000,6153.000000,25363.000000
30453.000000,56908.000000,6124.000000,25320.000000
30435.000000,56903.000000,6095.000000,25275.000000
30415.000000,56899.000000,6068.000000,25228.000000
30393.000000,56895.000000,6042.000000,25183.000000
30373.000000,56891.000000,6017.000000,25140.000000
30351.000000,56887.000000,5991.000000,25099.000000
30328.000000,56883.000000,5965.000000,25061.000000
30303.000000,56878.000000,5938.000000,25023.000000
30278.000000,56872.000000,5911.000000,24984.000000
30250.000000,56865.000000,5883.000000,24945.000000
30220.000000,56858.000000,5856.000000,24903.000000
30187.000000,56852.000000,5828.000000,24856.000000
30155.000000,56847.000000,5800.000000,24805.000000
30128.000000,56842.000000,5772.000000,24758.000000
30105.000000,56837.000000,5747.000000,24716.000000
30083.000000,56832.000000,5724.000000,24680.000000
30064.000000,56828.000000,5703.000000,24651.000000
30050.000000,56826.000000,5685.000000,24626.000000
30044.000000,56823.000000,5668.000000,24605.000000
30044.000000,56823.000000,5654.000000,24589.000000
30049.000000,56823.000000,5647.000000,24582.000000
30060.000000,56824.000000,5649.000000,24587.000000
30082.000000,56827.000000,5660.000000,24608.000000
30111.000000,56832.000000,5681.000000,24642.000000
30146.000000,56839.000000,5712.000000,24689.000000
30189.000000,56849.000000,5754.000000,24752.000000
30244.000000,56863.000000,5809.000000,24833.000000
30311.000000,56881.000000,5875.000000,24927.000000
30388.000000,56902.000000,5952.000000,25034.000000
30473.000000,56923.000000,6040.000000,25154.000000
30563.000000,56944.000000,6136.000000,25286.000000
30656.000000,56967.000000,6241.000000,25428.000000
30754.000000,56992.000000,6353.000000,25580.000000
30854.000000,57021.000000,6468.000000,25738.000000
30954.000000,57053.000000,6582.000000,25898.000000
31052.000000,57084.000000,6693.000000,26056.000000
31147.000000,57112.000000,6798.000000,26209.000000
31236.000000,57138.000000,6899.000000,26356.000000
31316.000000,57161.000000,6994.000000,26494.000000
31386.000000,57181.000000,7079.000000,26621.000000
31447.000000,57196.000000,7154.000000,26733.000000
31496.000000,57208.000000,7218.000000,26830.000000
31535.000000,57219.000000,7271.000000,26912.000000
31565.000000,57228.000000,7311.000000,26976.000000
31585.000000,57233.000000,7337.000000,27022.000000
31600.000000,57237.000000,7354.000000,27054.000000
31608.000000,57240.000000,7362.000000,27078.000000
31608.000000,57240.000000,7362.000000,27092.000000
31602.000000,57238.000000,7358.000000,27094.000000
31593.000000,57235.000000,7350.000000,27084.000000
31582.000000,57230.000000,7338.000000,27066.000000
31571.000000,57224.000000,7323.000000,27045.000000
31559.000000,57218.000000,7308.000000,27021.000000
31548.000000,57213.000000,7294.000000,26997.000000
31537.000000,57209.000000,7281.000000,26975.000000
31526.000000,57206.000000,7268.000000,26957.000000
31517.000000,57203.000000,7255.000000,26940.000000
31507.000000,57201.000000,7244.000000,26923.000000
31497.000000,57199.000000,7235.000000,26903.000000
31490.000000,57198.000000,7226.000000,26883.000000
31486.000000,57196.000000,7219.000000,26869.000000
31482.000000,57194.000000,7213.000000,26859.000000
31478.000000,57190.000000,7205.000000,26849.000000
31470.000000,57187.000000,7197.000000,26837.000000
31461.000000,57186.000000,7192.000000,26826.000000
31452.000000,57184.000000,7189.000000,26818.000000
31445.000000,57184.000000,7187.000000,26815.000000
31444.000000,57186.000000,7187.000000,26817.000000
31449.000000,57190.000000,7192.000000,26827.000000
31455.000000,57193.000000,7201.000000,26841.000000
31459.000000,57195.000000,7212.000000,26853.000000
31463.000000,57196.000000,7220.000000,26864.000000
31466.000000,57197.000000,7228.000000,26876.000000
31467.000000,57197.000000,7234.000000,26888.000000
31466.000000,57198.000000,7240.000000,26898.000000
31465.000000,57197.000000,7243.000000,26905.000000
31463.000000,57196.000000,7241.000000,26908.000000
31460.000000,57196.000000,7234.000000,26906.000000
31459.000000,57195.000000,7225.000000,26898.000000
31457.000000,57194.000000,7216.000000,26887.000000
31450.000000,57194.000000,7206.000000,26876.000000
31438.000000,57192.000000,7193.000000,26864.000000
31422.000000,57190.000000,7176.000000,26845.000000
31406.000000,57187.000000,7158.000000,26822.000000
31391.000000,57183.000000,7142.000000,26798.000000
31378.000000,57179.000000,7127.000000,26774.000000
31364.000000,57175.000000,7110.000000,26749.000000
31351.000000,57172.000000,7097.000000,26726.000000
31341.000000,57170.000000,7085.000000,26704.000000
31332.000000,57167.000000,7075.000000,26683.000000
31323.000000,57162.000000,7064.000000,26661.000000
31314.000000,57157.000000,7052.000000,26640.000000
31309.000000,57155.000000,7045.000000,26623.000000
31307.000000,57157.000000,7041.000000,26610.000000
31308.000000,57161.000000,7039.000000,26602.000000
31313.000000,57165.000000,7036.000000,26599.000000
31320.000000,57169.000000,7034.000000,26599.000000
31325.000000,57172.000000,7035.000000,26601.000000
31328.000000,57173.000000,7035.000000,26600.000000
31328.000000,57174.000000,7034.000000,26597.000000
31329.000000,57175.000000,7030.000000,26595.000000
31332.000000,57176.000000,7027.000000,26597.000000
31333.000000,57175.000000,7023.000000,26596.000000
31330.000000,57171.000000,7018.000000,26590.000000
31325.000000,57167.000000,7013.000000,26582.000000
31316.000000,57163.000000,7006.000000,26569.000000
31305.000000,57160.000000,7000.000000,26553.000000
31292.000000,57157.000000,6994.000000,26536.000000
31279.000000,57153.000000,6988.000000,26521.000000
31266.000000,57150.000000,6980.000000,26506.000000
31255.000000,57148.000000,6969.000000,26486.000000
31243.000000,57145.000000,6956.000000,26463.000000
31228.000000,57141.000000,6940.000000,26439.000000
31210.000000,57135.000000,6920.000000,26414.000000
31189.000000,57131.000000,6896.000000,26385.000000
31168.000000,57128.000000,6871.000000,26353.000000
31144.000000,57123.000000,6843.000000,26321.000000
31116.000000,57116.000000,6812.000000,26287.000000
31087.000000,57109.000000,6780.000000,26250.000000
31058.000000,57103.000000,6748.000000,26208.000000
31028.000000,57095.000000,6720.000000,26163.000000
30996.000000,57087.000000,6690.000000,26114.000000
30962.000000,57078.000000,6656.000000,26061.000000
30927.000000,57068.000000,6622.000000,26004.000000
30891.000000,57059.000000,6589.000000,25951.000000
30858.000000,57052.000000,6557.000000,25905.000000
30827.000000,57046.000000,6526.000000,25864.000000
30798.000000,57041.000000,6495.000000,25824.000000
30771.000000,57036.000000,6467.000000,25787.000000
30746.000000,57030.000000,6440.000000,25748.000000
30723.000000,57023.000000,6415.000000,25708.000000
30699.000000,57017.000000,6389.000000,25668.000000
30679.000000,57011.000000,6365.000000,25633.000000
30662.000000,57007.000000,6344.000000,25601.000000
30644.000000,57003.000000,6325.000000,25572.000000
30625.000000,56998.000000,6307.000000,25543.000000
30610.000000,56995.000000,6288.000000,25515.000000
30599.000000,56993.000000,6269.000000,25486.000000
30590.000000,56990.000000,6251.000000,25456.000000
30579.000000,56986.000000,6234.000000,25424.000000
30568.000000,56981.000000,6217.000000,25391.000000
30556.000000,56976.000000,6200.000000,25358.000000
30543.000000,56973.000000,6184.000000,25326.000000
30528.000000,56970.000000,6169.000000,25293.000000
30508.000000,56967.000000,6151.000000,25258.000000
30485.000000,56965.000000,6130.000000,25221.000000
30463.000000,56961.000000,6108.000000,25185.000000
30442.000000,56957.000000,6085.000000,25151.000000
30423.000000,56951.000000,6062.000000,25121.000000
30408.000000,56944.000000,6043.000000,25093.000000
30396.000000,56936.000000,6026.000000,25068.000000
30386.000000,56930.000000,6013.000000,25047.000000
30377.000000,56925.000000,6000.000000,25028.000000
30368.000000,56923.000000,5988.000000,25009.000000
30360.000000,56924.000000,5975.000000,24993.000000
30355.000000,56924.000000,5965.000000,24979.000000
30351.000000,56925.000000,5957.000000,24964.000000
30345.000000,56926.000000,5949.000000,24948.000000
30338.000000,56927.000000,5939.000000,24936.000000
30332.000000,56926.000000,5927.000000,24926.000000
30325.000000,56923.000000,5914.000000,24916.000000
30315.000000,56921.000000,5899.000000,24906.000000
30305.000000,56919.000000,5885.000000,24894.000000
30296.000000,56915.000000,5872.000000,24878.000000
30286.000000,56910.000000,5857.000000,24854.000000
30275.000000,56905.000000,5840.000000,24823.000000
30262.000000,56901.000000,5823.000000,24792.000000
30247.000000,56897.000000,5805.000000,24764.000000
30230.000000,56893.000000,5787.000000,24737.000000
30212.000000,56888.000000,5766.000000,24711.000000
30195.000000,56882.000000,5745.000000,24683.000000
30181.000000,56877.000000,5726.000000,24658.000000
30167.000000,56873.000000,5707.000000,24636.000000
30153.000000,56872.000000,5688.000000,24615.000000
30138.000000,56871.000000,5669.000000,24596.000000
30121.000000,56869.000000,5653.000000,24579.000000
30104.000000,56866.000000,5638.000000,24558.000000
30087.000000,56864.000000,5623.000000,24529.000000
30073.000000,56863.000000,5607.000000,24498.000000
30061.000000,56864.000000,5594.000000,24473.000000
30053.000000,56864.000000,5585.000000,24455.000000
30054.000000,56863.000000,5583.000000,24446.000000
30064.000000,56864.000000,5592.000000,24452.000000
30084.000000,56866.000000,5612.000000,24472.000000
30112.000000,56872.000000,5644.000000,24508.000000
30150.000000,56881.000000,5685.000000,24562.000000
30199.000000,56894.000000,5737.000000,24638.000000
30259.000000,56912.000000,5800.000000,24732.000000
30329.000000,56933.000000,5875.000000,24838.000000
30404.000000,56955.000000,5958.000000,24954.000000
30482.000000,56978.000000,6045.000000,25081.000000
30561.000000,57001.000000,6133.000000,25213.000000
30641.000000,57020.000000,6223.000000,25348.000000
30722.000000,57039.000000,6312.000000,25487.000000
30804.000000,57059.000000,6401.000000,25628.000000
30888.000000,57079.000000,6492.000000,25768.000000
30972.000000,57098.000000,6583.000000,25904.000000
31054.000000,57117.000000,6673.000000,26037.000000
31133.000000,57134.000000,6758.000000,26170.000000
31206.000000,57151.000000,6839.000000,26297.000000
31271.000000,57167.000000,6916.000000,26417.000000
31332.000000,57183.000000,6988.000000,26530.000000
31387.000000,57199.000000,7054.000000,26632.000000
31434.000000,57212.000000,7112.000000,26723.000000
31474.000000,57223.000000,7160.000000,26799.000000
31505.000000,57232.000000,7201.000000,26861.000000
31529.000000,57239.000000,7236.000000,26907.000000
31547.000000,57244.000000,7263.000000,26939.000000
31559.000000,57247.000000,7283.000000,26958.000000
31569.000000,57249.000000,7295.000000,26968.000000
31575.000000,57251.000000,7301.000000,26970.000000
31577.000000,57251.000000,7301.000000,26968.000000
31577.000000,57249.000000,7296.000000,26964.000000
31573.000000,57246.000000,7287.000000,26961.000000
31566.000000,57242.000000,7279.000000,26959.000000
31558.000000,57238.000000,7272.000000,26958.000000
31550.000000,57235.000000,7268.000000,26960.000000
31544.000000,57232.000000,7264.000000,26963.000000
31539.000000,57230.000000,7260.000000,26967.000000
31537.000000,57229.000000,7257.000000,26971.000000
31538.000000,57229.000000,7254.000000,26978.000000
31542.000000,57230.000000,7255.000000,26987.000000
31549.000000,57232.000000,7259.000000,26999.000000
31556.000000,57235.000000,7265.000000,27011.000000
31562.000000,57237.000000,7274.000000,27017.000000
31569.000000,57240.000000,7284.000000,27021.000000
31578.000000,57244.000000,7293.000000,27024.000000
31589.000000,57248.000000,7301.000000,27027.000000
31597.000000,57251.000000,7309.000000,27032.000000
31604.000000,57254.000000,7317.000000,27040.000000
31611.000000,57256.000000,7325.000000,27048.000000
31618.000000,57257.000000,7331.000000,27056.000000
31625.000000,57258.000000,7337.000000,27063.000000
31634.000000,57257.000000,7342.000000,27070.000000
31644.000000,57257.000000,7345.000000,27075.000000
31652.000000,57255.000000,7346.000000,27079.000000
31657.000000,57254.000000,7345.000000,27080.000000
31662.000000,57253.000000,7341.000000,27078.000000
31665.000000,57253.000000,7335.000000,27077.000000
31664.000000,57254.000000,7328.000000,27074.000000
31657.000000,57254.000000,7317.000000,27064.000000
31644.000000,57253.000000,7305.000000,27044.000000
31631.000000,57250.000000,7289.000000,27016.000000
31617.000000,57249.000000,7272.000000,26988.000000
31604.000000,57249.000000,7255.000000,26965.000000
31590.000000,57250.000000,7238.000000,26942.000000
31575.000000,57249.000000,7222.000000,26918.000000
31558.000000,57247.000000,7207.000000,26893.000000
31545.000000,57243.000000,7196.000000,26868.000000
31535.000000,57240.000000,7188.000000,26851.000000
31528.000000,57236.000000,7181.000000,26842.000000
31525.000000,57232.000000,7176.000000,26840.000000
31524.000000,57229.000000,7172.000000,26843.000000
31527.000000,57227.000000,7170.000000,26850.000000
31534.000000,57224.000000,7169.000000,26860.000000
31541.000000,57225.000000,7171.000000,26872.000000
31549.000000,57227.000000,7175.000000,26883.000000
31556.000000,57231.000000,7180.000000,26889.000000
31563.000000,57235.000000,7185.000000,26890.000000
31572.000000,57239.000000,7192.000000,26890.000000
31581.000000,57243.000000,7196.000000,26891.000000
31589.000000,57247.000000,7197.000000,26892.000000
31593.000000,57251.000000,7194.000000,26888.000000
31594.000000,57252.000000,7189.000000,26879.000000
31592.000000,57251.000000,7182.000000,26869.000000
31590.000000,57250.000000,7177.000000,26857.000000
31588.000000,57250.000000,7171.000000,26846.000000
31587.000000,57249.000000,7167.000000,26837.000000
31586.000000,57248.000000,7163.000000,26830.000000
31581.000000,57246.000000,7157.000000,26817.000000
31573.000000,57245.000000,7150.000000,26798.000000
31565.000000,57242.000000,7140.000000,26775.000000
31556.000000,57237.000000,7127.000000,26751.000000
31541.000000,57232.000000,7110.000000,26721.000000
31522.000000,57228.000000,7092.000000,26690.000000
31501.000000,57222.000000,7073.000000,26661.000000
31479.000000,57215.000000,7051.000000,26634.000000
31455.000000,57207.000000,7023.000000,26606.000000
31428.000000,57200.000000,6991.000000,26574.000000
31399.000000,57192.000000,6959.000000,26536.000000
31370.000000,57185.000000,6927.000000,26496.000000
31340.000000,57178.000000,6893.000000,26452.000000
31308.000000,57168.000000,6860.000000,26403.000000
31275.000000,57156.000000,6827.000000,26351.000000
31242.000000,57144.000000,6795.000000,26298.000000
31210.000000,57134.000000,6763.000000,26243.000000
31177.000000,57126.000000,6732.000000,26188.000000
31143.000000,57118.000000,6700.000000,26136.000000
31111.000000,57111.000000,6668.000000,26088.000000
31082.000000,57105.000000,6637.000000,26048.000000
31055.000000,57100.000000,6608.000000,26013.000000
31031.000000,57093.000000,6580.000000,25975.000000
31009.000000,57087.000000,6553.000000,25934.000000
30987.000000,57081.000000,6526.000000,25891.000000
30962.000000,57074.000000,6500.000000,25848.000000
30936.000000,57068.000000,6472.000000,25804.000000
30910.000000,57062.000000,6445.000000,25760.000000
30883.000000,57056.000000,6419.000000,25717.000000
30855.000000,57050.000000,6392.000000,25676.000000
30826.000000,57044.000000,6365.000000,25634.000000
30797.000000,57039.000000,6339.000000,25593.000000
30770.000000,57034.000000,6313.000000,25552.000000
30743.000000,57030.000000,6288.000000,25514.000000
30715.000000,57025.000000,6264.000000,25479.000000
30688.000000,57020.000000,6239.000000,25448.000000
30667.000000,57015.000000,6215.000000,25419.000000
30650.000000,57010.000000,6193.000000,25391.000000
30635.000000,57005.000000,6174.000000,25364.000000
30617.000000,57001.000000,6154.000000,25333.000000
30596.000000,56998.000000,6133.000000,25294.000000
30572.000000,56996.000000,6109.000000,25248.000000
30546.000000,56994.000000,6082.000000,25198.000000
30520.000000,56989.000000,6055.000000,25149.000000
30496.000000,56981.000000,6027.000000,25101.000000
30471.000000,56972.000000,5998.000000,25054.000000
30446.000000,56963.000000,5969.000000,25011.000000
30420.000000,56955.000000,5939.000000,24972.000000
30392.000000,56947.000000,5909.000000,24933.000000
30362.000000,56940.000000,5880.000000,24893.000000
30332.000000,56933.000000,5850.000000,24856.000000
30301.000000,56927.000000,5822.000000,24823.000000
30271.000000,56922.000000,5794.000000,24793.000000
30243.000000,56916.000000,5767.000000,24763.000000
30218.000000,56910.000000,5741.000000,24733.000000
30194.000000,56903.000000,5717.000000,24701.000000
30172.000000,56897.000000,5695.000000,24668.000000
30152.000000,56890.000000,5674.000000,24635.000000
30131.000000,56882.000000,5652.000000,24598.000000
30109.000000,56874.000000,5628.000000,24555.000000
30083.000000,56866.000000,5602.000000,24506.000000
30055.000000,56859.000000,5572.000000,24457.000000
30027.000000,56851.000000,5540.000000,24411.000000
29998.000000,56842.000000,5509.000000,24368.000000
29969.000000,56832.000000,5476.000000,24325.000000
29939.000000,56823.000000,5444.000000,24284.000000
29910.000000,56815.000000,5414.000000,24244.000000
29884.000000,56808.000000,5386.000000,24204.000000
29863.000000,56801.000000,5362.000000,24168.000000
29851.000000,56795.000000,5343.000000,24139.000000
29845.000000,56793.000000,5333.000000,24119.000000
29847.000000,56794.000000,5334.000000,24111.000000
29860.000000,56799.000000,5345.000000,24119.000000
29886.000000,56806.000000,5365.000000,24144.000000
29921.000000,56817.000000,5397.000000,24183.000000
29965.000000,56831.000000,5439.000000,24237.000000
30020.000000,56849.000000,5493.000000,24309.000000
30087.000000,56870.000000,5557.000000,24404.000000
30165.000000,56893.000000,5632.000000,24515.000000
30250.000000,56916.000000,5715.000000,24638.000000
30339.000000,56939.000000,5807.000000,24772.000000
30432.000000,56964.000000,5909.000000,24916.000000
30528.000000,56987.000000,6014.000000,25066.000000
30623.000000,57008.000000,6120.000000,25215.000000
30715.000000,57029.000000,6225.000000,25363.000000
30808.000000,57051.000000,6330.000000,25509.000000
30899.000000,57071.000000,6434.000000,25653.000000
30990.000000,57091.000000,6537.000000,25799.000000
31079.000000,57112.000000,6637.000000,25942.000000
31163.000000,57134.000000,6729.000000,26072.000000
31239.000000,57154.000000,6810.000000,26191.000000
31306.000000,57174.000000,6882.000000,26298.000000
31365.000000,57192.000000,6944.000000,26396.000000
31418.000000,57207.000000,6997.000000,26484.000000
31462.000000,57220.000000,7040.000000,26556.000000
31497.000000,57232.000000,7075.000000,26612.000000
31522.000000,57241.000000,7102.000000,26650.000000
31536.000000,57249.000000,7120.000000,26674.000000
31541.000000,57256.000000,7129.000000,26684.000000
31538.000000,57261.000000,7130.000000,26685.000000
31530.000000,57262.000000,7126.000000,26681.000000
31520.000000,57261.000000,7117.000000,26673.000000
31507.000000,57256.000000,7106.000000,26662.000000
31492.000000,57249.000000,7093.000000,26647.000000
31478.000000,57239.000000,7081.000000,26633.000000
31467.000000,57229.000000,7068.000000,26621.000000
31457.000000,57221.000000,7055.000000,26611.000000
31450.000000,57216.000000,7046.000000,26605.000000
31445.000000,57214.000000,7042.000000,26605.000000
31447.000000,57215.000000,7042.000000,26607.000000
31454.000000,57218.000000,7046.000000,26614.000000
31465.000000,57222.000000,7052.000000,26623.000000
31480.000000,57225.000000,7060.000000,26633.000000
31496.000000,57229.000000,7068.000000,26639.000000
31510.000000,57233.000000,7076.000000,26642.000000
31523.000000,57238.000000,7086.000000,26644.000000
31536.000000,57242.000000,7098.000000,26650.000000
31550.000000,57248.000000,7113.000000,26662.000000
31564.000000,57254.000000,7126.000000,26683.000000
31579.000000,57259.000000,7140.000000,26710.000000
31592.000000,57264.000000,7156.000000,26738.000000
31605.000000,57268.000000,7172.000000,26765.000000
31619.000000,57272.000000,7187.000000,26792.000000
31634.000000,57276.000000,7202.000000,26819.000000
31650.000000,57282.000000,7219.000000,26845.000000
31666.000000,57287.000000,7235.000000,26868.000000
31680.000000,57291.000000,7248.000000,26890.000000
31690.000000,57294.000000,7258.000000,26909.000000
31699.000000,57297.000000,7264.000000,26925.000000
31706.000000,57298.000000,7266.000000,26937.000000
31714.000000,57297.000000,7266.000000,26942.000000
31722.000000,57297.000000,7265.000000,26942.000000
31729.000000,57296.000000,7264.000000,26938.000000
31732.000000,57294.000000,7259.000000,26929.000000
31728.000000,57290.000000,7250.000000,26910.000000
31717.000000,57284.000000,7236.000000,26883.000000
31700.000000,57277.000000,7219.000000,26856.000000
31680.000000,57272.000000,7200.000000,26827.000000
31660.000000,57267.000000,7181.000000,26801.000000
31644.000000,57262.000000,7164.000000,26778.000000
31630.000000,57259.000000,7149.000000,26758.000000
31620.000000,57256.000000,7137.000000,26740.000000
31616.000000,57254.000000,7128.000000,26727.000000
31617.000000,57255.000000,7123.000000,26720.000000
31623.000000,57259.000000,7123.000000,26718.000000
31630.000000,57264.000000,7127.000000,26723.000000
31640.000000,57268.000000,7135.000000,26732.000000
31654.000000,57272.000000,7146.000000,26741.000000
31671.000000,57275.000000,7158.000000,26752.000000
31688.000000,57278.000000,7168.000000,26764.000000
31707.000000,57280.000000,7178.000000,26779.000000
31726.000000,57284.000000,7189.000000,26796.000000
31743.000000,57289.000000,7199.000000,26815.000000
31758.000000,57293.000000,7210.000000,26833.000000
31769.000000,57296.000000,7217.000000,26845.000000
31778.000000,57297.000000,7219.000000,26852.000000
31784.000000,57299.000000,7216.000000,26852.000000
31788.000000,57299.000000,7210.000000,26846.000000
31788.000000,57298.000000,7203.000000,26835.000000
31784.000000,57294.000000,7196.000000,26821.000000
31775.000000,57290.000000,7187.000000,26804.000000
31762.000000,57287.000000,7175.000000,26780.000000
31745.000000,57284.000000,7160.000000,26752.000000
31728.000000,57279.000000,7141.000000,26724.000000
31710.000000,57273.000000,7122.000000,26700.000000
31691.000000,57268.000000,7104.000000,26677.000000
31670.000000,57264.000000,7088.000000,26657.000000
31649.000000,57262.000000,7074.000000,26638.000000
31632.000000,57260.000000,7057.000000,26616.000000
31618.000000,57258.000000,7036.000000,26589.000000
31606.000000,57257.000000,7013.000000,26562.000000
31597.000000,57256.000000,6990.000000,26539.000000
31589.000000,57255.000000,6964.000000,26517.000000
31578.000000,57251.000000,6938.000000,26489.000000
31562.000000,57245.000000,6913.000000,26455.000000
31543.000000,57237.000000,6888.000000,26421.000000
31520.000000,57230.000000,6861.000000,26383.000000
31493.000000,57222.000000,6835.000000,26338.000000
31462.000000,57214.000000,6808.000000,26288.000000
31426.000000,57205.000000,6781.000000,26235.000000
31387.000000,57195.000000,6752.000000,26179.000000
31346.000000,57185.000000,6721.000000,26124.000000
31303.000000,57174.000000,6688.000000,26071.000000
31259.000000,57160.000000,6655.000000,26019.000000
31217.000000,57145.000000,6621.000000,25972.000000
31178.000000,57132.000000,6587.000000,25929.000000
31145.000000,57121.000000,6556.000000,25889.000000
31115.000000,57114.000000,6528.000000,25853.000000
31088.000000,57109.000000,6500.000000,25819.000000
31065.000000,57106.000000,6473.000000,25784.000000
31047.000000,57103.000000,6449.000000,25747.000000
31033.000000,57099.000000,6428.000000,25709.000000
31022.000000,57095.000000,6410.000000,25674.000000
31013.000000,57092.000000,6394.000000,25644.000000
31007.000000,57091.000000,6380.000000,25616.000000
31002.000000,57090.000000,6367.000000,25590.000000
30997.000000,57088.000000,6354.000000,25568.000000
30989.000000,57085.000000,6341.000000,25549.000000
30981.000000,57082.000000,6330.000000,25536.000000
30974.000000,57080.000000,6321.000000,25525.000000
30966.000000,57078.000000,6310.000000,25513.000000
30957.000000,57074.000000,6296.000000,25496.000000
30947.000000,57070.000000,6280.000000,25476.000000
30938.000000,57069.000000,6264.000000,25457.000000
30927.000000,57068.000000,6248.000000,25437.000000
30915.000000,57067.000000,6231.000000,25413.000000
30900.000000,57066.000000,6210.000000,25385.000000
30880.000000,57064.000000,6188.000000,25354.000000
30856.000000,57060.000000,6165.000000,25321.000000
30830.000000,57054.000000,6140.000000,25287.000000
30803.000000,57048.000000,6113.000000,25249.000000
30777.000000,57042.000000,6086.000000,25211.000000
30751.000000,57035.000000,6061.000000,25170.000000
30724.000000,57029.000000,6036.000000,25127.000000
30698.000000,57023.000000,6011.000000,25084.000000
30675.000000,57018.000000,5989.000000,25045.000000
30658.000000,57013.000000,5968.000000,25011.000000
30646.000000,57007.000000,5950.000000,24984.000000
30640.000000,57003.000000,5936.000000,24964.000000
30640.000000,57002.000000,5929.000000,24953.000000
30646.000000,57006.000000,5933.000000,24955.000000
30661.000000,57013.000000,5951.000000,24976.000000
30687.000000,57023.000000,5982.000000,25017.000000
30727.000000,57036.000000,6026.000000,25077.000000
30782.000000,57051.000000,6082.000000,25157.000000
30850.000000,57069.000000,6150.000000,25256.000000
30929.000000,57088.000000,6227.000000,25372.000000
31016.000000,57108.000000,6316.000000,25498.000000
31111.000000,57130.000000,6412.000000,25632.000000
31213.000000,57152.000000,6516.000000,25776.000000
31319.000000,57176.000000,6625.000000,25926.000000
31425.000000,57201.000000,6737.000000,26079.000000
31529.000000,57227.000000,6849.000000,26231.000000
31629.000000,57254.000000,6959.000000,26383.000000
31724.000000,57279.000000,7067.000000,26533.000000
31812.000000,57304.000000,7171.000000,26681.000000
31897.000000,57327.000000,7272.000000,26826.000000
31979.000000,57348.000000,7368.000000,26968.000000
32059.000000,57367.000000,7456.000000,27103.000000
32133.000000,57386.000000,7535.000000,27226.000000
32200.000000,57401.000000,7603.000000,27336.000000
32260.000000,57415.000000,7659.000000,27430.000000
32309.000000,57426.000000,7705.000000,27506.000000
32349.000000,57436.000000,7741.000000,27568.000000
32380.000000,57444.000000,7771.000000,27616.000000
32403.000000,57452.000000,7795.000000,27653.000000
32416.000000,57459.000000,7813.000000,27676.000000
32420.000000,57465.000000,7821.000000,27686.000000
32418.000000,57466.000000,7825.000000,27687.000000
32411.000000,57464.000000,7827.000000,27686.000000
32402.000000,57461.000000,7828.000000,27686.000000
32395.000000,57458.000000,7827.000000,27685.000000
32392.000000,57456.000000,7825.000000,27689.000000
32391.000000,57455.000000,7822.000000,27697.000000
32390.000000,57454.000000,7820.000000,27703.000000
32389.000000,57454.000000,7818.000000,27706.000000
32389.000000,57456.000000,7819.000000,27709.000000
32393.000000,57458.000000,7823.000000,27719.000000
32400.000000,57460.000000,7830.000000,27733.000000
32412.000000,57462.000000,7840.000000,27749.000000
32426.000000,57465.000000,7854.000000,27768.000000
32442.000000,57470.000000,7869.000000,27789.000000
32457.000000,57474.000000,7886.000000,27812.000000
32474.000000,57478.000000,7904.000000,27839.000000
32496.000000,57484.000000,7925.000000,27870.000000
32524.000000,57490.000000,7949.000000,27904.000000
32554.000000,57494.000000,7973.000000,27934.000000
32579.000000,57497.000000,7995.000000,27958.000000
32598.000000,57500.000000,8015.000000,27979.000000
32616.000000,57502.000000,8034.000000,28001.000000
32630.000000,57504.000000,8049.000000,28020.000000
32636.000000,57506.000000,8059.000000,28033.000000
32637.000000,57507.000000,8065.000000,28043.000000
32634.000000,57506.000000,8067.000000,28049.000000
32628.000000,57505.000000,8063.000000,28048.000000
32619.000000,57502.000000,8055.000000,28038.000000
32605.000000,57499.000000,8044.000000,28021.000000
32587.000000,57494.000000,8031.000000,27996.000000
32567.000000,57490.000000,8015.000000,27969.000000
32549.000000,57486.000000,7996.000000,27943.000000
32533.000000,57484.000000,7978.000000,27921.000000
32520.000000,57481.000000,7961.000000,27900.000000
32509.000000,57477.000000,7945.000000,27881.000000
32496.000000,57472.000000,7928.000000,27865.000000
32483.000000,57467.000000,7910.000000,27849.000000
32469.000000,57461.000000,7892.000000,27831.000000
32457.000000,57455.000000,7876.000000,27812.000000
32446.000000,57451.000000,7864.000000,27795.000000
32434.000000,57446.000000,7856.000000,27778.000000
32422.000000,57441.000000,7850.000000,27757.000000
32410.000000,57437.000000,7843.000000,27737.000000
32398.000000,57436.000000,7836.000000,27720.000000
32386.000000,57435.000000,7829.000000,27710.000000
32377.000000,57436.000000,7822.000000,27704.000000
32368.000000,57435.000000,7814.000000,27699.000000
32359.000000,57434.000000,7804.000000,27691.000000
32350.000000,57433.000000,7795.000000,27678.000000
32342.000000,57430.000000,7788.000000,27662.000000
32331.000000,57426.000000,7779.000000,27648.000000
32316.000000,57420.000000,7766.000000,27636.000000
32300.000000,57413.000000,7752.000000,27625.000000
32282.000000,57407.000000,7742.000000,27615.000000
32264.000000,57400.000000,7735.000000,27606.000000
32248.000000,57393.000000,7728.000000,27596.000000
32233.000000,57386.000000,7717.000000,27585.000000
32218.000000,57381.000000,7703.000000,27567.000000
32207.000000,57376.000000,7689.000000,27542.000000
32197.000000,57374.000000,7675.000000,27515.000000
32187.000000,57373.000000,7660.000000,27493.000000
32174.000000,57371.000000,7642.000000,27475.000000
32158.000000,57367.000000,7622.000000,27458.000000
32143.000000,57364.000000,7599.000000,27439.000000
32127.000000,57360.000000,7577.000000,27412.000000
32109.000000,57354.000000,7556.000000,27379.000000
32092.000000,57347.000000,7538.000000,27347.000000
32076.000000,57342.000000,7522.000000,27318.000000
32062.000000,57338.000000,7508.000000,27290.000000
32048.000000,57336.000000,7494.000000,27261.000000
32036.000000,57335.000000,7478.000000,27230.000000
32026.000000,57333.000000,7460.000000,27198.000000
32015.000000,57331.000000,7441.000000,27171.000000
32001.000000,57327.000000,7421.000000,27146.000000
31986.000000,57324.000000,7400.000000,27120.000000
31972.000000,57319.000000,7380.000000,27092.000000
31958.000000,57312.000000,7358.000000,27063.000000
31942.000000,57304.000000,7335.000000,27037.000000
31926.000000,57298.000000,7313.000000,27014.000000
31910.000000,57294.000000,7293.000000,26994.000000
31895.000000,57290.000000,7275.000000,26975.000000
31879.000000,57287.000000,7257.000000,26953.000000
31863.000000,57284.000000,7238.000000,26925.000000
31847.000000,57282.000000,7217.000000,26893.000000
31834.000000,57279.000000,7196.000000,26861.000000
31820.000000,57274.000000,7173.000000,26830.000000
31801.000000,57267.000000,7147.000000,26800.000000
31779.000000,57260.000000,7119.000000,26771.000000
31756.000000,57255.000000,7093.000000,26741.000000
31732.000000,57251.000000,7068.000000,26709.000000
31708.000000,57247.000000,7046.000000,26676.000000
31682.000000,57243.000000,7023.000000,26640.000000
31657.000000,57238.000000,7000.000000,26599.000000
31633.000000,57233.000000,6977.000000,26553.000000
31613.000000,57228.000000,6954.000000,26506.000000
31596.000000,57221.000000,6929.000000,26460.000000
31578.000000,57214.000000,6901.000000,26417.000000
31559.000000,57207.000000,6870.000000,26375.000000
31540.000000,57199.000000,6842.000000,26337.000000
31521.000000,57192.000000,6817.000000,26306.000000
31501.000000,57187.000000,6795.000000,26276.000000
31479.000000,57181.000000,6773.000000,26241.000000
31454.000000,57176.000000,6750.000000,26205.000000
31427.000000,57170.000000,6727.000000,26167.000000
31399.000000,57162.000000,6702.000000,26128.000000
31372.000000,57154.000000,6675.000000,26092.000000
31348.000000,57147.000000,6651.000000,26059.000000
31327.000000,57142.000000,6631.000000,26030.000000
31311.000000,57138.000000,6616.000000,26005.000000
31300.000000,57136.000000,6607.000000,25986.000000
31297.000000,57137.000000,6605.000000,25978.000000
31303.000000,57140.000000,6613.000000,25981.000000
31319.000000,57145.000000,6633.000000,25999.000000
31343.000000,57151.000000,6664.000000,26033.000000
31377.000000,57160.000000,6703.000000,26082.000000
31422.000000,57172.000000,6751.000000,26145.000000
31476.000000,57188.000000,6807.000000,26225.000000
31541.000000,57205.000000,6872.000000,26323.000000
31614.000000,57223.000000,6947.000000,26438.000000
31692.000000,57242.000000,7030.000000,26568.000000
31774.000000,57262.000000,7121.000000,26707.000000
31860.000000,57283.000000,7214.000000,26850.000000
31945.000000,57304.000000,7309.000000,26993.000000
32025.000000,57325.000000,7405.000000,27133.000000
32101.000000,57346.000000,7501.000000,27266.000000
32175.000000,57365.000000,7594.000000,27393.000000
32248.000000,57384.000000,7684.000000,27513.000000
32319.000000,57401.000000,7768.000000,27626.000000
32384.000000,57416.000000,7845.000000,27730.000000
32441.000000,57431.000000,7913.000000,27823.000000
32488.000000,57445.000000,7970.000000,27907.000000
32526.000000,57456.000000,8018.000000,27982.000000
32552.000000,57466.000000,8055.000000,28048.000000
32570.000000,57473.000000,8082.000000,28102.000000
32580.000000,57479.000000,8101.000000,28143.000000
32586.000000,57483.000000,8118.000000,28173.000000
32590.000000,57484.000000,8132.000000,28194.000000
32592.000000,57482.000000,8141.000000,28210.000000
32595.000000,57481.000000,8145.000000,28221.000000
32599.000000,57480.000000,8148.000000,28225.000000
32605.000000,57479.000000,8149.000000,28224.000000
32609.000000,57478.000000,8150.000000,28223.000000
32614.000000,57478.000000,8150.000000,28224.000000
32617.000000,57479.000000,8148.000000,28227.000000
32617.000000,57480.000000,8147.000000,28232.000000
32619.000000,57479.000000,8149.000000,28240.000000
32623.000000,57478.000000,8153.000000,28250.000000
32627.000000,57478.000000,8157.000000,28254.000000
32629.000000,57477.000000,8157.000000,28256.000000
32631.000000,57477.000000,8155.000000,28257.000000
32632.000000,57477.000000,8152.000000,28254.000000
32632.000000,57475.000000,8150.000000,28247.000000
32633.000000,57472.000000,8151.000000,28240.000000
32635.000000,57471.000000,8154.000000,28238.000000
32637.000000,57470.000000,8157.000000,28241.000000
32639.000000,57469.000000,8160.000000,28248.000000
32643.000000,57469.000000,8165.000000,28260.000000
32648.000000,57472.000000,8172.000000,28273.000000
32652.000000,57474.000000,8180.000000,28287.000000
32655.000000,57475.000000,8188.000000,28301.000000
32656.000000,57475.000000,8197.000000,28316.000000
32655.000000,57473.000000,8206.000000,28331.000000
32653.000000,57470.000000,8211.000000,28342.000000
32649.000000,57467.000000,8210.000000,28345.000000
32645.000000,57464.000000,8205.000000,28341.000000
32642.000000,57461.000000,8199.000000,28333.000000
32637.000000,57458.000000,8191.000000,28322.000000
32629.000000,57454.000000,8182.000000,28309.000000
32619.000000,57451.000000,8170.000000,28296.000000
32607.000000,57450.000000,8156.000000,28280.000000
32593.000000,57450.000000,8140.000000,28260.000000
32576.000000,57449.000000,8122.000000,28235.000000
32557.000000,57446.000000,8102.000000,28205.000000
32537.000000,57442.000000,8082.000000,28171.000000
32516.000000,57436.000000,8063.000000,28137.000000
32499.000000,57431.000000,8044.000000,28107.000000
32488.000000,57426.000000,8026.000000,28081.000000
32479.000000,57423.000000,8011.000000,28061.000000
32475.000000,57420.000000,7999.000000,28046.000000
32475.000000,57419.000000,7995.000000,28035.000000
32477.000000,57420.000000,7993.000000,28027.000000
32482.000000,57422.000000,7990.000000,28021.000000
32490.000000,57426.000000,7987.000000,28020.000000
32500.000000,57431.000000,7988.000000,28024.000000
32512.000000,57436.000000,7993.000000,28032.000000
32525.000000,57440.000000,8000.000000,28039.000000
32539.000000,57443.000000,8008.000000,28044.000000
32553.000000,57445.000000,8015.000000,28049.000000
32567.000000,57446.000000,8020.000000,28056.000000
32577.000000,57447.000000,8024.000000,28066.000000
32584.000000,57447.000000,8027.000000,28074.000000
32585.000000,57447.000000,8028.000000,28078.000000
32581.000000,57447.000000,8025.000000,28076.000000
32575.000000,57445.000000,8022.000000,28068.000000
32568.000000,57445.000000,8018.000000,28055.000000
32559.000000,57445.000000,8010.000000,28037.000000
32551.000000,57444.000000,8000.000000,28017.000000
32541.000000,57443.000000,7987.000000,27996.000000
32529.000000,57440.000000,7971.000000,27972.000000
32517.000000,57436.000000,7956.000000,27949.000000
32503.000000,57429.000000,7939.000000,27928.000000
32488.000000,57421.000000,7920.000000,27907.000000
32468.000000,57411.000000,7901.000000,27881.000000
32442.000000,57402.000000,7880.000000,27848.000000
32413.000000,57392.000000,7857.000000,27810.000000
32383.000000,57382.000000,7832.000000,27768.000000
32352.000000,57373.000000,7803.000000,27721.000000
32321.000000,57366.000000,7772.000000,27670.000000
32290.000000,57360.000000,7738.000000,27621.000000
32258.000000,57355.000000,7703.000000,27572.000000
32223.000000,57351.000000,7667.000000,27518.000000
32188.000000,57346.000000,7629.000000,27460.000000
32154.000000,57340.000000,7590.000000,27404.000000
32120.000000,57332.000000,7552.000000,27350.000000
32085.000000,57322.000000,7515.000000,27298.000000
32050.000000,57310.000000,7476.000000,27249.000000
32017.000000,57297.000000,7437.000000,27200.000000
31983.000000,57287.000000,7401.000000,27151.000000
31948.000000,57278.000000,7368.000000,27102.000000
31909.000000,57271.000000,7335.000000,27052.000000
31869.000000,57263.000000,7302.000000,27000.000000
31829.000000,57256.000000,7268.000000,26950.000000
31790.000000,57247.000000,7233.000000,26902.000000
31753.000000,57237.000000,7197.000000,26858.000000
31717.000000,57225.000000,7162.000000,26814.000000
31684.000000,57215.000000,7125.000000,26767.000000
31654.000000,57206.000000,7089.000000,26718.000000
31623.000000,57197.000000,7055.000000,26672.000000
31590.000000,57189.000000,7023.000000,26627.000000
31555.000000,57182.000000,6993.000000,26578.000000
31521.000000,57175.000000,6960.000000,26525.000000
31487.000000,57166.000000,6926.000000,26472.000000
31451.000000,57157.000000,6891.000000,26420.000000
31414.000000,57147.000000,6856.000000,26369.000000
31377.000000,57136.000000,6823.000000,26319.000000
31341.000000,57125.000000,6789.000000,26270.000000
31308.000000,57116.000000,6755.000000,26222.000000
31278.000000,57108.000000,6721.000000,26177.000000
31251.000000,57102.000000,6686.000000,26131.000000
31222.000000,57094.000000,6649.000000,26083.000000
31192.000000,57085.000000,6614.000000,26031.000000
31161.000000,57074.000000,6580.000000,25976.000000
31127.000000,57065.000000,6548.000000,25923.000000
31089.000000,57057.000000,6517.000000,25872.000000
31051.000000,57050.000000,6486.000000,25820.000000
31014.000000,57042.000000,6456.000000,25767.000000
30980.000000,57033.000000,6428.000000,25717.000000
30950.000000,57026.000000,6401.000000,25673.000000
30925.000000,57020.000000,6377.000000,25636.000000
30905.000000,57015.000000,6356.000000,25603.000000
30891.000000,57011.000000,6341.000000,25576.000000
30884.000000,57008.000000,6331.000000,25555.000000
30883.000000,57006.000000,6326.000000,25541.000000
30890.000000,57005.000000,6329.000000,25536.000000
30906.000000,57008.000000,6340.000000,25545.000000
30932.000000,57013.000000,6360.000000,25572.000000
30966.000000,57022.000000,6391.000000,25615.000000
31010.000000,57035.000000,6433.000000,25673.000000
31064.000000,57050.000000,6486.000000,25743.000000
31124.000000,57067.000000,6549.000000,25827.000000
31191.000000,57084.000000,6619.000000,25921.000000
31262.000000,57103.000000,6694.000000,26024.000000
31333.000000,57123.000000,6776.000000,26134.000000
31406.000000,57145.000000,6863.000000,26253.000000
31479.000000,57166.000000,6950.000000,26376.000000
31552.000000,57188.000000,7034.000000,26498.000000
31626.000000,57209.000000,7115.000000,26620.000000
31698.000000,57228.000000,7194.000000,26744.000000
31766.000000,57245.000000,7270.000000,26863.000000
31829.000000,57261.000000,7339.000000,26972.000000
31884.000000,57276.000000,7403.000000,27070.000000
31932.000000,57290.000000,7457.000000,27154.000000
31972.000000,57302.000000,7503.000000,27223.000000
32005.000000,57311.000000,7545.000000,27284.000000
32033.000000,57317.000000,7582.000000,27339.000000
32052.000000,57320.000000,7611.000000,27382.000000
32064.000000,57321.000000,7631.000000,27414.000000
32070.000000,57322.000000,7643.000000,27436.000000
32070.000000,57321.000000,7649.000000,27446.000000
32066.000000,57320.000000,7650.000000,27444.000000
32059.000000,57319.000000,7643.000000,27430.000000
32046.000000,57316.000000,7629.000000,27406.000000
32026.000000,57311.000000,7612.000000,27376.000000
32002.000000,57304.000000,7593.000000,27343.000000
31977.000000,57298.000000,7572.000000,27313.000000
31952.000000,57293.000000,7552.000000,27288.000000
31928.000000,57287.000000,7533.000000,27266.000000
31906.000000,57282.000000,7514.000000,27245.000000
31886.000000,57277.000000,7497.000000,27224.000000
31873.000000,57274.000000,7484.000000,27206.000000
31864.000000,57273.000000,7474.000000,27194.000000
31858.000000,57272.000000,7467.000000,27187.000000
31851.000000,57269.000000,7462.000000,27186.000000
31845.000000,57266.000000,7458.000000,27186.000000
31839.000000,57264.000000,7456.000000,27186.000000
31834.000000,57262.000000,7457.000000,27182.000000
31829.000000,57262.000000,7463.000000,27180.000000
31831.000000,57262.000000,7471.000000,27185.000000
31838.000000,57261.000000,7480.000000,27195.000000
31848.000000,57259.000000,7487.000000,27206.000000
31857.000000,57257.000000,7493.000000,27220.000000
31861.000000,57255.000000,7497.000000,27233.000000
31861.000000,57253.000000,7501.000000,27240.000000
31854.000000,57251.000000,7500.000000,27236.000000
31842.000000,57249.000000,7494.000000,27223.000000
31825.000000,57245.000000,7482.000000,27202.000000
31804.000000,57241.000000,7463.000000,27173.000000
31778.000000,57239.000000,7438.000000,27140.000000
31748.000000,57237.000000,7410.000000,27104.000000
31714.000000,57233.000000,7379.000000,27064.000000
31678.000000,57227.000000,7347.000000,27021.000000
31642.000000,57217.000000,7317.000000,26978.000000
31606.000000,57207.000000,7289.000000,26933.000000
31572.000000,57195.000000,7261.000000,26889.000000
31539.000000,57185.000000,7234.000000,26847.000000
31507.000000,57176.000000,7208.000000,26807.000000
31476.000000,57169.000000,7184.000000,26771.000000
31449.000000,57166.000000,7165.000000,26742.000000
31429.000000,57165.000000,7152.000000,26721.000000
31415.000000,57165.000000,7144.000000,26705.000000
31403.000000,57164.000000,7139.000000,26692.000000
31393.000000,57162.000000,7133.000000,26681.000000
31384.000000,57159.000000,7123.000000,26670.000000
31376.000000,57154.000000,7111.000000,26661.000000
31368.000000,57148.000000,7096.000000,26651.000000
31357.000000,57144.000000,7082.000000,26637.000000
31345.000000,57139.000000,7070.000000,26617.000000
31333.000000,57134.000000,7060.000000,26595.000000
31321.000000,57130.000000,7051.000000,26571.000000
31312.000000,57128.000000,7043.000000,26549.000000
31303.000000,57126.000000,7033.000000,26531.000000
31291.000000,57123.000000,7021.000000,26513.000000
31276.000000,57121.000000,7008.000000,26495.000000
31262.000000,57121.000000,6995.000000,26480.000000
31250.000000,57124.000000,6983.000000,26468.000000
31239.000000,57125.000000,6970.000000,26452.000000
31229.000000,57125.000000,6956.000000,26434.000000
31221.000000,57124.000000,6942.000000,26412.000000
31211.000000,57122.000000,6927.000000,26388.000000
31197.000000,57121.000000,6909.000000,26364.000000
31177.000000,57118.000000,6890.000000,26341.000000
31154.000000,57113.000000,6870.000000,26317.000000
31128.000000,57105.000000,6849.000000,26288.000000
31099.000000,57096.000000,6827.000000,26254.000000
31067.000000,57087.000000,6802.000000,26215.000000
31034.000000,57077.000000,6775.000000,26175.000000
30998.000000,57066.000000,6747.000000,26133.000000
30961.000000,57054.000000,6717.000000,26088.000000
30925.000000,57043.000000,6685.000000,26041.000000
30890.000000,57031.000000,6654.000000,25994.000000
30853.000000,57019.000000,6622.000000,25951.000000
30816.000000,57008.000000,6588.000000,25909.000000
30778.000000,56998.000000,6555.000000,25867.000000
30742.000000,56990.000000,6524.000000,25826.000000
30709.000000,56984.000000,6496.000000,25787.000000
30681.000000,56980.000000,6468.000000,25753.000000
30656.000000,56975.000000,6442.000000,25719.000000
30630.000000,56969.000000,6415.000000,25683.000000
30606.000000,56962.000000,6388.000000,25642.000000
30583.000000,56954.000000,6360.000000,25598.000000
30561.000000,56946.000000,6331.000000,25550.000000
30539.000000,56937.000000,6303.000000,25502.000000
30515.000000,56929.000000,6273.000000,25457.000000
30489.000000,56920.000000,6243.000000,25414.000000
30464.000000,56912.000000,6214.000000,25374.000000
30438.000000,56905.000000,6188.000000,25337.000000
30413.000000,56899.000000,6163.000000,25300.000000
30387.000000,56894.000000,6138.000000,25261.000000
30360.000000,56890.000000,6113.000000,25220.000000
30333.000000,56886.000000,6088.000000,25178.000000
30305.000000,56883.000000,6061.000000,25136.000000
30275.000000,56880.000000,6034.000000,25094.000000
30245.000000,56877.000000,6006.000000,25055.000000
30220.000000,56874.000000,5979.000000,25019.000000
30196.000000,56872.000000,5953.000000,24984.000000
30172.000000,56869.000000,5927.000000,24948.000000
30147.000000,56865.000000,5902.000000,24910.000000
30123.000000,56859.000000,5877.000000,24870.000000
30101.000000,56852.000000,5854.000000,24829.000000
30081.000000,56845.000000,5832.000000,24790.000000
30063.000000,56836.000000,5812.000000,24757.000000
30046.000000,56829.000000,5792.000000,24728.000000
30028.000000,56824.000000,5772.000000,24702.000000
30010.000000,56820.000000,5752.000000,24674.000000
29994.000000,56816.000000,5734.000000,24643.000000
29980.000000,56813.000000,5715.000000,24608.000000
29964.000000,56811.000000,5695.000000,24572.000000
29946.000000,56808.000000,5674.000000,24538.000000
29924.000000,56805.000000,5650.000000,24506.000000
29903.000000,56801.000000,5626.000000,24473.000000
29885.000000,56797.000000,5604.000000,24441.000000
29871.000000,56793.000000,5585.000000,24411.000000
29862.000000,56789.000000,5571.000000,24388.000000
29856.000000,56786.000000,5560.000000,24372.000000
29852.000000,56786.000000,5553.000000,24363.000000
29853.000000,56787.000000,5553.000000,24365.000000
29860.000000,56789.000000,5560.000000,24377.000000
29874.000000,56793.000000,5576.000000,24398.000000
29899.000000,56800.000000,5601.000000,24429.000000
29936.000000,56811.000000,5638.000000,24475.000000
29987.000000,56825.000000,5686.000000,24537.000000
30048.000000,56842.000000,5742.000000,24614.000000
30115.000000,56860.000000,5805.000000,24704.000000
30186.000000,56879.000000,5873.000000,24805.000000
30260.000000,56897.000000,5947.000000,24914.000000
30336.000000,56916.000000,6024.000000,25028.000000
30414.000000,56935.000000,6104.000000,25147.000000
30490.000000,56953.000000,6186.000000,25267.000000
30562.000000,56971.000000,6267.000000,25386.000000
30629.000000,56989.000000,6347.000000,25500.000000
30691.000000,57007.000000,6426.000000,25613.000000
30752.000000,57026.000000,6501.000000,25724.000000
30809.000000,57043.000000,6571.000000,25825.000000
30859.000000,57055.000000,6633.000000,25909.000000
30899.000000,57065.000000,6685.000000,25982.000000
30932.000000,57073.000000,6727.000000,26046.000000
30958.000000,57078.000000,6761.000000,26101.000000
30980.000000,57082.000000,6788.000000,26145.000000
30997.000000,57084.000000,6808.000000,26179.000000
31009.000000,57087.000000,6819.000000,26202.000000
31015.000000,57088.000000,6823.000000,26215.000000
31017.000000,57088.000000,6822.000000,26224.000000
31017.000000,57086.000000,6821.000000,26235.000000
31015.000000,57085.000000,6819.000000,26244.000000
31012.000000,57084.000000,6818.000000,26249.000000
31010.000000,57083.000000,6818.000000,26250.000000
31010.000000,57083.000000,6817.000000,26250.000000
31012.000000,57084.000000,6817.000000,26249.000000
31013.000000,57085.000000,6817.000000,26244.000000
31013.000000,57087.000000,6819.000000,26237.000000
31016.000000,57089.000000,6822.000000,26230.000000
31021.000000,57092.000000,6828.000000,26228.000000
31027.000000,57097.000000,6833.000000,26228.000000
31035.000000,57102.000000,6840.000000,26233.000000
31050.000000,57107.000000,6851.000000,26244.000000
31068.000000,57112.000000,6865.000000,26260.000000
31087.000000,57116.000000,6879.000000,26278.000000
31107.000000,57120.000000,6891.000000,26300.000000
31125.000000,57126.000000,6901.000000,26324.000000
31141.000000,57132.000000,6911.000000,26349.000000
31153.000000,57138.000000,6921.000000,26375.000000
31162.000000,57141.000000,6929.000000,26402.000000
31165.000000,57140.000000,6935.000000,26423.000000
31164.000000,57137.000000,6937.000000,26436.000000
31160.000000,57133.000000,6938.000000,26442.000000
31155.000000,57126.000000,6936.000000,26442.000000
31148.000000,57119.000000,6933.000000,26434.000000
31139.000000,57114.000000,6928.000000,26420.000000
31128.000000,57111.000000,6920.000000,26399.000000
31115.000000,57107.000000,6909.000000,26374.000000
31105.000000,57104.000000,6896.000000,26349.000000
31097.000000,57100.000000,6884.000000,26331.000000
31089.000000,57097.000000,6872.000000,26318.000000
31081.000000,57095.000000,6858.000000,26305.000000
31072.000000,57094.000000,6844.000000,26290.000000
31066.000000,57093.000000,6830.000000,26274.000000
31062.000000,57093.000000,6817.000000,26259.000000
31059.000000,57093.000000,6806.000000,26244.000000
31054.000000,57094.000000,6794.000000,26232.000000
31046.000000,57093.000000,6784.000000,26221.000000
31039.000000,57092.000000,6777.000000,26211.000000
31033.000000,57089.000000,6772.000000,26205.000000
31026.000000,57086.000000,6768.000000,26200.000000
31018.000000,57084.000000,6762.000000,26194.000000
31013.000000,57082.000000,6757.000000,26188.000000
31012.000000,57082.000000,6755.000000,26184.000000
31013.000000,57083.000000,6754.000000,26180.000000
31015.000000,57085.000000,6755.000000,26175.000000
31020.000000,57087.000000,6757.000000,26174.000000
31024.000000,57089.000000,6761.000000,26177.000000
31028.000000,57091.000000,6765.000000,26183.000000
31034.000000,57090.000000,6770.000000,26190.000000
31041.000000,57089.000000,6774.000000,26198.000000
31048.000000,57088.000000,6777.000000,26206.000000
31053.000000,57088.000000,6778.000000,26212.000000
31055.000000,57088.000000,6777.000000,26216.000000
31059.000000,57089.000000,6777.000000,26215.000000
31063.000000,57091.000000,6776.000000,26213.000000
31066.000000,57092.000000,6775.000000,26209.000000
31067.000000,57091.000000,6774.000000,26203.000000
31067.000000,57089.000000,6771.000000,26198.000000
31068.000000,57085.000000,6766.000000,26193.000000
31068.000000,57082.000000,6758.000000,26185.000000
31068.000000,57080.000000,6749.000000,26175.000000
31067.000000,57079.000000,6739.000000,26165.000000
31065.000000,57079.000000,6729.000000,26154.000000
31061.000000,57078.000000,6720.000000,26140.000000
31054.000000,57078.000000,6712.000000,26123.000000
31045.000000,57078.000000,6703.000000,26104.000000
31035.000000,57077.000000,6692.000000,26084.000000
31024.000000,57075.000000,6679.000000,26065.000000
31011.000000,57072.000000,6665.000000,26046.000000
30998.000000,57071.000000,6647.000000,26024.000000
30982.000000,57069.000000,6627.000000,25999.000000
30965.000000,57065.000000,6608.000000,25972.000000
30946.000000,57059.000000,6587.000000,25946.000000
30926.000000,57053.000000,6567.000000,25920.000000
30905.000000,57047.000000,6547.000000,25895.000000
30886.000000,57041.000000,6527.000000,25869.000000
30869.000000,57035.000000,6509.000000,25842.000000
30854.000000,57029.000000,6492.000000,25812.000000
30840.000000,57023.000000,6475.000000,25786.000000
30828.000000,57021.000000,6458.000000,25762.000000
30817.000000,57020.000000,6439.000000,25739.000000
30805.000000,57018.000000,6421.000000,25713.000000
30791.000000,57015.000000,6403.000000,25684.000000
30776.000000,57014.000000,6385.000000,25654.000000
30764.000000,57013.000000,6367.000000,25627.000000
30753.000000,57013.000000,6351.000000,25605.000000
30745.000000,57013.000000,6335.000000,25587.000000
30737.000000,57013.000000,6319.000000,25573.000000
30729.000000,57012.000000,6304.000000,25560.000000
30721.000000,57011.000000,6292.000000,25545.000000
30711.000000,57011.000000,6283.000000,25525.000000
30701.000000,57008.000000,6274.000000,25503.000000
30692.000000,57004.000000,6265.000000,25481.000000
30681.000000,56999.000000,6255.000000,25460.000000
30670.000000,56996.000000,6242.000000,25442.000000
30660.000000,56995.000000,6227.000000,25425.000000
30653.000000,56994.000000,6215.000000,25412.000000
30649.000000,56995.000000,6207.000000,25401.000000
30644.000000,56996.000000,6198.000000,25387.000000
30638.000000,56994.000000,6186.000000,25368.000000
30632.000000,56989.000000,6171.000000,25348.000000
30621.000000,56984.000000,6153.000000,25326.000000
30606.000000,56976.000000,6135.000000,25300.000000
30588.000000,56968.000000,6115.000000,25268.000000
30569.000000,56959.000000,6096.000000,25233.000000
30548.000000,56949.000000,6076.000000,25201.000000
30523.000000,56941.000000,6056.000000,25171.000000
30496.000000,56934.000000,6032.000000,25144.000000
