660nm,730nm,850nm,940nm
27642.000000,13570.000000,43278.000000,17959.000000
27620.000000,13545.000000,43235.000000,17925.000000
27608.000000,13527.000000,43199.000000,17908.000000
27601.000000,13517.000000,43169.000000,17904.000000
27580.000000,13493.000000,43124.000000,17875.000000
27546.000000,13456.000000,43067.000000,17826.000000
27513.000000,13427.000000,43020.000000,17795.000000
27481.000000,13402.000000,42977.000000,17776.000000
27439.000000,13360.000000,42914.000000,17734.000000
27395.000000,13310.000000,42839.000000,17677.000000
27363.000000,13272.000000,42775.000000,17639.000000
27339.000000,13244.000000,42719.000000,17607.000000
27308.000000,13208.000000,42654.000000,17554.000000
27277.000000,13171.000000,42588.000000,17493.000000
27258.000000,13150.000000,42542.000000,17456.000000
27246.000000,13137.000000,42507.000000,17432.000000
27228.000000,13112.000000,42464.000000,17398.000000
27211.000000,13086.000000,42424.000000,17366.000000
27205.000000,13075.000000,42403.000000,17362.000000
27202.000000,13071.000000,42393.000000,17362.000000
27191.000000,13059.000000,42376.000000,17339.000000
27183.000000,13052.000000,42363.000000,17316.000000
27187.000000,13063.000000,42368.000000,17320.000000
27190.000000,13075.000000,42375.000000,17329.000000
27184.000000,13075.000000,42369.000000,17321.000000
27180.000000,13076.000000,42364.000000,17318.000000
27188.000000,13090.000000,42379.000000,17335.000000
27196.000000,13100.000000,42396.000000,17344.000000
27198.000000,13097.000000,42400.000000,17329.000000
27202.000000,13097.000000,42402.000000,17322.000000
27213.000000,13108.000000,42414.000000,17341.000000
27219.000000,13114.000000,42418.000000,17355.000000
27213.000000,13102.000000,42402.000000,17347.000000
27208.000000,13090.000000,42387.000000,17346.000000
27211.000000,13089.000000,42383.000000,17359.000000
27206.000000,13080.000000,42369.000000,17356.000000
27190.000000,13058.000000,42339.000000,17329.000000
27174.000000,13037.000000,42311.000000,17308.000000
27159.000000,13023.000000,42292.000000,17301.000000
27136.000000,13000.000000,42262.000000,17281.000000
27109.000000,12969.000000,42216.000000,17242.000000
27090.000000,12948.000000,42177.000000,17216.000000
27074.000000,12937.000000,42146.000000,17205.000000
27052.000000,12918.000000,42104.000000,17177.000000
27028.000000,12892.000000,42054.000000,17126.000000
27012.000000,12875.000000,42017.000000,17085.000000
26999.000000,12863.000000,41994.000000,17057.000000
26979.000000,12839.000000,41964.000000,17014.000000
26955.000000,12809.000000,41925.000000,16964.000000
26940.000000,12793.000000,41897.000000,16936.000000
26931.000000,12785.000000,41877.000000,16925.000000
26916.000000,12768.000000,41845.000000,16897.000000
26898.000000,12745.000000,41806.000000,16862.000000
26885.000000,12731.000000,41779.000000,16850.000000
26874.000000,12721.000000,41757.000000,16848.000000
26855.000000,12698.000000,41720.000000,16827.000000
26837.000000,12673.000000,41680.000000,16801.000000
26832.000000,12664.000000,41656.000000,16795.000000
26829.000000,12661.000000,41640.000000,16794.000000
26819.000000,12646.000000,41615.000000,16776.000000
26809.000000,12628.000000,41593.000000,16757.000000
26806.000000,12622.000000,41584.000000,16755.000000
26802.000000,12617.000000,41573.000000,16752.000000
26789.000000,12600.000000,41547.000000,16726.000000
26773.000000,12581.000000,41524.000000,16700.000000
26764.000000,12576.000000,41516.000000,16696.000000
26754.000000,12571.000000,41506.000000,16689.000000
26736.000000,12554.000000,41481.000000,16656.000000
26723.000000,12542.000000,41462.000000,16625.000000
26719.000000,12545.000000,41464.000000,16617.000000
26711.000000,12544.000000,41464.000000,16605.000000
26695.000000,12530.000000,41446.000000,16572.000000
26683.000000,12520.000000,41432.000000,16549.000000
26683.000000,12527.000000,41433.000000,16551.000000
26680.000000,12529.000000,41428.000000,16551.000000
26668.000000,12520.000000,41406.000000,16541.000000
26661.000000,12516.000000,41387.000000,16544.000000
26662.000000,12525.000000,41381.000000,16560.000000
26660.000000,12525.000000,41367.000000,16560.000000
26651.000000,12511.000000,41342.000000,16540.000000
26645.000000,12503.000000,41327.000000,16532.000000
26645.000000,12509.000000,41328.000000,16537.000000
26638.000000,12509.000000,41322.000000,16522.000000
26626.000000,12498.000000,41304.000000,16491.000000
26623.000000,12494.000000,41293.000000,16482.000000
26625.000000,12495.000000,41289.000000,16494.000000
26618.000000,12484.000000,41269.000000,16492.000000
26604.000000,12463.000000,41239.000000,16479.000000
26598.000000,12454.000000,41223.000000,16484.000000
26600.000000,12458.000000,41221.000000,16497.000000
26599.000000,12455.000000,41211.000000,16484.000000
26594.000000,12445.000000,41195.000000,16455.000000
26595.000000,12443.000000,41191.000000,16444.000000
26594.000000,12439.000000,41191.000000,16444.000000
26584.000000,12419.000000,41176.000000,16423.000000
26570.000000,12393.000000,41155.000000,16397.000000
26562.000000,12382.000000,41146.000000,16394.000000
26557.000000,12380.000000,41144.000000,16398.000000
26547.000000,12371.000000,41132.000000,16380.000000
26542.000000,12364.000000,41120.000000,16358.000000
26551.000000,12377.000000,41126.000000,16361.000000
26565.000000,12399.000000,41141.000000,16378.000000
26572.000000,12412.000000,41153.000000,16384.000000
26584.000000,12425.000000,41180.000000,16400.000000
26614.000000,12457.000000,41238.000000,16452.000000
26657.000000,12503.000000,41317.000000,16521.000000
26709.000000,12555.000000,41410.000000,16594.000000
26778.000000,12629.000000,41538.000000,16692.000000
26872.000000,12736.000000,41714.000000,16829.000000
26977.000000,12857.000000,41919.000000,16981.000000
27089.000000,12981.000000,42141.000000,17138.000000
27214.000000,13119.000000,42395.000000,17325.000000
27353.000000,13277.000000,42681.000000,17550.000000
27494.000000,13435.000000,42968.000000,17777.000000
27628.000000,13577.000000,43236.000000,17980.000000
27765.000000,13716.000000,43497.000000,18181.000000
27901.000000,13859.000000,43750.000000,18384.000000
28016.000000,13983.000000,43969.000000,18552.000000
28105.000000,14077.000000,44140.000000,18674.000000
28177.000000,14158.000000,44279.000000,18777.000000
28234.000000,14230.000000,44392.000000,18871.000000
28265.000000,14271.000000,44460.000000,18927.000000
28273.000000,14280.000000,44481.000000,18944.000000
28270.000000,14282.000000,44485.000000,18957.000000
28262.000000,14283.000000,44478.000000,18968.000000
28241.000000,14265.000000,44443.000000,18947.000000
28208.000000,14226.000000,44382.000000,18893.000000
28178.000000,14189.000000,44324.000000,18846.000000
28151.000000,14157.000000,44268.000000,18808.000000
28115.000000,14111.000000,44189.000000,18747.000000
28077.000000,14058.000000,44098.000000,18672.000000
28050.000000,14022.000000,44023.000000,18617.000000
28030.000000,14000.000000,43963.000000,18577.000000
28003.000000,13965.000000,43895.000000,18520.000000
27971.000000,13923.000000,43825.000000,18456.000000
27947.000000,13893.000000,43771.000000,18416.000000
27925.000000,13871.000000,43728.000000,18387.000000
27896.000000,13837.000000,43676.000000,18339.000000
27866.000000,13798.000000,43621.000000,18286.000000
27844.000000,13774.000000,43581.000000,18254.000000
27822.000000,13756.000000,43547.000000,18225.000000
27793.000000,13724.000000,43496.000000,18171.000000
27766.000000,13688.000000,43438.000000,18114.000000
27750.000000,13665.000000,43393.000000,18081.000000
27733.000000,13643.000000,43349.000000,18049.000000
27707.000000,13608.000000,43288.000000,17995.000000
27682.000000,13571.000000,43219.000000,17941.000000
27665.000000,13547.000000,43161.000000,17906.000000
27644.000000,13521.000000,43101.000000,17867.000000
27611.000000,13483.000000,43029.000000,17807.000000
27580.000000,13448.000000,42959.000000,17750.000000
27556.000000,13427.000000,42906.000000,17715.000000
27528.000000,13406.000000,42855.000000,17676.000000
27498.000000,13374.000000,42797.000000,17619.000000
27474.000000,13348.000000,42750.000000,17576.000000
27459.000000,13336.000000,42722.000000,17558.000000
27441.000000,13322.000000,42696.000000,17540.000000
27421.000000,13299.000000,42662.000000,17514.000000
27408.000000,13285.000000,42644.000000,17508.000000
27406.000000,13287.000000,42650.000000,17528.000000
27404.000000,13288.000000,42655.000000,17541.000000
27401.000000,13282.000000,42651.000000,17536.000000
27407.000000,13283.000000,42660.000000,17543.000000
27420.000000,13293.000000,42683.000000,17564.000000
27428.000000,13296.000000,42696.000000,17569.000000
27430.000000,13291.000000,42699.000000,17558.000000
27436.000000,13295.000000,42710.000000,17564.000000
27444.000000,13305.000000,42731.000000,17587.000000
27446.000000,13304.000000,42737.000000,17594.000000
27445.000000,13292.000000,42730.000000,17580.000000
27449.000000,13290.000000,42731.000000,17572.000000
27454.000000,13298.000000,42738.000000,17568.000000
27448.000000,13295.000000,42728.000000,17542.000000
27437.000000,13281.000000,42703.000000,17505.000000
27430.000000,13272.000000,42686.000000,17487.000000
27421.000000,13264.000000,42672.000000,17478.000000
27402.000000,13243.000000,42644.000000,17447.000000
27379.000000,13219.000000,42609.000000,17409.000000
27365.000000,13211.000000,42585.000000,17399.000000
27352.000000,13206.000000,42563.000000,17401.000000
27329.000000,13186.000000,42524.000000,17380.000000
27303.000000,13159.000000,42478.000000,17347.000000
27285.000000,13143.000000,42441.000000,17333.000000
27269.000000,13131.000000,42403.000000,17319.000000
27249.000000,13108.000000,42348.000000,17281.000000
27234.000000,13085.000000,42293.000000,17239.000000
27226.000000,13072.000000,42255.000000,17218.000000
27214.000000,13056.000000,42217.000000,17198.000000
27195.000000,13026.000000,42167.000000,17157.000000
27179.000000,12993.000000,42118.000000,17117.000000
27168.000000,12969.000000,42080.000000,17099.000000
27149.000000,12941.000000,42043.000000,17080.000000
27120.000000,12901.000000,41996.000000,17039.000000
27091.000000,12866.000000,41956.000000,17000.000000
27069.000000,12849.000000,41931.000000,16979.000000
27046.000000,12831.000000,41902.000000,16953.000000
27017.000000,12805.000000,41859.000000,16909.000000
26993.000000,12784.000000,41821.000000,16875.000000
26975.000000,12773.000000,41793.000000,16866.000000
26954.000000,12756.000000,41759.000000,16849.000000
26932.000000,12731.000000,41718.000000,16820.000000
26918.000000,12716.000000,41689.000000,16812.000000
26912.000000,12715.000000,41679.000000,16823.000000
26907.000000,12709.000000,41664.000000,16821.000000
26901.000000,12693.000000,41639.000000,16807.000000
26902.000000,12683.000000,41626.000000,16810.000000
26906.000000,12683.000000,41628.000000,16828.000000
26904.000000,12676.000000,41623.000000,16827.000000
26898.000000,12662.000000,41605.000000,16807.000000
26900.000000,12658.000000,41594.000000,16798.000000
26904.000000,12664.000000,41588.000000,16798.000000
26895.000000,12660.000000,41570.000000,16780.000000
26877.000000,12645.000000,41543.000000,16748.000000
26862.000000,12637.000000,41530.000000,16730.000000
26852.000000,12638.000000,41522.000000,16723.000000
26838.000000,12630.000000,41502.000000,16700.000000
26825.000000,12613.000000,41475.000000,16665.000000
26822.000000,12605.000000,41462.000000,16650.000000
26819.000000,12602.000000,41452.000000,16645.000000
26806.000000,12585.000000,41427.000000,16626.000000
26789.000000,12564.000000,41397.000000,16605.000000
26782.000000,12558.000000,41381.000000,16608.000000
26780.000000,12560.000000,41373.000000,16618.000000
26776.000000,12551.000000,41355.000000,16610.000000
26774.000000,12541.000000,41338.000000,16600.000000
26782.000000,12545.000000,41339.000000,16609.000000
26787.000000,12554.000000,41343.000000,16615.000000
26778.000000,12547.000000,41335.000000,16597.000000
26765.000000,12534.000000,41324.000000,16578.000000
26758.000000,12528.000000,41322.000000,16577.000000
26750.000000,12521.000000,41314.000000,16568.000000
26735.000000,12502.000000,41288.000000,16533.000000
26723.000000,12486.000000,41264.000000,16499.000000
26720.000000,12480.000000,41256.000000,16489.000000
26715.000000,12469.000000,41245.000000,16478.000000
26701.000000,12445.000000,41219.000000,16447.000000
26691.000000,12427.000000,41198.000000,16425.000000
26689.000000,12427.000000,41191.000000,16430.000000
26685.000000,12424.000000,41180.000000,16425.000000
26678.000000,12410.000000,41157.000000,16397.000000
26676.000000,12406.000000,41147.000000,16376.000000
26682.000000,12415.000000,41156.000000,16373.000000
26685.000000,12420.000000,41166.000000,16365.000000
26684.000000,12418.000000,41172.000000,16349.000000
26695.000000,12433.000000,41198.000000,16362.000000
26717.000000,12471.000000,41255.000000,16412.000000
26745.000000,12516.000000,41325.000000,16470.000000
26782.000000,12568.000000,41414.000000,16535.000000
26844.000000,12649.000000,41549.000000,16642.000000
26928.000000,12759.000000,41732.000000,16791.000000
27023.000000,12879.000000,41944.000000,16950.000000
27131.000000,13006.000000,42182.000000,17128.000000
27264.000000,13159.000000,42465.000000,17351.000000
27413.000000,13329.000000,42780.000000,17606.000000
27562.000000,13495.000000,43091.000000,17851.000000
27712.000000,13653.000000,43390.000000,18080.000000
27868.000000,13818.000000,43685.000000,18313.000000
28018.000000,13979.000000,43960.000000,18538.000000
28148.000000,14109.000000,44189.000000,18719.000000
28255.000000,14212.000000,44378.000000,18863.000000
28347.000000,14304.000000,44541.000000,18993.000000
28421.000000,14378.000000,44669.000000,19097.000000
28469.000000,14417.000000,44748.000000,19151.000000
28497.000000,14433.000000,44789.000000,19174.000000
28516.000000,14447.000000,44816.000000,19193.000000
28520.000000,14450.000000,44821.000000,19193.000000
28500.000000,14425.000000,44787.000000,19159.000000
28471.000000,14389.000000,44734.000000,19115.000000
28445.000000,14360.000000,44680.000000,19085.000000
28412.000000,14328.000000,44618.000000,19045.000000
28365.000000,14280.000000,44537.000000,18978.000000
28315.000000,14232.000000,44457.000000,18913.000000
28271.000000,14196.000000,44389.000000,18868.000000
28225.000000,14157.000000,44316.000000,18820.000000
28174.000000,14105.000000,44227.000000,18752.000000
28132.000000,14055.000000,44146.000000,18694.000000
28105.000000,14025.000000,44092.000000,18658.000000
28078.000000,14000.000000,44043.000000,18615.000000
28049.000000,13969.000000,43987.000000,18552.000000
28028.000000,13947.000000,43940.000000,18499.000000
28018.000000,13940.000000,43910.000000,18468.000000
28004.000000,13927.000000,43875.000000,18433.000000
27985.000000,13902.000000,43829.000000,18386.000000
27972.000000,13884.000000,43792.000000,18354.000000
27967.000000,13878.000000,43767.000000,18341.000000
27955.000000,13864.000000,43732.000000,18315.000000
27934.000000,13838.000000,43683.000000,18267.000000
27916.000000,13815.000000,43636.000000,18229.000000
27900.000000,13800.000000,43592.000000,18205.000000
27872.000000,13771.000000,43531.000000,18165.000000
27837.000000,13730.000000,43453.000000,18109.000000
27808.000000,13696.000000,43384.000000,18065.000000
27784.000000,13671.000000,43325.000000,18030.000000
27753.000000,13633.000000,43258.000000,17974.000000
27718.000000,13587.000000,43189.000000,17908.000000
27692.000000,13554.000000,43135.000000,17864.000000
27670.000000,13530.000000,43092.000000,17833.000000
27640.000000,13498.000000,43040.000000,17787.000000
27607.000000,13462.000000,42984.000000,17739.000000
27584.000000,13440.000000,42943.000000,17726.000000
27569.000000,13428.000000,42918.000000,17729.000000
27550.000000,13410.000000,42889.000000,17714.000000
27534.000000,13396.000000,42863.000000,17689.000000
27535.000000,13405.000000,42862.000000,17679.000000
27543.000000,13426.000000,42877.000000,17680.000000
27544.000000,13433.000000,42883.000000,17669.000000
27545.000000,13433.000000,42888.000000,17662.000000
27558.000000,13446.000000,42909.000000,17681.000000
27574.000000,13464.000000,42932.000000,17705.000000
27582.000000,13468.000000,42938.000000,17708.000000
27590.000000,13471.000000,42939.000000,17710.000000
27606.000000,13484.000000,42952.000000,17733.000000
27619.000000,13494.000000,42962.000000,17749.000000
27622.000000,13488.000000,42956.000000,17737.000000
27629.000000,13481.000000,42949.000000,17725.000000
27641.000000,13483.000000,42951.000000,17731.000000
27643.000000,13480.000000,42947.000000,17726.000000
27630.000000,13460.000000,42925.000000,17693.000000
27619.000000,13439.000000,42899.000000,17662.000000
27617.000000,13428.000000,42880.000000,17649.000000
27612.000000,13412.000000,42853.000000,17626.000000
27600.000000,13384.000000,42812.000000,17586.000000
27589.000000,13363.000000,42776.000000,17557.000000
27581.000000,13355.000000,42750.000000,17548.000000
27564.000000,13338.000000,42713.000000,17529.000000
27536.000000,13304.000000,42657.000000,17490.000000
27512.000000,13275.000000,42607.000000,17458.000000
27495.000000,13255.000000,42568.000000,17441.000000
27473.000000,13226.000000,42520.000000,17410.000000
27445.000000,13186.000000,42462.000000,17360.000000
27422.000000,13158.000000,42415.000000,17328.000000
27405.000000,13141.000000,42380.000000,17313.000000
27379.000000,13113.000000,42335.000000,17281.000000
27350.000000,13078.000000,42283.000000,17230.000000
27332.000000,13055.000000,42245.000000,17192.000000
27322.000000,13042.000000,42218.000000,17167.000000
27304.000000,13019.000000,42176.000000,17124.000000
27284.000000,12991.000000,42124.000000,17075.000000
27274.000000,12979.000000,42090.000000,17052.000000
27272.000000,12975.000000,42068.000000,17044.000000
27260.000000,12959.000000,42038.000000,17017.000000
27245.000000,12938.000000,42004.000000,16980.000000
27237.000000,12932.000000,41985.000000,16959.000000
27230.000000,12931.000000,41971.000000,16942.000000
27213.000000,12915.000000,41941.000000,16906.000000
27193.000000,12894.000000,41905.000000,16868.000000
27183.000000,12891.000000,41883.000000,16855.000000
27177.000000,12892.000000,41867.000000,16849.000000
27164.000000,12876.000000,41839.000000,16825.000000
27153.000000,12854.000000,41813.000000,16803.000000
27151.000000,12844.000000,41802.000000,16802.000000
27148.000000,12834.000000,41787.000000,16800.000000
27131.000000,12809.000000,41754.000000,16778.000000
27109.000000,12781.000000,41721.000000,16760.000000
27093.000000,12767.000000,41704.000000,16761.000000
27077.000000,12757.000000,41687.000000,16758.000000
27056.000000,12739.000000,41657.000000,16736.000000
27040.000000,12728.000000,41632.000000,16719.000000
27036.000000,12729.000000,41627.000000,16718.000000
27030.000000,12725.000000,41618.000000,16704.000000
27017.000000,12706.000000,41596.000000,16669.000000
27010.000000,12694.000000,41580.000000,16648.000000
27014.000000,12696.000000,41580.000000,16655.000000
27018.000000,12695.000000,41573.000000,16658.000000
27016.000000,12684.000000,41552.000000,16643.000000
27017.000000,12677.000000,41535.000000,16633.000000
27021.000000,12679.000000,41531.000000,16637.000000
27015.000000,12672.000000,41519.000000,16627.000000
27004.000000,12655.000000,41497.000000,16603.000000
27002.000000,12646.000000,41483.000000,16595.000000
27003.000000,12644.000000,41476.000000,16601.000000
26993.000000,12629.000000,41455.000000,16586.000000
26975.000000,12604.000000,41422.000000,16559.000000
26967.000000,12590.000000,41402.000000,16553.000000
26969.000000,12590.000000,41394.000000,16560.000000
26967.000000,12582.000000,41373.000000,16543.000000
26962.000000,12566.000000,41344.000000,16508.000000
26961.000000,12557.000000,41326.000000,16489.000000
26958.000000,12555.000000,41318.000000,16485.000000
26942.000000,12542.000000,41300.000000,16467.000000
26921.000000,12524.000000,41278.000000,16444.000000
26910.000000,12521.000000,41269.000000,16445.000000
26903.000000,12525.000000,41268.000000,16453.000000
26892.000000,12519.000000,41256.000000,16437.000000
26881.000000,12510.000000,41242.000000,16414.000000
26882.000000,12516.000000,41244.000000,16415.000000
26888.000000,12528.000000,41255.000000,16427.000000
26894.000000,12527.000000,41260.000000,16424.000000
26905.000000,12528.000000,41279.000000,16428.000000
26932.000000,12552.000000,41334.000000,16470.000000
26971.000000,12597.000000,41417.000000,16533.000000
27015.000000,12653.000000,41517.000000,16600.000000
27075.000000,12731.000000,41654.000000,16696.000000
27162.000000,12844.000000,41847.000000,16845.000000
27268.000000,12978.000000,42081.000000,17019.000000
27387.000000,13116.000000,42341.000000,17200.000000
27529.000000,13274.000000,42637.000000,17415.000000
27696.000000,13463.000000,42974.000000,17678.000000
27867.000000,13656.000000,43317.000000,17946.000000
28029.000000,13833.000000,43639.000000,18191.000000
28188.000000,14002.000000,43946.000000,18429.000000
28343.000000,14168.000000,44239.000000,18664.000000
28477.000000,14310.000000,44491.000000,18864.000000
28584.000000,14420.000000,44689.000000,19015.000000
28672.000000,14512.000000,44850.000000,19143.000000
28746.000000,14590.000000,44982.000000,19256.000000
28796.000000,14641.000000,45070.000000,19324.000000
28821.000000,14664.000000,45114.000000,19345.000000
28834.000000,14679.000000,45139.000000,19356.000000
28834.000000,14688.000000,45146.000000,19364.000000
28814.000000,14671.000000,45117.000000,19341.000000
28780.000000,14632.000000,45055.000000,19289.000000
28744.000000,14591.000000,44987.000000,19246.000000
28708.000000,14555.000000,44919.000000,19210.000000
28660.000000,14506.000000,44835.000000,19146.000000
28602.000000,14445.000000,44740.000000,19061.000000
28551.000000,14393.000000,44656.000000,18991.000000
28503.000000,14353.000000,44583.000000,18936.000000
28447.000000,14305.000000,44505.000000,18869.000000
28394.000000,14252.000000,44427.000000,18799.000000
28356.000000,14215.000000,44372.000000,18755.000000
28329.000000,14192.000000,44335.000000,18731.000000
28303.000000,14163.000000,44294.000000,18697.000000
28284.000000,14136.000000,44252.000000,18662.000000
28280.000000,14129.000000,44226.000000,18647.000000
28281.000000,14132.000000,44208.000000,18637.000000
28273.000000,14123.000000,44177.000000,18608.000000
28260.000000,14103.000000,44139.000000,18575.000000
28252.000000,14088.000000,44114.000000,18562.000000
28242.000000,14073.000000,44088.000000,18545.000000
28220.000000,14044.000000,44042.000000,18501.000000
28194.000000,14010.000000,43989.000000,18448.000000
28173.000000,13980.000000,43943.000000,18405.000000
28146.000000,13945.000000,43885.000000,18354.000000
28106.000000,13896.000000,43803.000000,18279.000000
28066.000000,13851.000000,43717.000000,18202.000000
28032.000000,13819.000000,43644.000000,18145.000000
27994.000000,13784.000000,43572.000000,18086.000000
27952.000000,13733.000000,43487.000000,18015.000000
27916.000000,13686.000000,43407.000000,17956.000000
27892.000000,13656.000000,43344.000000,17923.000000
27870.000000,13630.000000,43283.000000,17884.000000
27846.000000,13598.000000,43214.000000,17826.000000
27832.000000,13574.000000,43157.000000,17784.000000
27827.000000,13564.000000,43123.000000,17771.000000
27815.000000,13554.000000,43093.000000,17755.000000
27793.000000,13533.000000,43060.000000,17724.000000
27776.000000,13520.000000,43045.000000,17709.000000
27771.000000,13522.000000,43050.000000,17715.000000
27767.000000,13519.000000,43050.000000,17710.000000
27760.000000,13510.000000,43042.000000,17695.000000
27763.000000,13513.000000,43050.000000,17700.000000
27772.000000,13529.000000,43070.000000,17723.000000
27771.000000,13536.000000,43079.000000,17731.000000
27762.000000,13532.000000,43076.000000,17724.000000
27759.000000,13537.000000,43082.000000,17737.000000
27758.000000,13546.000000,43092.000000,17763.000000
27750.000000,13540.000000,43086.000000,17765.000000
27742.000000,13522.000000,43068.000000,17748.000000
27745.000000,13516.000000,43060.000000,17744.000000
27752.000000,13517.000000,43058.000000,17743.000000
27751.000000,13506.000000,43040.000000,17713.000000
27746.000000,13485.000000,43011.000000,17671.000000
27745.000000,13474.000000,42990.000000,17651.000000
27739.000000,13467.000000,42973.000000,17642.000000
27716.000000,13444.000000,42938.000000,17614.000000
27688.000000,13414.000000,42891.000000,17579.000000
27669.000000,13397.000000,42852.000000,17562.000000
27653.000000,13385.000000,42819.000000,17545.000000
27631.000000,13362.000000,42775.000000,17501.000000
27609.000000,13335.000000,42724.000000,17451.000000
27593.000000,13318.000000,42681.000000,17419.000000
27573.000000,13300.000000,42637.000000,17383.000000
27539.000000,13266.000000,42577.000000,17324.000000
27503.000000,13230.000000,42517.000000,17269.000000
27476.000000,13205.000000,42474.000000,17238.000000
27451.000000,13179.000000,42430.000000,17209.000000
27420.000000,13138.000000,42374.000000,17163.000000
27394.000000,13098.000000,42325.000000,17124.000000
27378.000000,13074.000000,42292.000000,17108.000000
27361.000000,13051.000000,42255.000000,17085.000000
27336.000000,13019.000000,42205.000000,17044.000000
27319.000000,12996.000000,42165.000000,17013.000000
27313.000000,12990.000000,42142.000000,17006.000000
27307.000000,12981.000000,42114.000000,16996.000000
27298.000000,12963.000000,42075.000000,16974.000000
27296.000000,12955.000000,42047.000000,16964.000000
27299.000000,12960.000000,42037.000000,16969.000000
27294.000000,12957.000000,42020.000000,16958.000000
27278.000000,12941.000000,41986.000000,16923.000000
27264.000000,12930.000000,41958.000000,16895.000000
27252.000000,12931.000000,41941.000000,16885.000000
27232.000000,12919.000000,41914.000000,16864.000000
27204.000000,12891.000000,41877.000000,16828.000000
27185.000000,12871.000000,41856.000000,16812.000000
27175.000000,12862.000000,41848.000000,16813.000000
27157.000000,12844.000000,41829.000000,16799.000000
27136.000000,12818.000000,41801.000000,16772.000000
27126.000000,12805.000000,41787.000000,16765.000000
27120.000000,12803.000000,41782.000000,16768.000000
27104.000000,12788.000000,41761.000000,16749.000000
27086.000000,12763.000000,41729.000000,16719.000000
27079.000000,12751.000000,41708.000000,16711.000000
27079.000000,12750.000000,41695.000000,16713.000000
27076.000000,12737.000000,41669.000000,16694.000000
27071.000000,12723.000000,41640.000000,16665.000000
27075.000000,12722.000000,41627.000000,16655.000000
27078.000000,12727.000000,41618.000000,16654.000000
27071.000000,12716.000000,41594.000000,16632.000000
27060.000000,12700.000000,41567.000000,16602.000000
27057.000000,12694.000000,41554.000000,16590.000000
27056.000000,12687.000000,41546.000000,16581.000000
27044.000000,12664.000000,41525.000000,16554.000000
27028.000000,12640.000000,41505.000000,16525.000000
27016.000000,12631.000000,41503.000000,16515.000000
27000.000000,12623.000000,41499.000000,16506.000000
26975.000000,12604.000000,41479.000000,16482.000000
26955.000000,12587.000000,41460.000000,16465.000000
26947.000000,12583.000000,41453.000000,16470.000000
26940.000000,12577.000000,41441.000000,16472.000000
26927.000000,12558.000000,41418.000000,16457.000000
26917.000000,12541.000000,41398.000000,16448.000000
26914.000000,12538.000000,41388.000000,16453.000000
26910.000000,12533.000000,41371.000000,16444.000000
26900.000000,12520.000000,41342.000000,16416.000000
26895.000000,12512.000000,41320.000000,16399.000000
26896.000000,12515.000000,41312.000000,16401.000000
26891.000000,12511.000000,41298.000000,16392.000000
26877.000000,12491.000000,41268.000000,16364.000000
26869.000000,12474.000000,41244.000000,16347.000000
26872.000000,12472.000000,41237.000000,16350.000000
26874.000000,12470.000000,41228.000000,16345.000000
26872.000000,12465.000000,41213.000000,16330.000000
26879.000000,12475.000000,41219.000000,16336.000000
26900.000000,12506.000000,41253.000000,16367.000000
26926.000000,12540.000000,41297.000000,16395.000000
26959.000000,12579.000000,41358.000000,16426.000000
27009.000000,12640.000000,41463.000000,16501.000000
27078.000000,12727.000000,41611.000000,16617.000000
27156.000000,12820.000000,41781.000000,16741.000000
27245.000000,12925.000000,41979.000000,16877.000000
27359.000000,13064.000000,42228.000000,17060.000000
27493.000000,13229.000000,42523.000000,17280.000000
27632.000000,13395.000000,42834.000000,17504.000000
27774.000000,13557.000000,43150.000000,17732.000000
27927.000000,13729.000000,43478.000000,17983.000000
28082.000000,13898.000000,43795.000000,18235.000000
28221.000000,14040.000000,44070.000000,18456.000000
28347.000000,14161.000000,44307.000000,18654.000000
28466.000000,14277.000000,44521.000000,18846.000000
28567.000000,14379.000000,44703.000000,19010.000000
28639.000000,14447.000000,44833.000000,19116.000000
28691.000000,14491.000000,44924.000000,19183.000000
28736.000000,14526.000000,44996.000000,19240.000000
28764.000000,14544.000000,45031.000000,19270.000000
28763.000000,14534.000000,45018.000000,19257.000000
28746.000000,14511.000000,44978.000000,19228.000000
28722.000000,14493.000000,44933.000000,19203.000000
28683.000000,14467.000000,44872.000000,19157.000000
28626.000000,14417.000000,44783.000000,19073.000000
28568.000000,14361.000000,44687.000000,18988.000000
28517.000000,14316.000000,44603.000000,18926.000000
28460.000000,14267.000000,44516.000000,18860.000000
28394.000000,14203.000000,44418.000000,18773.000000
28339.000000,14144.000000,44329.000000,18698.000000
28300.000000,14103.000000,44263.000000,18652.000000
28265.000000,14066.000000,44199.000000,18606.000000
28230.000000,14026.000000,44131.000000,18545.000000
28208.000000,14000.000000,44080.000000,18500.000000
28199.000000,13992.000000,44048.000000,18479.000000
28182.000000,13979.000000,44011.000000,18449.000000
28155.000000,13949.000000,43963.000000,18407.000000
28132.000000,13924.000000,43926.000000,18384.000000
28116.000000,13912.000000,43903.000000,18379.000000
28092.000000,13891.000000,43868.000000,18354.000000
28064.000000,13859.000000,43819.000000,18310.000000
28044.000000,13836.000000,43776.000000,18279.000000
28028.000000,13820.000000,43738.000000,18254.000000
28003.000000,13788.000000,43681.000000,18202.000000
27969.000000,13743.000000,43606.000000,18132.000000
27941.000000,13705.000000,43538.000000,18080.000000
27918.000000,13673.000000,43477.000000,18042.000000
27888.000000,13631.000000,43402.000000,17986.000000
27851.000000,13581.000000,43320.000000,17917.000000
27820.000000,13546.000000,43252.000000,17866.000000
27791.000000,13518.000000,43193.000000,17827.000000
27751.000000,13478.000000,43122.000000,17770.000000
27710.000000,13434.000000,43047.000000,17710.000000
27681.000000,13408.000000,42994.000000,17675.000000
27661.000000,13395.000000,42958.000000,17651.000000
27639.000000,13376.000000,42919.000000,17613.000000
27622.000000,13358.000000,42887.000000,17578.000000
27619.000000,13359.000000,42881.000000,17573.000000
27621.000000,13363.000000,42883.000000,17572.000000
27617.000000,13353.000000,42873.000000,17554.000000
27614.000000,13343.000000,42864.000000,17542.000000
27620.000000,13351.000000,42872.000000,17555.000000
27628.000000,13361.000000,42884.000000,17573.000000
27629.000000,13358.000000,42882.000000,17571.000000
27633.000000,13357.000000,42881.000000,17573.000000
27645.000000,13370.000000,42896.000000,17601.000000
27655.000000,13383.000000,42911.000000,17624.000000
27657.000000,13384.000000,42911.000000,17619.000000
27662.000000,13383.000000,42911.000000,17614.000000
27667.000000,13387.000000,42920.000000,17626.000000
27662.000000,13382.000000,42916.000000,17625.000000
27643.000000,13360.000000,42890.000000,17599.000000
27623.000000,13337.000000,42862.000000,17575.000000
27609.000000,13322.000000,42840.000000,17566.000000
27588.000000,13299.000000,42808.000000,17545.000000
27561.000000,13268.000000,42761.000000,17502.000000
27542.000000,13248.000000,42722.000000,17469.000000
27535.000000,13239.000000,42695.000000,17454.000000
27525.000000,13222.000000,42657.000000,17427.000000
27509.000000,13193.000000,42605.000000,17383.000000
27499.000000,13173.000000,42561.000000,17352.000000
27496.000000,13162.000000,42526.000000,17334.000000
27481.000000,13140.000000,42478.000000,17294.000000
27456.000000,13106.000000,42421.000000,17239.000000
27436.000000,13081.000000,42378.000000,17206.000000
27420.000000,13061.000000,42343.000000,17187.000000
27395.000000,13025.000000,42294.000000,17147.000000
27362.000000,12981.000000,42236.000000,17096.000000
27340.000000,12955.000000,42194.000000,17066.000000
27324.000000,12940.000000,42161.000000,17048.000000
27301.000000,12915.000000,42113.000000,17014.000000
27277.000000,12884.000000,42061.000000,16974.000000
27266.000000,12867.000000,42026.000000,16957.000000
27259.000000,12858.000000,42001.000000,16950.000000
27240.000000,12834.000000,41961.000000,16919.000000
27222.000000,12808.000000,41917.000000,16880.000000
27215.000000,12796.000000,41889.000000,16866.000000
27209.000000,12790.000000,41866.000000,16859.000000
27190.000000,12770.000000,41830.000000,16832.000000
27168.000000,12745.000000,41791.000000,16800.000000
27157.000000,12737.000000,41766.000000,16790.000000
27150.000000,12733.000000,41745.000000,16786.000000
27139.000000,12715.000000,41712.000000,16764.000000
27130.000000,12693.000000,41679.000000,16744.000000
27128.000000,12683.000000,41662.000000,16744.000000
27121.000000,12671.000000,41648.000000,16737.000000
27102.000000,12645.000000,41621.000000,16706.000000
27085.000000,12621.000000,41598.000000,16681.000000
27074.000000,12610.000000,41589.000000,16681.000000
27060.000000,12600.000000,41575.000000,16677.000000
27039.000000,12577.000000,41545.000000,16655.000000
27022.000000,12558.000000,41522.000000,16640.000000
27016.000000,12556.000000,41519.000000,16647.000000
27006.000000,12550.000000,41513.000000,16646.000000
26987.000000,12533.000000,41490.000000,16624.000000
26974.000000,12522.000000,41473.000000,16606.000000
26970.000000,12524.000000,41469.000000,16599.000000
26963.000000,12522.000000,41457.000000,16575.000000
26951.000000,12510.000000,41432.000000,16531.000000
26945.000000,12505.000000,41417.000000,16501.000000
26946.000000,12512.000000,41416.000000,16489.000000
26940.000000,12513.000000,41409.000000,16468.000000
26931.000000,12507.000000,41391.000000,16436.000000
26930.000000,12512.000000,41383.000000,16424.000000
26934.000000,12525.000000,41388.000000,16432.000000
26932.000000,12527.000000,41382.000000,16423.000000
26924.000000,12515.000000,41367.000000,16399.000000
26922.000000,12511.000000,41361.000000,16393.000000
26923.000000,12514.000000,41363.000000,16402.000000
26914.000000,12503.000000,41350.000000,16395.000000
26901.000000,12480.000000,41325.000000,16380.000000
26894.000000,12468.000000,41309.000000,16386.000000
26890.000000,12463.000000,41299.000000,16398.000000
26880.000000,12446.000000,41276.000000,16386.000000
26869.000000,12423.000000,41248.000000,16360.000000
26864.000000,12409.000000,41233.000000,16355.000000
26858.000000,12401.000000,41221.000000,16353.000000
26842.000000,12382.000000,41197.000000,16324.000000
26825.000000,12361.000000,41175.000000,16288.000000
26818.000000,12358.000000,41169.000000,16278.000000
26812.000000,12358.000000,41165.000000,16274.000000
26801.000000,12346.000000,41149.000000,16254.000000
26794.000000,12337.000000,41135.000000,16239.000000
26801.000000,12346.000000,41141.000000,16255.000000
26814.000000,12361.000000,41155.000000,16277.000000
26830.000000,12371.000000,41168.000000,16284.000000
26856.000000,12394.000000,41201.000000,16304.000000
26901.000000,12444.000000,41272.000000,16360.000000
26953.000000,12506.000000,41370.000000,16435.000000
27008.000000,12571.000000,41484.000000,16516.000000
27080.000000,12658.000000,41638.000000,16628.000000
27177.000000,12776.000000,41843.000000,16782.000000
27286.000000,12907.000000,42079.000000,16949.000000
27399.000000,13036.000000,42327.000000,17118.000000
27528.000000,13178.000000,42603.000000,17314.000000
27670.000000,13340.000000,42906.000000,17543.000000
27806.000000,13498.000000,43203.000000,17771.000000
27932.000000,13635.000000,43474.000000,17980.000000
28055.000000,13768.000000,43729.000000,18189.000000
28176.000000,13901.000000,43968.000000,18393.000000
28280.000000,14010.000000,44167.000000,18554.000000
28362.000000,14089.000000,44319.000000,18670.000000
28430.000000,14157.000000,44441.000000,18773.000000
28484.000000,14212.000000,44536.000000,18865.000000
28512.000000,14237.000000,44584.000000,18910.000000
28519.000000,14236.000000,44591.000000,18915.000000
28517.000000,14230.000000,44581.000000,18913.000000
28503.000000,14219.000000,44558.000000,18900.000000
28469.000000,14185.000000,44501.000000,18846.000000
28423.000000,14133.000000,44416.000000,18768.000000
28383.000000,14086.000000,44333.000000,18704.000000
28347.000000,14045.000000,44253.000000,18643.000000
28300.000000,13992.000000,44158.000000,18560.000000
28251.000000,13934.000000,44058.000000,18468.000000
28215.000000,13892.000000,43975.000000,18398.000000
28185.000000,13860.000000,43902.000000,18343.000000
28147.000000,13821.000000,43822.000000,18278.000000
28108.000000,13783.000000,43744.000000,18216.000000
28081.000000,13764.000000,43688.000000,18179.000000
28061.000000,13752.000000,43644.000000,18148.000000
28034.000000,13730.000000,43593.000000,18101.000000
28011.000000,13708.000000,43543.000000,18062.000000
28000.000000,13700.000000,43510.000000,18049.000000
27989.000000,13689.000000,43479.000000,18032.000000
27969.000000,13656.000000,43429.000000,17985.000000
27945.000000,13615.000000,43377.000000,17939.000000
27926.000000,13585.000000,43337.000000,17914.000000
27899.000000,13551.000000,43290.000000,17882.000000
27859.000000,13501.000000,43222.000000,17819.000000
27819.000000,13453.000000,43149.000000,17754.000000
27789.000000,13418.000000,43082.000000,17708.000000
27759.000000,13380.000000,43009.000000,17658.000000
27725.000000,13332.000000,42924.000000,17591.000000
27696.000000,13293.000000,42849.000000,17535.000000
27677.000000,13273.000000,42794.000000,17505.000000
27653.000000,13249.000000,42739.000000,17471.000000
27621.000000,13215.000000,42677.000000,17418.000000
27596.000000,13189.000000,42629.000000,17378.000000
27584.000000,13182.000000,42602.000000,17363.000000
27569.000000,13173.000000,42573.000000,17344.000000
27550.000000,13155.000000,42536.000000,17313.000000
27539.000000,13143.000000,42513.000000,17300.000000
27536.000000,13144.000000,42507.000000,17307.000000
27529.000000,13138.000000,42495.000000,17299.000000
27520.000000,13123.000000,42481.000000,17276.000000
27521.000000,13123.000000,42485.000000,17272.000000
27528.000000,13136.000000,42503.000000,17285.000000
27527.000000,13136.000000,42509.000000,17281.000000
27519.000000,13127.000000,42507.000000,17266.000000
27522.000000,13131.000000,42518.000000,17272.000000
27532.000000,13141.000000,42537.000000,17293.000000
27534.000000,13139.000000,42540.000000,17294.000000
27529.000000,13132.000000,42531.000000,17279.000000
27531.000000,13137.000000,42529.000000,17277.000000
27535.000000,13145.000000,42526.000000,17285.000000
27531.000000,13134.000000,42502.000000,17275.000000
27524.000000,13110.000000,42470.000000,17258.000000
27525.000000,13096.000000,42450.000000,17261.000000
27529.000000,13085.000000,42434.000000,17263.000000
27525.000000,13064.000000,42402.000000,17233.000000
27519.000000,13042.000000,42365.000000,17193.000000
27519.000000,13034.000000,42340.000000,17173.000000
27514.000000,13026.000000,42315.000000,17157.000000
27498.000000,12999.000000,42273.000000,17115.000000
27480.000000,12966.000000,42228.000000,17066.000000
27467.000000,12945.000000,42198.000000,17041.000000
27448.000000,12927.000000,42168.000000,17018.000000
27418.000000,12899.000000,42126.000000,16972.000000
27389.000000,12877.000000,42085.000000,16932.000000
27370.000000,12872.000000,42057.000000,16916.000000
27349.000000,12864.000000,42024.000000,16898.000000
27320.000000,12838.000000,41976.000000,16863.000000
27295.000000,12814.000000,41931.000000,16837.000000
27278.000000,12807.000000,41902.000000,16832.000000
27258.000000,12795.000000,41869.000000,16817.000000
27234.000000,12771.000000,41822.000000,16778.000000
27215.000000,12749.000000,41782.000000,16746.000000
27206.000000,12734.000000,41755.000000,16730.000000
27197.000000,12712.000000,41722.000000,16702.000000
27183.000000,12679.000000,41679.000000,16660.000000
27173.000000,12657.000000,41649.000000,16637.000000
27168.000000,12647.000000,41635.000000,16636.000000
27156.000000,12633.000000,41614.000000,16624.000000
27142.000000,12613.000000,41584.000000,16598.000000
27138.000000,12605.000000,41564.000000,16586.000000
27138.000000,12609.000000,41558.000000,16587.000000
27128.000000,12605.000000,41542.000000,16566.000000
27110.000000,12589.000000,41515.000000,16534.000000
27100.000000,12582.000000,41498.000000,16523.000000
27094.000000,12582.000000,41491.000000,16528.000000
27080.000000,12570.000000,41473.000000,16517.000000
27062.000000,12550.000000,41447.000000,16494.000000
27052.000000,12540.000000,41431.000000,16487.000000
27046.000000,12537.000000,41422.000000,16483.000000
27034.000000,12522.000000,41401.000000,16456.000000
27020.000000,12503.000000,41377.000000,16419.000000
27013.000000,12496.000000,41368.000000,16405.000000
27009.000000,12495.000000,41366.000000,16402.000000
26998.000000,12481.000000,41349.000000,16383.000000
26987.000000,12463.000000,41329.000000,16359.000000
26985.000000,12462.000000,41324.000000,16356.000000
26984.000000,12463.000000,41322.000000,16357.000000
26976.000000,12446.000000,41302.000000,16337.000000
26965.000000,12423.000000,41279.000000,16312.000000
26961.000000,12414.000000,41269.000000,16310.000000
26955.000000,12407.000000,41260.000000,16310.000000
26939.000000,12389.000000,41238.000000,16289.000000
26925.000000,12375.000000,41220.000000,16273.000000
26921.000000,12377.000000,41220.000000,16281.000000
26916.000000,12379.000000,41218.000000,16282.000000
26904.000000,12366.000000,41198.000000,16260.000000
26897.000000,12355.000000,41180.000000,16246.000000
26899.000000,12359.000000,41177.000000,16256.000000
26895.000000,12361.000000,41174.000000,16259.000000
26886.000000,12351.000000,41161.000000,16241.000000
26884.000000,12346.000000,41153.000000,16232.000000
26891.000000,12355.000000,41157.000000,16241.000000
26895.000000,12360.000000,41153.000000,16239.000000
26890.000000,12352.000000,41134.000000,16213.000000
26888.000000,12349.000000,41122.000000,16194.000000
26890.000000,12357.000000,41121.000000,16190.000000
26886.000000,12359.000000,41107.000000,16175.000000
26878.000000,12348.000000,41077.000000,16147.000000
26875.000000,12341.000000,41054.000000,16139.000000
26880.000000,12343.000000,41046.000000,16148.000000
26879.000000,12338.000000,41031.000000,16142.000000
26872.000000,12323.000000,41007.000000,16118.000000
26873.000000,12316.000000,40996.000000,16110.000000
26881.000000,12323.000000,41003.000000,16121.000000
26883.000000,12326.000000,41012.000000,16125.000000
26887.000000,12331.000000,41034.000000,16128.000000
26907.000000,12360.000000,41094.000000,16162.000000
26943.000000,12412.000000,41189.000000,16228.000000
26989.000000,12470.000000,41299.000000,16303.000000
27048.000000,12537.000000,41434.000000,16398.000000
27133.000000,12634.000000,41619.000000,16538.000000
27238.000000,12756.000000,41848.000000,16710.000000
27351.000000,12882.000000,42093.000000,16887.000000
27473.000000,13017.000000,42357.000000,17082.000000
27612.000000,13179.000000,42652.000000,17316.000000
27756.000000,13351.000000,42957.000000,17566.000000
27890.000000,13510.000000,43242.000000,17795.000000
28018.000000,13656.000000,43506.000000,18007.000000
28144.000000,13801.000000,43753.000000,18217.000000
28259.000000,13930.000000,43965.000000,18401.000000
28348.000000,14023.000000,44124.000000,18534.000000
28416.000000,14091.000000,44240.000000,18632.000000
28471.000000,14146.000000,44332.000000,18715.000000
28501.000000,14176.000000,44388.000000,18758.000000
28502.000000,14172.000000,44396.000000,18753.000000
28491.000000,14155.000000,44378.000000,18732.000000
28474.000000,14141.000000,44351.000000,18714.000000
28444.000000,14115.000000,44304.000000,18673.000000
28398.000000,14069.000000,44224.000000,18598.000000
28347.000000,14020.000000,44134.000000,18520.000000
28300.000000,13976.000000,44046.000000,18455.000000
28246.000000,13921.000000,43952.000000,18379.000000
28185.000000,13852.000000,43847.000000,18281.000000
28127.000000,13794.000000,43754.000000,18196.000000
28078.000000,13752.000000,43679.000000,18142.000000
28031.000000,13711.000000,43602.000000,18089.000000
27987.000000,13664.000000,43521.000000,18026.000000
27958.000000,13630.000000,43457.000000,17981.000000
27941.000000,13610.000000,43416.000000,17957.000000
27919.000000,13583.000000,43373.000000,17922.000000
27891.000000,13546.000000,43322.000000,17872.000000
27874.000000,13522.000000,43287.000000,17839.000000
27867.000000,13511.000000,43264.000000,17829.000000
27860.000000,13496.000000,43230.000000,17808.000000
27853.000000,13477.000000,43183.000000,17772.000000
27853.000000,13470.000000,43146.000000,17749.000000
27854.000000,13470.000000,43116.000000,17736.000000
27843.000000,13453.000000,43069.000000,17699.000000
27822.000000,13421.000000,43008.000000,17642.000000
27804.000000,13394.000000,42952.000000,17600.000000
27783.000000,13367.000000,42898.000000,17567.000000
27751.000000,13326.000000,42826.000000,17514.000000
27716.000000,13280.000000,42747.000000,17456.000000
27686.000000,13250.000000,42685.000000,17421.000000
27658.000000,13230.000000,42634.000000,17393.000000
27626.000000,13199.000000,42578.000000,17346.000000
27595.000000,13165.000000,42522.000000,17297.000000
27572.000000,13143.000000,42483.000000,17274.000000
27552.000000,13125.000000,42451.000000,17259.000000
27531.000000,13100.000000,42412.000000,17227.000000
27516.000000,13081.000000,42380.000000,17197.000000
27516.000000,13079.000000,42372.000000,17193.000000
27521.000000,13080.000000,42371.000000,17189.000000
27522.000000,13071.000000,42359.000000,17166.000000
27527.000000,13068.000000,42354.000000,17150.000000
27542.000000,13083.000000,42368.000000,17158.000000
27554.000000,13099.000000,42382.000000,17161.000000
27558.000000,13101.000000,42384.000000,17141.000000
27565.000000,13103.000000,42394.000000,17128.000000
27579.000000,13116.000000,42420.000000,17140.000000
27588.000000,13121.000000,42437.000000,17149.000000
27586.000000,13109.000000,42433.000000,17140.000000
27585.000000,13101.000000,42429.000000,17142.000000
27591.000000,13108.000000,42438.000000,17162.000000
27589.000000,13108.000000,42437.000000,17166.000000
27573.000000,13093.000000,42418.000000,17146.000000
27561.000000,13084.000000,42401.000000,17135.000000
27557.000000,13088.000000,42390.000000,17144.000000
27546.000000,13080.000000,42365.000000,17138.000000
27527.000000,13057.000000,42328.000000,17109.000000
27517.000000,13040.000000,42299.000000,17091.000000
27514.000000,13033.000000,42277.000000,17087.000000
27505.000000,13016.000000,42244.000000,17063.000000
27490.000000,12989.000000,42199.000000,17025.000000
27484.000000,12976.000000,42165.000000,17008.000000
27484.000000,12974.000000,42143.000000,17005.000000
27476.000000,12960.000000,42107.000000,16980.000000
27460.000000,12933.000000,42060.000000,16938.000000
27449.000000,12918.000000,42022.000000,16913.000000
27442.000000,12913.000000,41991.000000,16899.000000
27428.000000,12897.000000,41946.000000,16863.000000
27410.000000,12873.000000,41895.000000,16816.000000
27401.000000,12860.000000,41863.000000,16790.000000
27390.000000,12851.000000,41839.000000,16770.000000
27366.000000,12826.000000,41802.000000,16727.000000
27336.000000,12795.000000,41758.000000,16676.000000
27315.000000,12777.000000,41727.000000,16647.000000
27295.000000,12763.000000,41697.000000,16624.000000
27267.000000,12736.000000,41654.000000,16580.000000
27239.000000,12706.000000,41609.000000,16533.000000
27222.000000,12687.000000,41579.000000,16508.000000
27209.000000,12670.000000,41553.000000,16489.000000
27188.000000,12643.000000,41514.000000,16453.000000
27168.000000,12616.000000,41476.000000,16420.000000
27160.000000,12604.000000,41451.000000,16410.000000
27157.000000,12596.000000,41430.000000,16402.000000
27151.000000,12578.000000,41399.000000,16379.000000
27148.000000,12564.000000,41377.000000,16367.000000
27152.000000,12568.000000,41374.000000,16380.000000
27153.000000,12572.000000,41373.000000,16387.000000
27144.000000,12561.000000,41359.000000,16367.000000
27135.000000,12548.000000,41347.000000,16351.000000
27131.000000,12547.000000,41343.000000,16354.000000
27122.000000,12543.000000,41330.000000,16348.000000
27107.000000,12527.000000,41301.000000,16326.000000
27097.000000,12517.000000,41280.000000,16314.000000
27096.000000,12519.000000,41274.000000,16324.000000
27094.000000,12516.000000,41264.000000,16326.000000
27087.000000,12502.000000,41245.000000,16307.000000
27082.000000,12493.000000,41234.000000,16294.000000
27080.000000,12493.000000,41235.000000,16291.000000
27071.000000,12486.000000,41224.000000,16270.000000
27052.000000,12469.000000,41197.000000,16232.000000
27038.000000,12457.000000,41175.000000,16210.000000
27029.000000,12454.000000,41160.000000,16206.000000
27017.000000,12444.000000,41138.000000,16189.000000
27005.000000,12426.000000,41111.000000,16160.000000
27006.000000,12416.000000,41100.000000,16149.000000
27013.000000,12416.000000,41098.000000,16151.000000
27011.000000,12405.000000,41082.000000,16136.000000
27000.000000,12388.000000,41058.000000,16111.000000
26994.000000,12383.000000,41049.000000,16108.000000
26992.000000,12386.000000,41051.000000,16118.000000
26983.000000,12375.000000,41039.000000,16112.000000
26973.000000,12355.000000,41016.000000,16099.000000
26971.000000,12347.000000,41005.000000,16101.000000
26969.000000,12346.000000,41003.000000,16106.000000
26954.000000,12334.000000,40990.000000,16088.000000
26937.000000,12318.000000,40971.000000,16062.000000
26929.000000,12314.000000,40965.000000,16056.000000
26925.000000,12317.000000,40961.000000,16054.000000
26913.000000,12305.000000,40942.000000,16034.000000
26903.000000,12288.000000,40921.000000,16015.000000
26902.000000,12280.000000,40913.000000,16015.000000
26901.000000,12269.000000,40904.000000,16012.000000
26889.000000,12246.000000,40879.000000,15985.000000
26875.000000,12228.000000,40857.000000,15956.000000
26868.000000,12225.000000,40851.000000,15949.000000
26857.000000,12219.000000,40843.000000,15942.000000
26837.000000,12198.000000,40820.000000,15918.000000
26822.000000,12182.000000,40805.000000,15903.000000
26822.000000,12189.000000,40813.000000,15914.000000
26828.000000,12205.000000,40831.000000,15924.000000
26841.000000,12221.000000,40853.000000,15921.000000
26870.000000,12258.000000,40905.000000,15942.000000
26919.000000,12326.000000,40998.000000,16008.000000
26976.000000,12403.000000,41115.000000,16096.000000
27039.000000,12480.000000,41252.000000,16195.000000
27121.000000,12577.000000,41430.000000,16329.000000
27228.000000,12704.000000,41656.000000,16508.000000
27346.000000,12841.000000,41906.000000,16703.000000
27471.000000,12981.000000,42175.000000,16906.000000
27613.000000,13139.000000,42476.000000,17141.000000
27769.000000,13312.000000,42798.000000,17396.000000
27919.000000,13473.000000,43104.000000,17629.000000
28057.000000,13615.000000,43380.000000,17833.000000
28188.000000,13753.000000,43640.000000,18035.000000
28305.000000,13883.000000,43873.000000,18230.000000
28393.000000,13986.000000,44055.000000,18380.000000
28453.000000,14057.000000,44188.000000,18485.000000
28502.000000,14115.000000,44294.000000,18574.000000
28538.000000,14160.000000,44368.000000,18638.000000
28549.000000,14174.000000,44390.000000,18652.000000
28540.000000,14161.000000,44369.000000,18636.000000
28526.000000,14144.000000,44333.000000,18622.000000
28503.000000,14120.000000,44283.000000,18598.000000
28460.000000,14073.000000,44205.000000,18539.000000
28410.000000,14016.000000,44113.000000,18461.000000
28369.000000,13970.000000,44032.000000,18395.000000
28327.000000,13927.000000,43953.000000,18330.000000
28276.000000,13872.000000,43860.000000,18244.000000
28230.000000,13816.000000,43767.000000,18160.000000
28199.000000,13780.000000,43692.000000,18107.000000
28173.000000,13755.000000,43623.000000,18063.000000
28141.000000,13719.000000,43547.000000,18004.000000
28111.000000,13683.000000,43481.000000,17956.000000
28092.000000,13665.000000,43441.000000,17942.000000
28075.000000,13651.000000,43411.000000,17930.000000
28050.000000,13627.000000,43371.000000,17893.000000
28030.000000,13607.000000,43338.000000,17861.000000
28021.000000,13602.000000,43321.000000,17856.000000
28011.000000,13590.000000,43302.000000,17851.000000
27989.000000,13561.000000,43265.000000,17824.000000
27968.000000,13534.000000,43226.000000,17799.000000
27954.000000,13520.000000,43196.000000,17784.000000
27931.000000,13501.000000,43157.000000,17749.000000
27896.000000,13467.000000,43098.000000,17687.000000
27862.000000,13436.000000,43041.000000,17631.000000
27838.000000,13415.000000,42992.000000,17592.000000
27809.000000,13384.000000,42932.000000,17540.000000
27773.000000,13338.000000,42855.000000,17469.000000
27741.000000,13300.000000,42788.000000,17413.000000
27717.000000,13275.000000,42735.000000,17375.000000
27690.000000,13241.000000,42673.000000,17324.000000
27657.000000,13192.000000,42599.000000,17260.000000
27629.000000,13154.000000,42540.000000,17218.000000
27607.000000,13131.000000,42496.000000,17193.000000
27579.000000,13101.000000,42445.000000,17150.000000
27549.000000,13066.000000,42388.000000,17096.000000
27531.000000,13051.000000,42353.000000,17070.000000
27528.000000,13053.000000,42340.000000,17068.000000
27524.000000,13046.000000,42326.000000,17052.000000
27517.000000,13032.000000,42308.000000,17029.000000
27515.000000,13031.000000,42304.000000,17031.000000
27516.000000,13038.000000,42307.000000,17051.000000
27511.000000,13037.000000,42298.000000,17055.000000
27507.000000,13032.000000,42283.000000,17054.000000
27514.000000,13040.000000,42284.000000,17074.000000
27526.000000,13055.000000,42294.000000,17096.000000
27528.000000,13054.000000,42292.000000,17095.000000
27529.000000,13042.000000,42280.000000,17085.000000
27539.000000,13039.000000,42278.000000,17090.000000
27552.000000,13036.000000,42278.000000,17097.000000
27555.000000,13020.000000,42262.000000,17090.000000
27551.000000,13005.000000,42244.000000,17081.000000
27545.000000,13003.000000,42241.000000,17087.000000
27534.000000,12998.000000,42235.000000,17083.000000
27510.000000,12977.000000,42208.000000,17052.000000
27482.000000,12951.000000,42173.000000,17020.000000
27464.000000,12935.000000,42145.000000,17006.000000
27449.000000,12919.000000,42112.000000,16988.000000
27430.000000,12890.000000,42064.000000,16945.000000
27413.000000,12862.000000,42021.000000,16901.000000
27403.000000,12849.000000,41992.000000,16877.000000
27387.000000,12832.000000,41957.000000,16846.000000
27359.000000,12801.000000,41906.000000,16792.000000
27336.000000,12773.000000,41860.000000,16751.000000
27320.000000,12756.000000,41829.000000,16735.000000
27300.000000,12735.000000,41795.000000,16713.000000
27273.000000,12702.000000,41749.000000,16676.000000
27254.000000,12677.000000,41712.000000,16654.000000
27245.000000,12664.000000,41690.000000,16650.000000
27232.000000,12646.000000,41665.000000,16630.000000
27215.000000,12621.000000,41628.000000,16588.000000
27204.000000,12606.000000,41602.000000,16561.000000
27199.000000,12602.000000,41589.000000,16550.000000
27181.000000,12587.000000,41564.000000,16520.000000
27156.000000,12561.000000,41525.000000,16467.000000
27138.000000,12543.000000,41494.000000,16425.000000
27128.000000,12530.000000,41472.000000,16400.000000
27111.000000,12507.000000,41435.000000,16366.000000
27092.000000,12479.000000,41387.000000,16321.000000
27084.000000,12464.000000,41351.000000,16295.000000
27078.000000,12457.000000,41327.000000,16288.000000
27063.000000,12441.000000,41297.000000,16270.000000
27042.000000,12420.000000,41264.000000,16250.000000
27028.000000,12412.000000,41244.000000,16256.000000
27017.000000,12413.000000,41232.000000,16272.000000
27003.000000,12402.000000,41206.000000,16267.000000
26992.000000,12385.000000,41177.000000,16252.000000
26993.000000,12380.000000,41166.000000,16261.000000
26998.000000,12382.000000,41164.000000,16277.000000
26993.000000,12373.000000,41150.000000,16272.000000
26986.000000,12360.000000,41131.000000,16266.000000
26986.000000,12362.000000,41124.000000,16282.000000
26985.000000,12367.000000,41119.000000,16291.000000
26977.000000,12357.000000,41103.000000,16268.000000
26972.000000,12349.000000,41090.000000,16244.000000
26977.000000,12357.000000,41096.000000,16243.000000
26983.000000,12365.000000,41101.000000,16239.000000
26979.000000,12359.000000,41090.000000,16216.000000
26975.000000,12353.000000,41081.000000,16199.000000
26977.000000,12359.000000,41089.000000,16204.000000
26974.000000,12359.000000,41092.000000,16200.000000
26961.000000,12341.000000,41078.000000,16168.000000
26950.000000,12325.000000,41066.000000,16140.000000
26947.000000,12322.000000,41065.000000,16136.000000
26936.000000,12315.000000,41053.000000,16127.000000
26916.000000,12296.000000,41023.000000,16103.000000
26902.000000,12281.000000,40999.000000,16094.000000
26899.000000,12278.000000,40988.000000,16108.000000
26893.000000,12267.000000,40970.000000,16106.000000
26881.000000,12243.000000,40942.000000,16082.000000
26875.000000,12228.000000,40925.000000,16069.000000
26876.000000,12227.000000,40922.000000,16073.000000
26871.000000,12221.000000,40913.000000,16065.000000
26860.000000,12210.000000,40893.000000,16047.000000
26855.000000,12212.000000,40881.000000,16051.000000
26859.000000,12225.000000,40878.000000,16071.000000
26858.000000,12226.000000,40863.000000,16067.000000
26852.000000,12219.000000,40842.000000,16044.000000
26850.000000,12222.000000,40838.000000,16038.000000
26850.000000,12232.000000,40844.000000,16044.000000
26840.000000,12229.000000,40839.000000,16032.000000
26825.000000,12216.000000,40826.000000,16007.000000
26817.000000,12212.000000,40823.000000,15998.000000
26812.000000,12211.000000,40826.000000,15996.000000
26799.000000,12194.000000,40813.000000,15976.000000
26783.000000,12171.000000,40791.000000,15949.000000
26777.000000,12163.000000,40783.000000,15945.000000
26776.000000,12163.000000,40783.000000,15951.000000
26766.000000,12152.000000,40775.000000,15939.000000
26756.000000,12142.000000,40773.000000,15930.000000
26762.000000,12153.000000,40801.000000,15954.000000
26780.000000,12182.000000,40852.000000,15995.000000
26803.000000,12215.000000,40913.000000,16033.000000
26844.000000,12265.000000,41001.000000,16093.000000
26910.000000,12346.000000,41137.000000,16197.000000
26988.000000,12444.000000,41306.000000,16321.000000
27074.000000,12545.000000,41493.000000,16448.000000
27177.000000,12662.000000,41710.000000,16607.000000
27301.000000,12805.000000,41966.000000,16812.000000
27432.000000,12955.000000,42238.000000,17028.000000
27559.000000,13096.000000,42504.000000,17228.000000
27688.000000,13236.000000,42770.000000,17436.000000
27818.000000,13379.000000,43037.000000,17656.000000
27935.000000,13510.000000,43279.000000,17850.000000
28031.000000,13618.000000,43481.000000,18000.000000
28116.000000,13717.000000,43656.000000,18133.000000
28192.000000,13808.000000,43809.000000,18258.000000
28244.000000,13871.000000,43918.000000,18348.000000
28271.000000,13899.000000,43978.000000,18392.000000
28285.000000,13913.000000,44012.000000,18421.000000
28293.000000,13921.000000,44027.000000,18442.000000
28283.000000,13906.000000,44001.000000,18426.000000
28255.000000,13866.000000,43932.000000,18372.000000
28225.000000,13827.000000,43855.000000,18314.000000
28199.000000,13795.000000,43780.000000,18254.000000
28163.000000,13748.000000,43692.000000,18167.000000
28116.000000,13687.000000,43591.000000,18066.000000
28074.000000,13635.000000,43500.000000,17990.000000
28034.000000,13589.000000,43416.000000,17931.000000
27985.000000,13529.000000,43322.000000,17855.000000
27935.000000,13463.000000,43225.000000,17774.000000
27901.000000,13416.000000,43150.000000,17721.000000
27878.000000,13387.000000,43094.000000,17688.000000
27851.000000,13356.000000,43038.000000,17644.000000
27827.000000,13329.000000,42986.000000,17595.000000
27818.000000,13322.000000,42955.000000,17570.000000
27813.000000,13323.000000,42934.000000,17563.000000
27800.000000,13310.000000,42903.000000,17545.000000
27785.000000,13290.000000,42866.000000,17524.000000
27774.000000,13281.000000,42841.000000,17524.000000
27760.000000,13277.000000,42821.000000,17523.000000
27734.000000,13259.000000,42784.000000,17491.000000
27705.000000,13235.000000,42738.000000,17448.000000
27685.000000,13218.000000,42700.000000,17418.000000
27663.000000,13194.000000,42658.000000,17383.000000
27632.000000,13151.000000,42599.000000,17327.000000
27601.000000,13107.000000,42538.000000,17274.000000
27578.000000,13077.000000,42486.000000,17247.000000
27551.000000,13048.000000,42430.000000,17213.000000
27514.000000,13008.000000,42361.000000,17153.000000
27481.000000,12972.000000,42297.000000,17101.000000
27458.000000,12952.000000,42251.000000,17074.000000
27432.000000,12931.000000,42205.000000,17041.000000
27399.000000,12898.000000,42148.000000,16983.000000
27371.000000,12871.000000,42100.000000,16936.000000
27355.000000,12858.000000,42069.000000,16916.000000
27338.000000,12843.000000,42035.000000,16894.000000
27318.000000,12816.000000,41993.000000,16857.000000
27309.000000,12799.000000,41965.000000,16835.000000
27311.000000,12799.000000,41958.000000,16840.000000
27310.000000,12795.000000,41953.000000,16840.000000
27303.000000,12781.000000,41942.000000,16828.000000
27300.000000,12776.000000,41943.000000,16833.000000
27304.000000,12783.000000,41957.000000,16855.000000
27304.000000,12785.000000,41962.000000,16864.000000
27300.000000,12779.000000,41956.000000,16859.000000
27302.000000,12784.000000,41960.000000,16872.000000
27310.000000,12798.000000,41976.000000,16901.000000
27314.000000,12802.000000,41984.000000,16909.000000
27318.000000,12799.000000,41981.000000,16903.000000
27331.000000,12807.000000,41987.000000,16916.000000
27344.000000,12822.000000,41995.000000,16938.000000
27342.000000,12822.000000,41983.000000,16931.000000
27334.000000,12809.000000,41954.000000,16904.000000
27333.000000,12801.000000,41934.000000,16888.000000
27334.000000,12797.000000,41922.000000,16874.000000
27320.000000,12778.000000,41894.000000,16833.000000
27298.000000,12751.000000,41856.000000,16778.000000
27283.000000,12734.000000,41826.000000,16741.000000
27269.000000,12721.000000,41799.000000,16716.000000
27248.000000,12694.000000,41756.000000,16675.000000
27228.000000,12661.000000,41709.000000,16631.000000
27215.000000,12639.000000,41672.000000,16613.000000
27204.000000,12620.000000,41638.000000,16601.000000
27187.000000,12594.000000,41594.000000,16572.000000
27173.000000,12572.000000,41552.000000,16544.000000
27168.000000,12561.000000,41524.000000,16532.000000
27160.000000,12548.000000,41496.000000,16515.000000
27142.000000,12524.000000,41453.000000,16482.000000
27123.000000,12504.000000,41415.000000,16454.000000
27112.000000,12499.000000,41392.000000,16447.000000
27099.000000,12493.000000,41366.000000,16434.000000
27078.000000,12472.000000,41326.000000,16397.000000
27060.000000,12452.000000,41291.000000,16364.000000
27049.000000,12445.000000,41274.000000,16347.000000
27035.000000,12431.000000,41252.000000,16320.000000
27014.000000,12403.000000,41214.000000,16273.000000
27000.000000,12382.000000,41181.000000,16237.000000
26998.000000,12377.000000,41165.000000,16228.000000
26995.000000,12368.000000,41144.000000,16214.000000
26987.000000,12346.000000,41111.000000,16189.000000
26985.000000,12333.000000,41087.000000,16186.000000
26990.000000,12333.000000,41079.000000,16207.000000
26986.000000,12325.000000,41067.000000,16212.000000
26976.000000,12305.000000,41043.000000,16197.000000
26973.000000,12294.000000,41028.000000,16193.000000
26976.000000,12293.000000,41024.000000,16200.000000
26970.000000,12281.000000,41010.000000,16184.000000
26957.000000,12260.000000,40987.000000,16153.000000
26948.000000,12250.000000,40975.000000,16142.000000
26943.000000,12251.000000,40977.000000,16145.000000
26929.000000,12243.000000,40972.000000,16128.000000
26910.000000,12226.000000,40957.000000,16099.000000
26901.000000,12220.000000,40952.000000,16092.000000
26894.000000,12221.000000,40953.000000,16098.000000
26879.000000,12209.000000,40942.000000,16086.000000
26861.000000,12192.000000,40921.000000,16063.000000
26852.000000,12189.000000,40911.000000,16059.000000
26847.000000,12194.000000,40906.000000,16059.000000
26835.000000,12187.000000,40885.000000,16037.000000
26822.000000,12177.000000,40858.000000,16008.000000
26816.000000,12176.000000,40844.000000,15999.000000
26810.000000,12177.000000,40835.000000,15994.000000
26796.000000,12165.000000,40815.000000,15972.000000
26781.000000,12150.000000,40793.000000,15953.000000
26774.000000,12146.000000,40786.000000,15957.000000
26768.000000,12142.000000,40781.000000,15963.000000
26755.000000,12126.000000,40764.000000,15954.000000
26744.000000,12111.000000,40749.000000,15949.000000
26743.000000,12109.000000,40750.000000,15964.000000
26743.000000,12107.000000,40748.000000,15972.000000
26738.000000,12096.000000,40730.000000,15959.000000
26736.000000,12090.000000,40715.000000,15944.000000
26740.000000,12098.000000,40715.000000,15943.000000
26742.000000,12100.000000,40710.000000,15932.000000
26735.000000,12086.000000,40690.000000,15904.000000
26728.000000,12076.000000,40673.000000,15884.000000
26726.000000,12076.000000,40670.000000,15885.000000
26718.000000,12069.000000,40660.000000,15879.000000
26705.000000,12049.000000,40637.000000,15857.000000
26699.000000,12034.000000,40621.000000,15850.000000
26702.000000,12031.000000,40619.000000,15862.000000
26701.000000,12023.000000,40611.000000,15858.000000
26692.000000,12003.000000,40589.000000,15838.000000
26687.000000,11993.000000,40578.000000,15833.000000
26690.000000,11999.000000,40581.000000,15844.000000
26689.000000,12001.000000,40575.000000,15840.000000
26685.000000,11995.000000,40565.000000,15824.000000
26695.000000,12004.000000,40579.000000,15835.000000
26721.000000,12033.000000,40620.000000,15870.000000
26746.000000,12063.000000,40669.000000,15896.000000
26777.000000,12094.000000,40733.000000,15920.000000
26826.000000,12149.000000,40834.000000,15982.000000
26889.000000,12227.000000,40968.000000,16080.000000
26953.000000,12310.000000,41117.000000,16180.000000
27024.000000,12399.000000,41286.000000,16289.000000
27114.000000,12514.000000,41492.000000,16437.000000
27216.000000,12644.000000,41721.000000,16609.000000
27315.000000,12770.000000,41945.000000,16772.000000
27413.000000,12894.000000,42168.000000,16937.000000
27521.000000,13028.000000,42405.000000,17124.000000
27628.000000,13157.000000,42635.000000,17309.000000
27719.000000,13257.000000,42833.000000,17459.000000
27800.000000,13337.000000,43001.000000,17585.000000
27876.000000,13414.000000,43153.000000,17709.000000
27937.000000,13481.000000,43275.000000,17809.000000
27972.000000,13517.000000,43351.000000,17863.000000
27993.000000,13532.000000,43395.000000,17893.000000
28007.000000,13542.000000,43422.000000,17921.000000
28008.000000,13541.000000,43421.000000,17928.000000
27991.000000,13521.000000,43384.000000,17899.000000
27968.000000,13496.000000,43330.000000,17859.000000
27945.000000,13474.000000,43276.000000,17825.000000
27915.000000,13437.000000,43208.000000,17779.000000
27871.000000,13378.000000,43117.000000,17706.000000
27827.000000,13318.000000,43026.000000,17633.000000
27790.000000,13274.000000,42947.000000,17579.000000
27749.000000,13229.000000,42863.000000,17516.000000
27704.000000,13173.000000,42768.000000,17437.000000
27670.000000,13130.000000,42686.000000,17378.000000
27648.000000,13108.000000,42630.000000,17341.000000
27623.000000,13088.000000,42576.000000,17292.000000
27592.000000,13061.000000,42519.000000,17228.000000
27571.000000,13045.000000,42480.000000,17184.000000
27561.000000,13043.000000,42459.000000,17164.000000
27549.000000,13032.000000,42427.000000,17137.000000
27530.000000,13008.000000,42379.000000,17101.000000
27519.000000,12991.000000,42341.000000,17085.000000
27515.000000,12986.000000,42318.000000,17082.000000
27507.000000,12972.000000,42286.000000,17058.000000
27492.000000,12945.000000,42242.000000,17015.000000
27479.000000,12926.000000,42207.000000,16990.000000
27465.000000,12912.000000,42176.000000,16975.000000
27439.000000,12884.000000,42128.000000,16939.000000
27408.000000,12845.000000,42066.000000,16886.000000
27384.000000,12815.000000,42011.000000,16847.000000
27360.000000,12788.000000,41960.000000,16813.000000
27324.000000,12746.000000,41894.000000,16761.000000
27284.000000,12696.000000,41823.000000,16704.000000
27254.000000,12661.000000,41770.000000,16673.000000
27229.000000,12634.000000,41728.000000,16653.000000
27202.000000,12602.000000,41680.000000,16617.000000
27178.000000,12574.000000,41639.000000,16581.000000
27167.000000,12565.000000,41620.000000,16566.000000
27162.000000,12563.000000,41611.000000,16559.000000
27156.000000,12552.000000,41593.000000,16536.000000
27153.000000,12543.000000,41579.000000,16519.000000
27162.000000,12549.000000,41583.000000,16530.000000
27172.000000,12560.000000,41588.000000,16546.000000
27173.000000,12562.000000,41578.000000,16538.000000
27175.000000,12565.000000,41572.000000,16533.000000
27182.000000,12584.000000,41586.000000,16550.000000
27185.000000,12602.000000,41599.000000,16561.000000
27179.000000,12603.000000,41594.000000,16547.000000
27177.000000,12603.000000,41590.000000,16539.000000
27185.000000,12614.000000,41600.000000,16555.000000
27189.000000,12619.000000,41606.000000,16567.000000
27185.000000,12611.000000,41598.000000,16557.000000
27185.000000,12606.000000,41591.000000,16555.000000
27193.000000,12609.000000,41596.000000,16569.000000
27195.000000,12604.000000,41594.000000,16565.000000
27185.000000,12587.000000,41576.000000,16533.000000
27178.000000,12575.000000,41562.000000,16505.000000
27178.000000,12574.000000,41556.000000,16497.000000
27171.000000,12563.000000,41535.000000,16482.000000
27158.000000,12539.000000,41496.000000,16456.000000
27151.000000,12524.000000,41463.000000,16446.000000
27150.000000,12518.000000,41440.000000,16448.000000
27141.000000,12501.000000,41407.000000,16426.000000
27129.000000,12478.000000,41364.000000,16387.000000
27127.000000,12467.000000,41333.000000,16368.000000
27129.000000,12462.000000,41313.000000,16366.000000
27121.000000,12445.000000,41284.000000,16347.000000
27103.000000,12417.000000,41246.000000,16311.000000
27088.000000,12399.000000,41219.000000,16291.000000
27073.000000,12388.000000,41201.000000,16284.000000
27050.000000,12365.000000,41170.000000,16260.000000
27025.000000,12336.000000,41133.000000,16228.000000
27006.000000,12319.000000,41108.000000,16216.000000
26988.000000,12308.000000,41090.000000,16206.000000
26963.000000,12285.000000,41058.000000,16170.000000
26938.000000,12256.000000,41021.000000,16129.000000
26924.000000,12239.000000,40998.000000,16113.000000
26915.000000,12230.000000,40980.000000,16107.000000
26901.000000,12213.000000,40948.000000,16086.000000
26890.000000,12193.000000,40914.000000,16064.000000
26888.000000,12187.000000,40895.000000,16064.000000
26884.000000,12184.000000,40880.000000,16065.000000
26872.000000,12169.000000,40855.000000,16043.000000
26861.000000,12153.000000,40832.000000,16018.000000
26856.000000,12151.000000,40823.000000,16010.000000
26848.000000,12148.000000,40813.000000,16004.000000
26832.000000,12131.000000,40789.000000,15984.000000
26819.000000,12116.000000,40769.000000,15972.000000
26814.000000,12116.000000,40768.000000,15982.000000
26808.000000,12115.000000,40767.000000,15985.000000
26796.000000,12104.000000,40754.000000,15962.000000
26789.000000,12098.000000,40748.000000,15941.000000
26790.000000,12105.000000,40756.000000,15940.000000
26785.000000,12106.000000,40756.000000,15930.000000
26771.000000,12092.000000,40739.000000,15903.000000
26765.000000,12083.000000,40730.000000,15892.000000
26768.000000,12091.000000,40733.000000,15907.000000
26768.000000,12093.000000,40725.000000,15910.000000
26759.000000,12080.000000,40700.000000,15892.000000
26753.000000,12072.000000,40685.000000,15886.000000
26750.000000,12076.000000,40685.000000,15895.000000
26742.000000,12071.000000,40677.000000,15885.000000
26731.000000,12056.000000,40661.000000,15857.000000
26731.000000,12053.000000,40656.000000,15847.000000
26738.000000,12057.000000,40659.000000,15852.000000
26737.000000,12047.000000,40648.000000,15838.000000
26730.000000,12023.000000,40630.000000,15813.000000
26727.000000,12009.000000,40625.000000,15809.000000
26726.000000,12005.000000,40627.000000,15813.000000
26716.000000,11992.000000,40614.000000,15795.000000
26703.000000,11974.000000,40592.000000,15766.000000
26699.000000,11967.000000,40581.000000,15755.000000
26696.000000,11966.000000,40575.000000,15754.000000
26681.000000,11953.000000,40555.000000,15736.000000
26664.000000,11935.000000,40527.000000,15713.000000
26655.000000,11933.000000,40512.000000,15716.000000
26651.000000,11938.000000,40505.000000,15727.000000
26639.000000,11931.000000,40487.000000,15715.000000
26627.000000,11923.000000,40469.000000,15699.000000
26623.000000,11930.000000,40468.000000,15706.000000
26622.000000,11939.000000,40468.000000,15716.000000
26614.000000,11931.000000,40450.000000,15703.000000
26608.000000,11918.000000,40431.000000,15689.000000
26612.000000,11919.000000,40428.000000,15693.000000
26618.000000,11924.000000,40432.000000,15696.000000
26620.000000,11921.000000,40430.000000,15686.000000
26627.000000,11925.000000,40436.000000,15688.000000
26644.000000,11950.000000,40465.000000,15720.000000
26665.000000,11983.000000,40508.000000,15755.000000
26684.000000,12010.000000,40557.000000,15778.000000
26718.000000,12052.000000,40633.000000,15821.000000
26773.000000,12120.000000,40746.000000,15904.000000
26835.000000,12196.000000,40881.000000,15998.000000
26898.000000,12268.000000,41027.000000,16088.000000
26973.000000,12355.000000,41199.000000,16207.000000
27060.000000,12462.000000,41396.000000,16363.000000
27146.000000,12567.000000,41596.000000,16519.000000
27228.000000,12662.000000,41789.000000,16661.000000
27320.000000,12764.000000,41993.000000,16817.000000
27418.000000,12876.000000,42204.000000,16991.000000
27506.000000,12973.000000,42393.000000,17142.000000
27583.000000,13052.000000,42551.000000,17261.000000
27659.000000,13132.000000,42695.000000,17380.000000
27729.000000,13211.000000,42823.000000,17490.000000
27777.000000,13264.000000,42910.000000,17554.000000
27804.000000,13290.000000,42958.000000,17579.000000
27824.000000,13311.000000,42990.000000,17599.000000
27837.000000,13329.000000,43007.000000,17611.000000
27831.000000,13323.000000,42988.000000,17586.000000
27811.000000,13298.000000,42943.000000,17537.000000
27791.000000,13273.000000,42898.000000,17502.000000
27765.000000,13246.000000,42846.000000,17474.000000
27721.000000,13199.000000,42768.000000,17418.000000
27668.000000,13141.000000,42675.000000,17345.000000
27621.000000,13095.000000,42594.000000,17285.000000
27579.000000,13055.000000,42518.000000,17226.000000
27534.000000,13002.000000,42428.000000,17146.000000
27492.000000,12946.000000,42336.000000,17063.000000
27461.000000,12909.000000,42266.000000,17004.000000
27433.000000,12881.000000,42206.000000,16961.000000
27401.000000,12841.000000,42138.000000,16913.000000
27374.000000,12804.000000,42075.000000,16877.000000
27362.000000,12788.000000,42037.000000,16871.000000
27353.000000,12779.000000,42004.000000,16868.000000
27337.000000,12756.000000,41960.000000,16846.000000
27324.000000,12732.000000,41921.000000,16823.000000
27318.000000,12720.000000,41897.000000,16811.000000
27309.000000,12707.000000,41868.000000,16786.000000
27290.000000,12679.000000,41816.000000,16738.000000
27271.000000,12655.000000,41762.000000,16691.000000
27260.000000,12644.000000,41722.000000,16660.000000
27244.000000,12626.000000,41676.000000,16620.000000
27220.000000,12593.000000,41616.000000,16558.000000
27199.000000,12564.000000,41563.000000,16506.000000
27185.000000,12550.000000,41526.000000,16480.000000
27162.000000,12530.000000,41486.000000,16449.000000
27130.000000,12499.000000,41434.000000,16406.000000
27108.000000,12477.000000,41391.000000,16383.000000
27100.000000,12472.000000,41369.000000,16378.000000
27091.000000,12465.000000,41346.000000,16363.000000
27079.000000,12450.000000,41317.000000,16336.000000
27075.000000,12445.000000,41305.000000,16329.000000
27080.000000,12452.000000,41310.000000,16344.000000
27085.000000,12451.000000,41309.000000,16345.000000
27088.000000,12441.000000,41299.000000,16325.000000
27096.000000,12444.000000,41301.000000,16315.000000
27109.000000,12463.000000,41317.000000,16318.000000
27116.000000,12472.000000,41324.000000,16307.000000
27119.000000,12470.000000,41319.000000,16290.000000
27130.000000,12477.000000,41325.000000,16297.000000
27142.000000,12494.000000,41342.000000,16320.000000
27143.000000,12499.000000,41348.000000,16325.000000
27141.000000,12497.000000,41347.000000,16319.000000
27147.000000,12505.000000,41357.000000,16330.000000
27155.000000,12516.000000,41371.000000,16348.000000
27155.000000,12509.000000,41367.000000,16344.000000
27148.000000,12489.000000,41349.000000,16332.000000
27144.000000,12478.000000,41336.000000,16338.000000
27139.000000,12470.000000,41324.000000,16346.000000
27128.000000,12452.000000,41297.000000,16332.000000
27117.000000,12430.000000,41265.000000,16311.000000
27115.000000,12423.000000,41245.000000,16304.000000
27111.000000,12419.000000,41226.000000,16291.000000
27098.000000,12401.000000,41193.000000,16251.000000
27084.000000,12380.000000,41161.000000,16214.000000
27074.000000,12373.000000,41143.000000,16202.000000
27061.000000,12368.000000,41123.000000,16193.000000
27039.000000,12350.000000,41087.000000,16172.000000
27021.000000,12333.000000,41052.000000,16156.000000
27013.000000,12330.000000,41031.000000,16154.000000
26997.000000,12327.000000,41009.000000,16145.000000
26971.000000,12311.000000,40975.000000,16114.000000
26951.000000,12297.000000,40947.000000,16084.000000
26941.000000,12293.000000,40934.000000,16067.000000
26931.000000,12281.000000,40917.000000,16042.000000
26917.000000,12254.000000,40885.000000,16004.000000
26909.000000,12230.000000,40860.000000,15978.000000
26906.000000,12217.000000,40848.000000,15969.000000
26897.000000,12199.000000,40827.000000,15946.000000
26882.000000,12172.000000,40792.000000,15907.000000
26871.000000,12158.000000,40760.000000,15883.000000
26866.000000,12161.000000,40740.000000,15879.000000
26857.000000,12159.000000,40715.000000,15866.000000
26845.000000,12144.000000,40686.000000,15842.000000
26843.000000,12137.000000,40674.000000,15842.000000
26848.000000,12141.000000,40676.000000,15859.000000
26847.000000,12133.000000,40666.000000,15857.000000
26841.000000,12112.000000,40644.000000,15840.000000
26841.000000,12102.000000,40632.000000,15836.000000
26845.000000,12100.000000,40630.000000,15844.000000
26841.000000,12087.000000,40615.000000,15832.000000
26834.000000,12069.000000,40594.000000,15805.000000
26836.000000,12068.000000,40591.000000,15795.000000
26842.000000,12077.000000,40600.000000,15795.000000
26839.000000,12071.000000,40594.000000,15774.000000
26831.000000,12054.000000,40576.000000,15746.000000
26830.000000,12048.000000,40567.000000,15740.000000
26830.000000,12051.000000,40564.000000,15743.000000
26823.000000,12046.000000,40547.000000,15727.000000
26815.000000,12041.000000,40525.000000,15705.000000
26817.000000,12048.000000,40519.000000,15704.000000
26820.000000,12058.000000,40518.000000,15708.000000
26815.000000,12054.000000,40503.000000,15692.000000
26809.000000,12047.000000,40484.000000,15680.000000
26809.000000,12052.000000,40480.000000,15690.000000
26808.000000,12057.000000,40479.000000,15701.000000
26803.000000,12050.000000,40466.000000,15691.000000
26803.000000,12042.000000,40457.000000,15680.000000
26811.000000,12045.000000,40465.000000,15688.000000
26815.000000,12049.000000,40472.000000,15690.000000
26809.000000,12041.000000,40461.000000,15666.000000
26802.000000,12033.000000,40450.000000,15643.000000
26800.000000,12036.000000,40449.000000,15638.000000
26792.000000,12035.000000,40442.000000,15628.000000
26775.000000,12017.000000,40420.000000,15601.000000
26762.000000,12000.000000,40404.000000,15584.000000
26760.000000,11995.000000,40404.000000,15583.000000
26757.000000,11986.000000,40397.000000,15572.000000
26748.000000,11966.000000,40375.000000,15544.000000
26742.000000,11953.000000,40359.000000,15529.000000
26741.000000,11952.000000,40357.000000,15536.000000
26734.000000,11946.000000,40347.000000,15531.000000
26721.000000,11931.000000,40324.000000,15507.000000
26714.000000,11923.000000,40310.000000,15494.000000
26713.000000,11923.000000,40306.000000,15498.000000
26701.000000,11913.000000,40289.000000,15487.000000
26681.000000,11889.000000,40259.000000,15459.000000
26670.000000,11873.000000,40240.000000,15444.000000
26668.000000,11870.000000,40232.000000,15442.000000
26662.000000,11861.000000,40213.000000,15419.000000
26654.000000,11851.000000,40192.000000,15390.000000
26659.000000,11860.000000,40197.000000,15395.000000
26671.000000,11884.000000,40226.000000,15420.000000
26678.000000,11903.000000,40258.000000,15436.000000
26689.000000,11924.000000,40302.000000,15460.000000
26725.000000,11973.000000,40380.000000,15526.000000
26782.000000,12049.000000,40495.000000,15619.000000
26846.000000,12129.000000,40629.000000,15711.000000
26922.000000,12219.000000,40785.000000,15818.000000
27018.000000,12336.000000,40982.000000,15965.000000
27124.000000,12466.000000,41204.000000,16135.000000
27228.000000,12588.000000,41425.000000,16300.000000
27336.000000,12709.000000,41652.000000,16477.000000
27457.000000,12843.000000,41899.000000,16684.000000
27576.000000,12975.000000,42146.000000,16885.000000
27677.000000,13086.000000,42365.000000,17046.000000
27766.000000,13184.000000,42564.000000,17186.000000
27851.000000,13282.000000,42749.000000,17326.000000
27921.000000,13363.000000,42899.000000,17442.000000
27969.000000,13412.000000,43001.000000,17514.000000
28005.000000,13444.000000,43073.000000,17566.000000
28034.000000,13469.000000,43128.000000,17614.000000
28042.000000,13475.000000,43147.000000,17629.000000
28028.000000,13455.000000,43121.000000,17597.000000
28008.000000,13427.000000,43076.000000,17551.000000
27988.000000,13405.000000,43025.000000,17510.000000
27959.000000,13371.000000,42958.000000,17451.000000
27916.000000,13318.000000,42874.000000,17373.000000
27872.000000,13268.000000,42794.000000,17307.000000
27829.000000,13229.000000,42723.000000,17263.000000
27782.000000,13185.000000,42642.000000,17208.000000
27735.000000,13133.000000,42547.000000,17136.000000
27700.000000,13090.000000,42462.000000,17075.000000
27674.000000,13060.000000,42395.000000,17028.000000
27643.000000,13027.000000,42326.000000,16969.000000
27612.000000,12990.000000,42257.000000,16906.000000
27593.000000,12973.000000,42210.000000,16872.000000
27583.000000,12972.000000,42184.000000,16863.000000
27568.000000,12967.000000,42155.000000,16842.000000
27551.000000,12955.000000,42122.000000,16811.000000
27548.000000,12952.000000,42107.000000,16802.000000
27553.000000,12959.000000,42104.000000,16805.000000
27551.000000,12953.000000,42089.000000,16789.000000
27541.000000,12935.000000,42063.000000,16757.000000
27536.000000,12925.000000,42044.000000,16738.000000
27531.000000,12916.000000,42025.000000,16727.000000
27512.000000,12891.000000,41982.000000,16692.000000
27485.000000,12856.000000,41923.000000,16647.000000
27461.000000,12829.000000,41872.000000,16620.000000
27441.000000,12808.000000,41822.000000,16597.000000
27411.000000,12775.000000,41759.000000,16549.000000
27378.000000,12738.000000,41696.000000,16495.000000
27353.000000,12714.000000,41654.000000,16461.000000
27330.000000,12693.000000,41618.000000,16428.000000
27299.000000,12662.000000,41572.000000,16376.000000
27272.000000,12633.000000,41530.000000,16331.000000
27259.000000,12622.000000,41508.000000,16316.000000
27249.000000,12616.000000,41491.000000,16311.000000
27236.000000,12602.000000,41461.000000,16291.000000
27227.000000,12589.000000,41433.000000,16273.000000
27230.000000,12589.000000,41425.000000,16275.000000
27234.000000,12589.000000,41420.000000,16271.000000
27230.000000,12580.000000,41406.000000,16246.000000
27233.000000,12578.000000,41400.000000,16230.000000
27245.000000,12589.000000,41410.000000,16243.000000
27250.000000,12598.000000,41418.000000,16258.000000
27246.000000,12593.000000,41413.000000,16259.000000
27246.000000,12592.000000,41416.000000,16270.000000
27251.000000,12602.000000,41432.000000,16297.000000
27251.000000,12602.000000,41438.000000,16307.000000
27244.000000,12588.000000,41427.000000,16295.000000
27243.000000,12578.000000,41418.000000,16293.000000
27246.000000,12577.000000,41418.000000,16307.000000
27238.000000,12568.000000,41406.000000,16303.000000
27223.000000,12548.000000,41385.000000,16280.000000
27212.000000,12537.000000,41372.000000,16271.000000
27208.000000,12534.000000,41365.000000,16275.000000
27197.000000,12518.000000,41341.000000,16263.000000
27181.000000,12491.000000,41304.000000,16234.000000
27169.000000,12476.000000,41276.000000,16217.000000
27161.000000,12474.000000,41260.000000,16210.000000
27150.000000,12464.000000,41236.000000,16184.000000
27136.000000,12445.000000,41202.000000,16147.000000
27127.000000,12435.000000,41178.000000,16127.000000
27120.000000,12433.000000,41159.000000,16117.000000
27101.000000,12420.000000,41124.000000,16090.000000
27077.000000,12399.000000,41081.000000,16054.000000
27063.000000,12388.000000,41050.000000,16033.000000
27052.000000,12381.000000,41025.000000,16013.000000
27033.000000,12360.000000,40988.000000,15967.000000
27014.000000,12333.000000,40950.000000,15917.000000
27005.000000,12321.000000,40928.000000,15890.000000
26998.000000,12314.000000,40912.000000,15874.000000
26980.000000,12295.000000,40879.000000,15842.000000
26959.000000,12273.000000,40841.000000,15813.000000
26945.000000,12262.000000,40817.000000,15807.000000
26933.000000,12252.000000,40795.000000,15803.000000
26915.000000,12226.000000,40760.000000,15779.000000
26900.000000,12200.000000,40728.000000,15754.000000
26894.000000,12192.000000,40716.000000,15749.000000
26889.000000,12186.000000,40709.000000,15742.000000
26878.000000,12169.000000,40690.000000,15719.000000
26874.000000,12156.000000,40675.000000,15705.000000
26879.000000,12158.000000,40672.000000,15715.000000
26879.000000,12156.000000,40666.000000,15718.000000
26869.000000,12141.000000,40648.000000,15700.000000
26861.000000,12130.000000,40635.000000,15691.000000
26858.000000,12133.000000,40632.000000,15702.000000
26852.000000,12132.000000,40620.000000,15702.000000
26840.000000,12119.000000,40593.000000,15680.000000
26835.000000,12112.000000,40572.000000,15669.000000
26837.000000,12117.000000,40566.000000,15674.000000
26835.000000,12116.000000,40555.000000,15669.000000
26828.000000,12103.000000,40533.000000,15648.000000
26823.000000,12098.000000,40522.000000,15642.000000
26824.000000,12104.000000,40524.000000,15649.000000
26814.000000,12097.000000,40517.000000,15636.000000
26792.000000,12074.000000,40498.000000,15607.000000
26770.000000,12058.000000,40491.000000,15594.000000
26754.000000,12055.000000,40493.000000,15601.000000
26738.000000,12045.000000,40482.000000,15595.000000
26726.000000,12028.000000,40462.000000,15574.000000
26725.000000,12023.000000,40459.000000,15567.000000
26731.000000,12026.000000,40467.000000,15573.000000
26730.000000,12017.000000,40461.000000,15560.000000
26727.000000,12003.000000,40449.000000,15541.000000
26734.000000,12005.000000,40449.000000,15546.000000
26744.000000,12015.000000,40454.000000,15563.000000
26744.000000,12014.000000,40442.000000,15560.000000
26741.000000,12007.000000,40422.000000,15548.000000
26743.000000,12010.000000,40414.000000,15554.000000
26745.000000,12013.000000,40411.000000,15562.000000
26737.000000,12000.000000,40393.000000,15543.000000
26723.000000,11981.000000,40369.000000,15514.000000
26715.000000,11978.000000,40359.000000,15502.000000
26705.000000,11978.000000,40355.000000,15489.000000
26688.000000,11962.000000,40339.000000,15451.000000
26673.000000,11946.000000,40322.000000,15411.000000
26667.000000,11944.000000,40316.000000,15399.000000
26658.000000,11943.000000,40306.000000,15394.000000
26644.000000,11928.000000,40281.000000,15377.000000
26636.000000,11913.000000,40256.000000,15365.000000
26636.000000,11913.000000,40245.000000,15369.000000
26630.000000,11912.000000,40234.000000,15367.000000
26615.000000,11897.000000,40213.000000,15347.000000
26608.000000,11887.000000,40202.000000,15340.000000
26612.000000,11893.000000,40210.000000,15358.000000
26616.000000,11900.000000,40220.000000,15375.000000
26617.000000,11901.000000,40228.000000,15380.000000
26625.000000,11916.000000,40254.000000,15409.000000
26647.000000,11952.000000,40310.000000,15479.000000
26682.000000,11993.000000,40383.000000,15561.000000
26732.000000,12041.000000,40472.000000,15637.000000
26801.000000,12116.000000,40603.000000,15726.000000
26884.000000,12222.000000,40785.000000,15840.000000
26974.000000,12334.000000,40991.000000,15962.000000
27069.000000,12442.000000,41206.000000,16094.000000
27178.000000,12564.000000,41445.000000,16265.000000
27299.000000,12701.000000,41705.000000,16468.000000
27414.000000,12832.000000,41958.000000,16659.000000
27522.000000,12955.000000,42197.000000,16835.000000
27632.000000,13086.000000,42433.000000,17019.000000
27740.000000,13217.000000,42657.000000,17201.000000
27828.000000,13319.000000,42841.000000,17342.000000
27895.000000,13391.000000,42987.000000,17445.000000
27952.000000,13451.000000,43111.000000,17542.000000
27999.000000,13497.000000,43202.000000,17622.000000
28027.000000,13516.000000,43236.000000,17648.000000
28037.000000,13518.000000,43233.000000,17640.000000
28033.000000,13521.000000,43221.000000,17634.000000
28013.000000,13517.000000,43194.000000,17621.000000
27973.000000,13486.000000,43135.000000,17581.000000
27928.000000,13442.000000,43060.000000,17525.000000
27894.000000,13405.000000,42987.000000,17477.000000
27863.000000,13369.000000,42911.000000,17427.000000
27827.000000,13319.000000,42820.000000,17360.000000
27790.000000,13265.000000,42730.000000,17296.000000
27759.000000,13221.000000,42653.000000,17254.000000
27728.000000,13180.000000,42583.000000,17208.000000
27695.000000,13132.000000,42508.000000,17143.000000
27670.000000,13093.000000,42446.000000,17084.000000
27655.000000,13074.000000,42410.000000,17051.000000
27639.000000,13057.000000,42381.000000,17022.000000
27617.000000,13031.000000,42344.000000,16982.000000
27601.000000,13012.000000,42318.000000,16954.000000
27594.000000,13009.000000,42312.000000,16950.000000
27583.000000,13002.000000,42305.000000,16946.000000
27567.000000,12981.000000,42283.000000,16927.000000
27557.000000,12965.000000,42262.000000,16918.000000
27554.000000,12961.000000,42250.000000,16924.000000
27545.000000,12951.000000,42223.000000,16916.000000
27527.000000,12926.000000,42174.000000,16880.000000
27512.000000,12904.000000,42127.000000,16844.000000
27496.000000,12888.000000,42088.000000,16814.000000
27465.000000,12857.000000,42034.000000,16762.000000
27422.000000,12811.000000,41963.000000,16691.000000
27387.000000,12777.000000,41901.000000,16636.000000
27363.000000,12754.000000,41850.000000,16601.000000
27335.000000,12723.000000,41789.000000,16554.000000
27300.000000,12683.000000,41721.000000,16498.000000
27274.000000,12654.000000,41668.000000,16464.000000
27258.000000,12638.000000,41631.000000,16452.000000
27239.000000,12615.000000,41586.000000,16429.000000
27219.000000,12587.000000,41537.000000,16390.000000
27209.000000,12572.000000,41509.000000,16367.000000
27204.000000,12565.000000,41494.000000,16360.000000
27190.000000,12550.000000,41471.000000,16340.000000
27177.000000,12534.000000,41449.000000,16318.000000
27176.000000,12536.000000,41448.000000,16325.000000
27181.000000,12548.000000,41456.000000,16346.000000
27181.000000,12549.000000,41453.000000,16354.000000
27180.000000,12546.000000,41451.000000,16359.000000
27184.000000,12555.000000,41466.000000,16385.000000
27186.000000,12566.000000,41485.000000,16412.000000
27179.000000,12561.000000,41486.000000,16412.000000
27169.000000,12555.000000,41481.000000,16403.000000
27165.000000,12561.000000,41486.000000,16410.000000
27158.000000,12566.000000,41490.000000,16415.000000
27143.000000,12550.000000,41477.000000,16398.000000
27128.000000,12529.000000,41461.000000,16381.000000
27123.000000,12524.000000,41457.000000,16383.000000
27116.000000,12523.000000,41449.000000,16377.000000
27104.000000,12511.000000,41421.000000,16340.000000
27097.000000,12497.000000,41386.000000,16302.000000
27099.000000,12485.000000,41363.000000,16285.000000
27093.000000,12461.000000,41336.000000,16262.000000
27070.000000,12422.000000,41293.000000,16213.000000
27049.000000,12390.000000,41251.000000,16171.000000
27037.000000,12376.000000,41220.000000,16159.000000
27021.000000,12359.000000,41184.000000,16145.000000
26998.000000,12329.000000,41137.000000,16114.000000
26981.000000,12305.000000,41099.000000,16098.000000
26973.000000,12295.000000,41079.000000,16098.000000
26959.000000,12281.000000,41052.000000,16079.000000
26939.000000,12257.000000,41011.000000,16038.000000
26925.000000,12239.000000,40979.000000,16009.000000
26914.000000,12232.000000,40959.000000,15994.000000
26895.000000,12218.000000,40929.000000,15965.000000
26872.000000,12196.000000,40891.000000,15925.000000
26856.000000,12185.000000,40866.000000,15903.000000
26849.000000,12185.000000,40854.000000,15902.000000
26836.000000,12180.000000,40832.000000,15893.000000
26818.000000,12169.000000,40801.000000,15875.000000
26810.000000,12167.000000,40779.000000,15875.000000
26807.000000,12170.000000,40765.000000,15883.000000
26796.000000,12161.000000,40738.000000,15863.000000
26778.000000,12142.000000,40706.000000,15831.000000
26767.000000,12130.000000,40690.000000,15823.000000
26761.000000,12123.000000,40681.000000,15826.000000
26748.000000,12103.000000,40660.000000,15809.000000
26734.000000,12077.000000,40636.000000,15782.000000
26728.000000,12062.000000,40628.000000,15770.000000
26722.000000,12051.000000,40624.000000,15764.000000
26704.000000,12026.000000,40604.000000,15742.000000
26683.000000,12000.000000,40579.000000,15721.000000
26673.000000,11992.000000,40569.000000,15722.000000
26667.000000,11991.000000,40566.000000,15727.000000
26656.000000,11983.000000,40553.000000,15710.000000
26647.000000,11976.000000,40543.000000,15693.000000
26645.000000,11982.000000,40550.000000,15693.000000
26640.000000,11987.000000,40555.000000,15691.000000
26627.000000,11977.000000,40544.000000,15667.000000
26614.000000,11965.000000,40532.000000,15643.000000
26608.000000,11965.000000,40532.000000,15639.000000
26599.000000,11963.000000,40526.000000,15635.000000
26583.000000,11949.000000,40504.000000,15617.000000
26570.000000,11938.000000,40485.000000,15611.000000
26566.000000,11938.000000,40481.000000,15626.000000
26560.000000,11936.000000,40473.000000,15629.000000
26547.000000,11924.000000,40454.000000,15610.000000
26537.000000,11916.000000,40441.000000,15597.000000
26532.000000,11917.000000,40443.000000,15602.000000
26521.000000,11910.000000,40436.000000,15599.000000
26504.000000,11890.000000,40411.000000,15581.000000
26492.000000,11877.000000,40392.000000,15577.000000
26491.000000,11878.000000,40388.000000,15590.000000
26488.000000,11872.000000,40380.000000,15594.000000
26480.000000,11856.000000,40362.000000,15582.000000
26478.000000,11848.000000,40353.000000,15580.000000
26478.000000,11850.000000,40352.000000,15593.000000
26467.000000,11840.000000,40335.000000,15588.000000
26450.000000,11818.000000,40305.000000,15569.000000
26442.000000,11807.000000,40288.000000,15567.000000
26444.000000,11808.000000,40283.000000,15573.000000
26438.000000,11798.000000,40266.000000,15553.000000
26428.000000,11778.000000,40243.000000,15515.000000
26428.000000,11770.000000,40237.000000,15493.000000
26432.000000,11772.000000,40242.000000,15488.000000
26427.000000,11762.000000,40234.000000,15470.000000
26418.000000,11745.000000,40217.000000,15450.000000
26420.000000,11742.000000,40218.000000,15456.000000
26428.000000,11750.000000,40231.000000,15474.000000
26429.000000,11749.000000,40238.000000,15474.000000
26431.000000,11751.000000,40248.000000,15475.000000
26448.000000,11776.000000,40285.000000,15503.000000
26472.000000,11813.000000,40336.000000,15546.000000
26496.000000,11849.000000,40390.000000,15583.000000
26532.000000,11897.000000,40471.000000,15638.000000
26591.000000,11974.000000,40598.000000,15738.000000
26660.000000,12066.000000,40752.000000,15860.000000
26729.000000,12155.000000,40912.000000,15978.000000
26809.000000,12251.000000,41090.000000,16109.000000
26904.000000,12368.000000,41298.000000,16270.000000
27003.000000,12488.000000,41516.000000,16434.000000
27095.000000,12595.000000,41724.000000,16582.000000
27192.000000,12703.000000,41931.000000,16735.000000
27294.000000,12815.000000,42142.000000,16900.000000
27383.000000,12913.000000,42330.000000,17045.000000
27453.000000,12985.000000,42476.000000,17153.000000
27512.000000,13048.000000,42600.000000,17249.000000
27565.000000,13107.000000,42710.000000,17343.000000
27600.000000,13143.000000,42783.000000,17403.000000
27613.000000,13150.000000,42813.000000,17420.000000
27615.000000,13150.000000,42822.000000,17426.000000
27608.000000,13147.000000,42819.000000,17434.000000
27586.000000,13128.000000,42788.000000,17415.000000
27555.000000,13094.000000,42730.000000,17370.000000
27528.000000,13068.000000,42671.000000,17332.000000
27503.000000,13049.000000,42615.000000,17306.000000
27472.000000,13018.000000,42546.000000,17256.000000
27435.000000,12975.000000,42468.000000,17185.000000
27405.000000,12937.000000,42402.000000,17130.000000
27379.000000,12909.000000,42346.000000,17087.000000
27347.000000,12871.000000,42281.000000,17029.000000
27314.000000,12826.000000,42213.000000,16965.000000
27293.000000,12796.000000,42165.000000,16927.000000
27278.000000,12780.000000,42129.000000,16906.000000
27257.000000,12757.000000,42085.000000,16873.000000
27235.000000,12733.000000,42043.000000,16833.000000
27221.000000,12725.000000,42023.000000,16815.000000
27206.000000,12724.000000,42014.000000,16801.000000
27181.000000,12712.000000,41990.000000,16764.000000
27159.000000,12693.000000,41959.000000,16723.000000
27148.000000,12684.000000,41941.000000,16705.000000
27140.000000,12675.000000,41923.000000,16697.000000
27123.000000,12651.000000,41886.000000,16673.000000
27106.000000,12624.000000,41842.000000,16648.000000
27097.000000,12609.000000,41809.000000,16646.000000
27087.000000,12596.000000,41774.000000,16645.000000
27069.000000,12570.000000,41722.000000,16615.000000
27051.000000,12541.000000,41667.000000,16580.000000
27039.000000,12523.000000,41625.000000,16562.000000
27027.000000,12506.000000,41583.000000,16541.000000
27011.000000,12479.000000,41526.000000,16502.000000
26998.000000,12454.000000,41472.000000,16465.000000
26988.000000,12440.000000,41434.000000,16442.000000
26971.000000,12423.000000,41398.000000,16409.000000
26945.000000,12393.000000,41355.000000,16355.000000
26920.000000,12366.000000,41322.000000,16312.000000
26900.000000,12351.000000,41306.000000,16298.000000
26880.000000,12334.000000,41287.000000,16283.000000
26862.000000,12309.000000,41258.000000,16255.000000
26854.000000,12295.000000,41240.000000,16240.000000
26856.000000,12300.000000,41239.000000,16247.000000
26857.000000,12305.000000,41239.000000,16250.000000
26856.000000,12303.000000,41234.000000,16245.000000
26865.000000,12310.000000,41239.000000,16256.000000
26879.000000,12328.000000,41255.000000,16279.000000
26887.000000,12337.000000,41261.000000,16283.000000
26894.000000,12337.000000,41255.000000,16269.000000
26912.000000,12346.000000,41259.000000,16269.000000
26936.000000,12367.000000,41275.000000,16282.000000
26951.000000,12378.000000,41282.000000,16281.000000
26959.000000,12379.000000,41277.000000,16264.000000
26969.000000,12386.000000,41276.000000,16262.000000
26978.000000,12397.000000,41279.000000,16273.000000
26976.000000,12397.000000,41266.000000,16265.000000
26970.000000,12387.000000,41243.000000,16240.000000
26970.000000,12384.000000,41226.000000,16228.000000
26966.000000,12384.000000,41211.000000,16220.000000
26949.000000,12369.000000,41180.000000,16192.000000
26926.000000,12344.000000,41143.000000,16157.000000
26909.000000,12326.000000,41117.000000,16141.000000
26896.000000,12311.000000,41093.000000,16131.000000
26878.000000,12285.000000,41055.000000,16106.000000
26860.000000,12257.000000,41013.000000,16080.000000
26852.000000,12241.000000,40985.000000,16075.000000
26841.000000,12226.000000,40961.000000,16072.000000
26819.000000,12196.000000,40924.000000,16052.000000
26799.000000,12163.000000,40884.000000,16034.000000
26788.000000,12143.000000,40856.000000,16036.000000
26776.000000,12126.000000,40830.000000,16032.000000
26758.000000,12099.000000,40791.000000,16005.000000
26742.000000,12076.000000,40754.000000,15981.000000
26735.000000,12068.000000,40734.000000,15975.000000
26725.000000,12059.000000,40714.000000,15959.000000
26708.000000,12037.000000,40679.000000,15920.000000
26689.000000,12014.000000,40648.000000,15886.000000
26675.000000,12000.000000,40633.000000,15870.000000
26658.000000,11983.000000,40615.000000,15847.000000
26636.000000,11955.000000,40583.000000,15810.000000
26621.000000,11938.000000,40558.000000,15787.000000
26617.000000,11939.000000,40553.000000,15788.000000
26609.000000,11938.000000,40545.000000,15782.000000
26597.000000,11926.000000,40525.000000,15754.000000
26591.000000,11922.000000,40514.000000,15735.000000
26592.000000,11931.000000,40518.000000,15732.000000
26588.000000,11931.000000,40512.000000,15717.000000
26577.000000,11917.000000,40491.000000,15683.000000
26573.000000,11911.000000,40479.000000,15665.000000
26574.000000,11915.000000,40475.000000,15668.000000
26566.000000,11905.000000,40458.000000,15659.000000
26551.000000,11883.000000,40432.000000,15637.000000
26543.000000,11872.000000,40419.000000,15633.000000
26541.000000,11874.000000,40417.000000,15639.000000
26532.000000,11869.000000,40404.000000,15626.000000
26520.000000,11856.000000,40385.000000,15597.000000
26515.000000,11854.000000,40383.000000,15587.000000
26511.000000,11860.000000,40388.000000,15591.000000
26500.000000,11856.000000,40380.000000,15583.000000
26488.000000,11846.000000,40365.000000,15577.000000
26485.000000,11848.000000,40367.000000,15597.000000
26486.000000,11854.000000,40376.000000,15622.000000
26480.000000,11845.000000,40370.000000,15619.000000
26475.000000,11830.000000,40355.000000,15601.000000
26477.000000,11827.000000,40350.000000,15602.000000
26477.000000,11823.000000,40345.000000,15607.000000
26466.000000,11805.000000,40327.000000,15594.000000
26458.000000,11785.000000,40306.000000,15580.000000
26460.000000,11778.000000,40298.000000,15588.000000
26464.000000,11776.000000,40294.000000,15599.000000
26462.000000,11766.000000,40279.000000,15591.000000
26464.000000,11759.000000,40268.000000,15582.000000
26471.000000,11767.000000,40271.000000,15586.000000
26474.000000,11770.000000,40268.000000,15577.000000
26467.000000,11754.000000,40246.000000,15542.000000
26461.000000,11736.000000,40224.000000,15516.000000
26461.000000,11732.000000,40214.000000,15511.000000
26455.000000,11723.000000,40200.000000,15499.000000
26440.000000,11701.000000,40169.000000,15468.000000
26428.000000,11684.000000,40144.000000,15449.000000
26425.000000,11685.000000,40137.000000,15452.000000
26419.000000,11683.000000,40128.000000,15448.000000
26407.000000,11671.000000,40105.000000,15430.000000
26402.000000,11667.000000,40094.000000,15427.000000
26407.000000,11682.000000,40102.000000,15443.000000
26409.000000,11694.000000,40104.000000,15447.000000
26406.000000,11695.000000,40099.000000,15433.000000
26414.000000,11708.000000,40115.000000,15438.000000
26436.000000,11740.000000,40156.000000,15469.000000
26462.000000,11772.000000,40203.000000,15495.000000
26494.000000,11805.000000,40259.000000,15520.000000
26543.000000,11861.000000,40353.000000,15583.000000
26609.000000,11941.000000,40488.000000,15677.000000
26680.000000,12025.000000,40640.000000,15766.000000
26756.000000,12115.000000,40808.000000,15859.000000
26850.000000,12227.000000,41009.000000,15989.000000
26956.000000,12352.000000,41231.000000,16144.000000
27060.000000,12467.000000,41445.000000,16290.000000
27160.000000,12573.000000,41654.000000,16433.000000
27268.000000,12689.000000,41871.000000,16602.000000
27377.000000,12807.000000,42082.000000,16776.000000
27472.000000,12904.000000,42259.000000,16917.000000
27552.000000,12983.000000,42408.000000,17034.000000
27623.000000,13057.000000,42539.000000,17150.000000
27676.000000,13116.000000,42640.000000,17248.000000
27701.000000,13144.000000,42695.000000,17301.000000
27709.000000,13155.000000,42718.000000,17325.000000
27711.000000,13163.000000,42726.000000,17347.000000
27702.000000,13160.000000,42711.000000,17353.000000
27677.000000,13138.000000,42666.000000,17322.000000
27647.000000,13109.000000,42611.000000,17278.000000
27623.000000,13086.000000,42564.000000,17246.000000
27597.000000,13056.000000,42510.000000,17204.000000
27566.000000,13010.000000,42438.000000,17137.000000
27539.000000,12963.000000,42364.000000,17073.000000
27519.000000,12932.000000,42306.000000,17030.000000
27496.000000,12901.000000,42247.000000,16986.000000
27469.000000,12861.000000,42177.000000,16931.000000
27449.000000,12830.000000,42118.000000,16888.000000
27437.000000,12819.000000,42080.000000,16863.000000
27420.000000,12808.000000,42041.000000,16830.000000
27399.000000,12785.000000,41992.000000,16779.000000
27387.000000,12769.000000,41956.000000,16740.000000
27387.000000,12768.000000,41941.000000,16723.000000
27382.000000,12760.000000,41919.000000,16699.000000
27369.000000,12737.000000,41880.000000,16657.000000
27360.000000,12717.000000,41845.000000,16627.000000
27357.000000,12709.000000,41820.000000,16617.000000
27346.000000,12689.000000,41782.000000,16593.000000
27325.000000,12657.000000,41729.000000,16550.000000
27307.000000,12633.000000,41683.000000,16519.000000
27292.000000,12619.000000,41646.000000,16499.000000
27268.000000,12594.000000,41594.000000,16456.000000
27237.000000,12556.000000,41528.000000,16396.000000
27214.000000,12527.000000,41474.000000,16356.000000
27198.000000,12508.000000,41430.000000,16335.000000
27175.000000,12478.000000,41375.000000,16298.000000
27148.000000,12440.000000,41317.000000,16250.000000
27131.000000,12418.000000,41285.000000,16228.000000
27120.000000,12408.000000,41270.000000,16222.000000
27101.000000,12388.000000,41246.000000,16198.000000
27081.000000,12368.000000,41219.000000,16169.000000
27072.000000,12367.000000,41212.000000,16169.000000
27071.000000,12376.000000,41216.000000,16182.000000
27067.000000,12374.000000,41207.000000,16177.000000
27067.000000,12368.000000,41196.000000,16166.000000
27078.000000,12378.000000,41203.000000,16175.000000
27091.000000,12394.000000,41214.000000,16183.000000
27096.000000,12393.000000,41209.000000,16168.000000
27099.000000,12385.000000,41200.000000,16151.000000
27109.000000,12387.000000,41204.000000,16157.000000
27117.000000,12391.000000,41209.000000,16166.000000
27119.000000,12385.000000,41202.000000,16157.000000
27124.000000,12381.000000,41198.000000,16152.000000
27136.000000,12392.000000,41206.000000,16166.000000
27143.000000,12399.000000,41208.000000,16172.000000
27138.000000,12392.000000,41190.000000,16157.000000
27133.000000,12388.000000,41175.000000,16146.000000
27136.000000,12398.000000,41174.000000,16152.000000
27135.000000,12400.000000,41166.000000,16145.000000
27125.000000,12387.000000,41142.000000,16116.000000
27117.000000,12377.000000,41120.000000,16094.000000
27112.000000,12378.000000,41112.000000,16093.000000
27095.000000,12370.000000,41094.000000,16080.000000
27066.000000,12343.000000,41056.000000,16046.000000
27044.000000,12317.000000,41022.000000,16025.000000
27033.000000,12301.000000,40999.000000,16020.000000
27016.000000,12275.000000,40966.000000,15996.000000
26991.000000,12237.000000,40918.000000,15952.000000
26972.000000,12208.000000,40877.000000,15924.000000
26961.000000,12196.000000,40848.000000,15908.000000
26942.000000,12179.000000,40804.000000,15875.000000
26917.000000,12152.000000,40747.000000,15827.000000
26898.000000,12134.000000,40706.000000,15799.000000
26880.000000,12124.000000,40682.000000,15787.000000
26854.000000,12101.000000,40648.000000,15759.000000
26828.000000,12070.000000,40608.000000,15717.000000
26815.000000,12053.000000,40583.000000,15693.000000
26813.000000,12045.000000,40566.000000,15681.000000
26805.000000,12023.000000,40536.000000,15651.000000
26792.000000,11996.000000,40500.000000,15611.000000
26786.000000,11985.000000,40479.000000,15591.000000
26781.000000,11982.000000,40466.000000,15583.000000
26767.000000,11966.000000,40438.000000,15565.000000
26752.000000,11947.000000,40407.000000,15552.000000
26748.000000,11942.000000,40394.000000,15568.000000
26747.000000,11943.000000,40388.000000,15584.000000
26737.000000,11932.000000,40369.000000,15567.000000
26730.000000,11921.000000,40349.000000,15545.000000
26731.000000,11925.000000,40344.000000,15546.000000
26727.000000,11928.000000,40341.000000,15546.000000
26713.000000,11912.000000,40324.000000,15523.000000
26700.000000,11895.000000,40309.000000,15504.000000
26695.000000,11891.000000,40313.000000,15510.000000
26690.000000,11888.000000,40314.000000,15516.000000
26680.000000,11876.000000,40298.000000,15503.000000
26674.000000,11872.000000,40282.000000,15494.000000
26681.000000,11886.000000,40283.000000,15503.000000
26687.000000,11897.000000,40282.000000,15504.000000
26685.000000,11894.000000,40269.000000,15481.000000
26684.000000,11894.000000,40262.000000,15464.000000
26686.000000,11904.000000,40271.000000,15462.000000
26683.000000,11906.000000,40273.000000,15449.000000
26675.000000,11897.000000,40259.000000,15422.000000
26670.000000,11891.000000,40250.000000,15411.000000
26670.000000,11893.000000,40253.000000,15423.000000
26663.000000,11886.000000,40245.000000,15423.000000
26650.000000,11867.000000,40221.000000,15402.000000
26644.000000,11855.000000,40205.000000,15387.000000
26640.000000,11851.000000,40200.000000,15382.000000
26629.000000,11835.000000,40185.000000,15362.000000
26612.000000,11809.000000,40157.000000,15332.000000
26603.000000,11792.000000,40141.000000,15325.000000
26599.000000,11785.000000,40140.000000,15335.000000
26589.000000,11772.000000,40131.000000,15326.000000
26576.000000,11756.000000,40114.000000,15306.000000
26573.000000,11757.000000,40109.000000,15307.000000
26578.000000,11766.000000,40111.000000,15318.000000
26576.000000,11761.000000,40098.000000,15311.000000
26569.000000,11746.000000,40074.000000,15296.000000
26571.000000,11745.000000,40066.000000,15303.000000
26577.000000,11753.000000,40069.000000,15321.000000
26572.000000,11749.000000,40057.000000,15315.000000
26567.000000,11738.000000,40040.000000,15297.000000
26573.000000,11741.000000,40040.000000,15300.000000
26583.000000,11750.000000,40047.000000,15311.000000
26583.000000,11747.000000,40043.000000,15298.000000
26586.000000,11745.000000,40039.000000,15282.000000
26603.000000,11763.000000,40058.000000,15290.000000
26622.000000,11788.000000,40089.000000,15311.000000
26637.000000,11806.000000,40119.000000,15327.000000
26663.000000,11834.000000,40167.000000,15363.000000
26709.000000,11891.000000,40252.000000,15445.000000
26765.000000,11963.000000,40367.000000,15544.000000
26824.000000,12039.000000,40499.000000,15635.000000
26900.000000,12131.000000,40664.000000,15743.000000
26995.000000,12250.000000,40867.000000,15887.000000
27097.000000,12376.000000,41086.000000,16042.000000
27197.000000,12494.000000,41308.000000,16193.000000
27303.000000,12616.000000,41546.000000,16364.000000
27415.000000,12745.000000,41798.000000,16561.000000
27517.000000,12859.000000,42034.000000,16746.000000
27602.000000,12948.000000,42236.000000,16901.000000
27683.000000,13030.000000,42421.000000,17050.000000
27763.000000,13116.000000,42593.000000,17201.000000
27827.000000,13186.000000,42728.000000,17318.000000
27871.000000,13228.000000,42817.000000,17391.000000
27910.000000,13262.000000,42886.000000,17446.000000
27945.000000,13294.000000,42942.000000,17489.000000
27960.000000,13305.000000,42960.000000,17489.000000
27957.000000,13293.000000,42939.000000,17449.000000
27952.000000,13282.000000,42906.000000,17410.000000
27944.000000,13272.000000,42866.000000,17377.000000
27919.000000,13243.000000,42801.000000,17321.000000
27884.000000,13198.000000,42721.000000,17246.000000
27855.000000,13163.000000,42651.000000,17192.000000
27830.000000,13139.000000,42589.000000,17153.000000
27800.000000,13106.000000,42516.000000,17097.000000
27769.000000,13065.000000,42438.000000,17030.000000
27744.000000,13038.000000,42379.000000,16987.000000
27726.000000,13024.000000,42336.000000,16961.000000
27704.000000,13006.000000,42288.000000,16925.000000
27685.000000,12985.000000,42242.000000,16886.000000
27676.000000,12980.000000,42219.000000,16872.000000
27669.000000,12981.000000,42208.000000,16867.000000
27655.000000,12970.000000,42188.000000,16842.000000
27639.000000,12952.000000,42163.000000,16813.000000
27630.000000,12949.000000,42154.000000,16804.000000
27626.000000,12946.000000,42146.000000,16797.000000
27617.000000,12927.000000,42119.000000,16766.000000
27608.000000,12904.000000,42087.000000,16733.000000
27605.000000,12892.000000,42062.000000,16718.000000
27599.000000,12878.000000,42028.000000,16692.000000
27580.000000,12846.000000,41968.000000,16632.000000
27557.000000,12813.000000,41900.000000,16568.000000
27538.000000,12792.000000,41843.000000,16525.000000
27511.000000,12764.000000,41784.000000,16480.000000
27473.000000,12718.000000,41714.000000,16417.000000
27436.000000,12672.000000,41651.000000,16365.000000
27409.000000,12640.000000,41605.000000,16337.000000
27378.000000,12607.000000,41560.000000,16306.000000
27342.000000,12568.000000,41509.000000,16258.000000
27315.000000,12539.000000,41471.000000,16226.000000
27300.000000,12527.000000,41452.000000,16221.000000
27283.000000,12511.000000,41431.000000,16213.000000
27260.000000,12488.000000,41401.000000,16190.000000
27247.000000,12476.000000,41383.000000,16182.000000
27248.000000,12481.000000,41382.000000,16195.000000
27248.000000,12480.000000,41377.000000,16197.000000
27242.000000,12467.000000,41363.000000,16188.000000
27245.000000,12466.000000,41362.000000,16200.000000
27254.000000,12479.000000,41374.000000,16233.000000
27255.000000,12485.000000,41377.000000,16251.000000
27250.000000,12479.000000,41370.000000,16252.000000
27253.000000,12482.000000,41372.000000,16269.000000
27263.000000,12495.000000,41386.000000,16297.000000
27266.000000,12501.000000,41391.000000,16301.000000
27267.000000,12500.000000,41385.000000,16284.000000
27273.000000,12506.000000,41386.000000,16280.000000
27277.000000,12512.000000,41390.000000,16285.000000
27269.000000,12502.000000,41377.000000,16268.000000
27256.000000,12484.000000,41353.000000,16238.000000
27250.000000,12478.000000,41337.000000,16224.000000
27245.000000,12475.000000,41321.000000,16218.000000
27228.000000,12454.000000,41289.000000,16191.000000
27207.000000,12424.000000,41251.000000,16156.000000
27198.000000,12407.000000,41222.000000,16141.000000
27192.000000,12397.000000,41193.000000,16124.000000
27173.000000,12372.000000,41147.000000,16081.000000
27149.000000,12340.000000,41096.000000,16036.000000
27135.000000,12323.000000,41057.000000,16015.000000
27123.000000,12309.000000,41019.000000,15996.000000
27102.000000,12282.000000,40968.000000,15951.000000
27080.000000,12252.000000,40918.000000,15908.000000
27067.000000,12233.000000,40883.000000,15892.000000
27054.000000,12214.000000,40853.000000,15876.000000
27036.000000,12187.000000,40812.000000,15842.000000
27022.000000,12166.000000,40776.000000,15814.000000
27017.000000,12160.000000,40757.000000,15810.000000
27010.000000,12153.000000,40738.000000,15802.000000
26996.000000,12135.000000,40709.000000,15777.000000
26986.000000,12123.000000,40686.000000,15760.000000
26985.000000,12127.000000,40678.000000,15760.000000
26982.000000,12126.000000,40665.000000,15747.000000
26971.000000,12111.000000,40638.000000,15717.000000
26963.000000,12103.000000,40618.000000,15697.000000
26962.000000,12110.000000,40615.000000,15696.000000
26955.000000,12109.000000,40603.000000,15686.000000
26941.000000,12092.000000,40576.000000,15663.000000
26932.000000,12081.000000,40557.000000,15656.000000
26930.000000,12080.000000,40550.000000,15665.000000
26924.000000,12068.000000,40535.000000,15654.000000
26914.000000,12046.000000,40508.000000,15624.000000
26909.000000,12034.000000,40493.000000,15609.000000
26907.000000,12033.000000,40486.000000,15610.000000
26895.000000,12023.000000,40466.000000,15595.000000
26877.000000,12002.000000,40438.000000,15567.000000
26866.000000,11992.000000,40424.000000,15555.000000
26860.000000,11992.000000,40420.000000,15555.000000
26849.000000,11984.000000,40403.000000,15543.000000
26837.000000,11968.000000,40376.000000,15524.000000
26830.000000,11960.000000,40361.000000,15524.000000
26823.000000,11956.000000,40357.000000,15528.000000
26805.000000,11942.000000,40342.000000,15508.000000
26786.000000,11925.000000,40324.000000,15474.000000
26778.000000,11924.000000,40322.000000,15457.000000
26777.000000,11926.000000,40326.000000,15454.000000
26771.000000,11914.000000,40311.000000,15443.000000
26763.000000,11898.000000,40289.000000,15433.000000
26765.000000,11898.000000,40285.000000,15444.000000
26771.000000,11902.000000,40285.000000,15451.000000
26771.000000,11891.000000,40270.000000,15431.000000
26772.000000,11879.000000,40255.000000,15408.000000
26782.000000,11883.000000,40258.000000,15404.000000
26790.000000,11889.000000,40260.000000,15397.000000
26787.000000,11881.000000,40245.000000,15363.000000
26782.000000,11874.000000,40229.000000,15331.000000
26782.000000,11876.000000,40225.000000,15324.000000
26775.000000,11872.000000,40213.000000,15316.000000
26757.000000,11852.000000,40181.000000,15289.000000
26738.000000,11833.000000,40151.000000,15272.000000
26723.000000,11826.000000,40137.000000,15280.000000
26706.000000,11817.000000,40122.000000,15281.000000
26682.000000,11798.000000,40097.000000,15260.000000
26663.000000,11786.000000,40083.000000,15245.000000
26652.000000,11787.000000,40082.000000,15243.000000
26639.000000,11782.000000,40073.000000,15228.000000
26621.000000,11766.000000,40050.000000,15195.000000
26610.000000,11758.000000,40037.000000,15178.000000
26605.000000,11762.000000,40040.000000,15184.000000
26599.000000,11759.000000,40038.000000,15181.000000
26593.000000,11747.000000,40029.000000,15169.000000
26599.000000,11747.000000,40035.000000,15178.000000
26615.000000,11763.000000,40058.000000,15207.000000
26631.000000,11778.000000,40077.000000,15224.000000
26654.000000,11792.000000,40099.000000,15234.000000
26695.000000,11828.000000,40155.000000,15274.000000
26752.000000,11886.000000,40246.000000,15343.000000
26810.000000,11947.000000,40352.000000,15414.000000
26871.000000,12013.000000,40476.000000,15499.000000
26950.000000,12104.000000,40642.000000,15631.000000
27045.000000,12219.000000,40847.000000,15794.000000
27142.000000,12338.000000,41067.000000,15952.000000
27245.000000,12466.000000,41306.000000,16120.000000
27365.000000,12617.000000,41579.000000,16325.000000
27495.000000,12775.000000,41867.000000,16550.000000
27617.000000,12916.000000,42137.000000,16754.000000
27731.000000,13044.000000,42388.000000,16943.000000
27845.000000,13173.000000,42632.000000,17138.000000
27949.000000,13292.000000,42851.000000,17314.000000
28031.000000,13380.000000,43018.000000,17445.000000
28099.000000,13447.000000,43143.000000,17547.000000
28163.000000,13509.000000,43250.000000,17642.000000
28212.000000,13551.000000,43324.000000,17709.000000
28234.000000,13561.000000,43351.000000,17722.000000
28243.000000,13557.000000,43355.000000,17708.000000
28246.000000,13555.000000,43352.000000,17699.000000
