660nm,730nm,850nm,940nm
9958.000000,17341.000000,8678.000000,44156.000000
9932.000000,17345.000000,8632.000000,44178.000000
9952.000000,17339.000000,8663.000000,44135.000000
9924.000000,17311.000000,8608.000000,44141.000000
9946.000000,17315.000000,8598.000000,44121.000000
9879.000000,17335.000000,8591.000000,44148.000000
9888.000000,17283.000000,8592.000000,44130.000000
9903.000000,17319.000000,8591.000000,44085.000000
9859.000000,17251.000000,8601.000000,44090.000000
9878.000000,17297.000000,8559.000000,44092.000000
9838.000000,17251.000000,8562.000000,44053.000000
9824.000000,17239.000000,8527.000000,44089.000000
9836.000000,17224.000000,8535.000000,44081.000000
9772.000000,17209.000000,8516.000000,44080.000000
9797.000000,17203.000000,8488.000000,44101.000000
9755.000000,17187.000000,8478.000000,44070.000000
9731.000000,17148.000000,8454.000000,44039.000000
9709.000000,17163.000000,8394.000000,44069.000000
9695.000000,17126.000000,8434.000000,44016.000000
9641.000000,17096.000000,8394.000000,44007.000000
9679.000000,17126.000000,8398.000000,44031.000000
9622.000000,17061.000000,8355.000000,43981.000000
9596.000000,17091.000000,8304.000000,43988.000000
9584.000000,17043.000000,8297.000000,43970.000000
9561.000000,17027.000000,8269.000000,43952.000000
9519.000000,17005.000000,8221.000000,43940.000000
9490.000000,16992.000000,8205.000000,43935.000000
9451.000000,16960.000000,8206.000000,43932.000000
9468.000000,16941.000000,8170.000000,43922.000000
9403.000000,16927.000000,8177.000000,43912.000000
9392.000000,16914.000000,8168.000000,43913.000000
9343.000000,16841.000000,8119.000000,43898.000000
9364.000000,16876.000000,8105.000000,43903.000000
9403.000000,16877.000000,8095.000000,43869.000000
9360.000000,16875.000000,8102.000000,43857.000000
9352.000000,16836.000000,8133.000000,43845.000000
9370.000000,16863.000000,8100.000000,43897.000000
9335.000000,16834.000000,8113.000000,43859.000000
9353.000000,16869.000000,8111.000000,43890.000000
9322.000000,16860.000000,8115.000000,43908.000000
9376.000000,16879.000000,8157.000000,43893.000000
9402.000000,16848.000000,8140.000000,43916.000000
9370.000000,16900.000000,8148.000000,43931.000000
9378.000000,16873.000000,8153.000000,43898.000000
9422.000000,16925.000000,8158.000000,43899.000000
9402.000000,16899.000000,8164.000000,43892.000000
9436.000000,16867.000000,8201.000000,43924.000000
9437.000000,16890.000000,8213.000000,43927.000000
9408.000000,16940.000000,8234.000000,43959.000000
9451.000000,16914.000000,8239.000000,43944.000000
9481.000000,16962.000000,8298.000000,43975.000000
9490.000000,16940.000000,8330.000000,43993.000000
9494.000000,16991.000000,8337.000000,43998.000000
9519.000000,17024.000000,8345.000000,44005.000000
9570.000000,17060.000000,8368.000000,44027.000000
9593.000000,17056.000000,8432.000000,44014.000000
9642.000000,17105.000000,8468.000000,44065.000000
9675.000000,17141.000000,8503.000000,44054.000000
9759.000000,17202.000000,8542.000000,44110.000000
9816.000000,17268.000000,8646.000000,44112.000000
9864.000000,17283.000000,8723.000000,44179.000000
9912.000000,17339.000000,8765.000000,44219.000000
10065.000000,17413.000000,8872.000000,44291.000000
10127.000000,17491.000000,8956.000000,44297.000000
10208.000000,17533.000000,9031.000000,44367.000000
10322.000000,17603.000000,9146.000000,44411.000000
10394.000000,17729.000000,9242.000000,44447.000000
10522.000000,17829.000000,9355.000000,44521.000000
10631.000000,17863.000000,9488.000000,44569.000000
10725.000000,17963.000000,9549.000000,44626.000000
10917.000000,18156.000000,9733.000000,44724.000000
10961.000000,18141.000000,9759.000000,44705.000000
10955.000000,18132.000000,9803.000000,44689.000000
10951.000000,18196.000000,9783.000000,44715.000000
10957.000000,18183.000000,9813.000000,44738.000000
10979.000000,18207.000000,9817.000000,44728.000000
11004.000000,18211.000000,9787.000000,44710.000000
11005.000000,18192.000000,9770.000000,44722.000000
10963.000000,18144.000000,9787.000000,44714.000000
10985.000000,18171.000000,9768.000000,44701.000000
10948.000000,18154.000000,9822.000000,44706.000000
10966.000000,18153.000000,9783.000000,44714.000000
11005.000000,18172.000000,9773.000000,44704.000000
10996.000000,18147.000000,9756.000000,44704.000000
10965.000000,18144.000000,9745.000000,44707.000000
10970.000000,18122.000000,9727.000000,44695.000000
10939.000000,18111.000000,9733.000000,44695.000000
10924.000000,18117.000000,9757.000000,44699.000000
10920.000000,18131.000000,9734.000000,44940.000000
10950.000000,18123.000000,9729.000000,44690.000000
10967.000000,18128.000000,9725.000000,44662.000000
10930.000000,18145.000000,9727.000000,44684.000000
10963.000000,18143.000000,9744.000000,44681.000000
10920.000000,18136.000000,9734.000000,44667.000000
10884.000000,18105.000000,9722.000000,44707.000000
10939.000000,18085.000000,9703.000000,44680.000000
10948.000000,18097.000000,9712.000000,44672.000000
10915.000000,18097.000000,9724.000000,44677.000000
10887.000000,18111.000000,9713.000000,44673.000000
10944.000000,18086.000000,9682.000000,44630.000000
10921.000000,18116.000000,9709.000000,44657.000000
10878.000000,18116.000000,9683.000000,44674.000000
10927.000000,18119.000000,9664.000000,44678.000000
10934.000000,18068.000000,9677.000000,44629.000000
10895.000000,18092.000000,9688.000000,44668.000000
10895.000000,18097.000000,9669.000000,44608.000000
10893.000000,18079.000000,9648.000000,44652.000000
10889.000000,18048.000000,9654.000000,44666.000000
10913.000000,18033.000000,9637.000000,44682.000000
10871.000000,18067.000000,9648.000000,44643.000000
10866.000000,18060.000000,9635.000000,44627.000000
10879.000000,18033.000000,9618.000000,44619.000000
10853.000000,18056.000000,9626.000000,44628.000000
10847.000000,18017.000000,9591.000000,44637.000000
10811.000000,18050.000000,9601.000000,44624.000000
10856.000000,18025.000000,9588.000000,44617.000000
10825.000000,18007.000000,9552.000000,44590.000000
10804.000000,18013.000000,9540.000000,44599.000000
10799.000000,18064.000000,9576.000000,44599.000000
10780.000000,17980.000000,9537.000000,44579.000000
10775.000000,17968.000000,9521.000000,44559.000000
10754.000000,17998.000000,9542.000000,44599.000000
10772.000000,18007.000000,9499.000000,44568.000000
10721.000000,17981.000000,9503.000000,44562.000000
10736.000000,17938.000000,9445.000000,44581.000000
10700.000000,17936.000000,9469.000000,44533.000000
10694.000000,17916.000000,9443.000000,44532.000000
10692.000000,17919.000000,9453.000000,44571.000000
10655.000000,17937.000000,9411.000000,44487.000000
10652.000000,17876.000000,9387.000000,44537.000000
10632.000000,17888.000000,9359.000000,44493.000000
10607.000000,17867.000000,9318.000000,44475.000000
10606.000000,17812.000000,9296.000000,44469.000000
10607.000000,17835.000000,9299.000000,44488.000000
10522.000000,17808.000000,9284.000000,44466.000000
10545.000000,17771.000000,9249.000000,44445.000000
10491.000000,17735.000000,9221.000000,44441.000000
10483.000000,17744.000000,9209.000000,44451.000000
10469.000000,17732.000000,9194.000000,44438.000000
10451.000000,17740.000000,9137.000000,44401.000000
10417.000000,17688.000000,9144.000000,44414.000000
10411.000000,17651.000000,9072.000000,44347.000000
10396.000000,17672.000000,9076.000000,44360.000000
10364.000000,17633.000000,9033.000000,44351.000000
10345.000000,17636.000000,9041.000000,44346.000000
10281.000000,17572.000000,9014.000000,44333.000000
10287.000000,17568.000000,8964.000000,44317.000000
10280.000000,17551.000000,8952.000000,44302.000000
10307.000000,17544.000000,8979.000000,44313.000000
10219.000000,17541.000000,8924.000000,44288.000000
10217.000000,17493.000000,8864.000000,44275.000000
10191.000000,17493.000000,8817.000000,44294.000000
10213.000000,17412.000000,8830.000000,44251.000000
10187.000000,17459.000000,8838.000000,44198.000000
10136.000000,17427.000000,8806.000000,44263.000000
10106.000000,17391.000000,8772.000000,44219.000000
10053.000000,17430.000000,8736.000000,44217.000000
10101.000000,17417.000000,8767.000000,44230.000000
10054.000000,17381.000000,8757.000000,44222.000000
10027.000000,17353.000000,8704.000000,44157.000000
10036.000000,17364.000000,8708.000000,44175.000000
10013.000000,17348.000000,8680.000000,44151.000000
10023.000000,17311.000000,8620.000000,44145.000000
10000.000000,17293.000000,8625.000000,44172.000000
9961.000000,17309.000000,8624.000000,44142.000000
9954.000000,17307.000000,8609.000000,44123.000000
9951.000000,17281.000000,8589.000000,44154.000000
9923.000000,17274.000000,8585.000000,44129.000000
9894.000000,17245.000000,8560.000000,44118.000000
9872.000000,17195.000000,8547.000000,44072.000000
9882.000000,17251.000000,8528.000000,44094.000000
9822.000000,17219.000000,8490.000000,44085.000000
9807.000000,17152.000000,8465.000000,44064.000000
9791.000000,17169.000000,8454.000000,44034.000000
9746.000000,17096.000000,8408.000000,44059.000000
9716.000000,17085.000000,8388.000000,43984.000000
9716.000000,17097.000000,8366.000000,44059.000000
9668.000000,17097.000000,8348.000000,44022.000000
9617.000000,17050.000000,8290.000000,43964.000000
9618.000000,16993.000000,8276.000000,43938.000000
9541.000000,16958.000000,8240.000000,43951.000000
9571.000000,16985.000000,8250.000000,43983.000000
9565.000000,16948.000000,8234.000000,43947.000000
9534.000000,16947.000000,8211.000000,43946.000000
9525.000000,16941.000000,8188.000000,43936.000000
9515.000000,16920.000000,8194.000000,43939.000000
9476.000000,16912.000000,8174.000000,43968.000000
9508.000000,16910.000000,8152.000000,43925.000000
9491.000000,16895.000000,8125.000000,43884.000000
9499.000000,16911.000000,8121.000000,43920.000000
9467.000000,16896.000000,8148.000000,43923.000000
9453.000000,16872.000000,8143.000000,43912.000000
9466.000000,16851.000000,8157.000000,43897.000000
9464.000000,16865.000000,8157.000000,43960.000000
9442.000000,16868.000000,8169.000000,43939.000000
9468.000000,16888.000000,8166.000000,43943.000000
9470.000000,16891.000000,8177.000000,43929.000000
9508.000000,16907.000000,8192.000000,43911.000000
9486.000000,16883.000000,8157.000000,43943.000000
9501.000000,16902.000000,8145.000000,43933.000000
9512.000000,16904.000000,8209.000000,43950.000000
9486.000000,16931.000000,8200.000000,43959.000000
9513.000000,16908.000000,8217.000000,43920.000000
9513.000000,16951.000000,8217.000000,43952.000000
9532.000000,16926.000000,8230.000000,43957.000000
9539.000000,16918.000000,8277.000000,43999.000000
9591.000000,16944.000000,8254.000000,44013.000000
9602.000000,16943.000000,8286.000000,43969.000000
9607.000000,16975.000000,8306.000000,44028.000000
9627.000000,17009.000000,8343.000000,44026.000000
9643.000000,17021.000000,8390.000000,44014.000000
9669.000000,17048.000000,8412.000000,44031.000000
9724.000000,17081.000000,8469.000000,44047.000000
9772.000000,17095.000000,8474.000000,44087.000000
9824.000000,17156.000000,8561.000000,44111.000000
9860.000000,17185.000000,8595.000000,44125.000000
9919.000000,17222.000000,8663.000000,44190.000000
10010.000000,17312.000000,8741.000000,44233.000000
10097.000000,17357.000000,8834.000000,44262.000000
10179.000000,17418.000000,8923.000000,44307.000000
10267.000000,17523.000000,9011.000000,44363.000000
10370.000000,17584.000000,9088.000000,44436.000000
10472.000000,17679.000000,9195.000000,44465.000000
10567.000000,17753.000000,9285.000000,44530.000000
10693.000000,17831.000000,9393.000000,44570.000000
10804.000000,17921.000000,9517.000000,44589.000000
10858.000000,17995.000000,9600.000000,44637.000000
10920.000000,18047.000000,9678.000000,44707.000000
10977.000000,18049.000000,9674.000000,44660.000000
11023.000000,18119.000000,9723.000000,44694.000000
11025.000000,18088.000000,9747.000000,44689.000000
11053.000000,18122.000000,9742.000000,44720.000000
11066.000000,18140.000000,9771.000000,44729.000000
11044.000000,18136.000000,9765.000000,44720.000000
11073.000000,18412.000000,9743.000000,44733.000000
11073.000000,18102.000000,9751.000000,44726.000000
11047.000000,18114.000000,9698.000000,44717.000000
11067.000000,18154.000000,9752.000000,44710.000000
11030.000000,18129.000000,9741.000000,44722.000000
11055.000000,18122.000000,9744.000000,44684.000000
11052.000000,18134.000000,9737.000000,44719.000000
11035.000000,18134.000000,9663.000000,44710.000000
11039.000000,18080.000000,9689.000000,44675.000000
11041.000000,18102.000000,9687.000000,44680.000000
11026.000000,18088.000000,9702.000000,44705.000000
10981.000000,18085.000000,9685.000000,44697.000000
10960.000000,18085.000000,9630.000000,44658.000000
10932.000000,18040.000000,9613.000000,44701.000000
10922.000000,18034.000000,9606.000000,44632.000000
10906.000000,18030.000000,9603.000000,44624.000000
10899.000000,18013.000000,9550.000000,44636.000000
10901.000000,17991.000000,9558.000000,44625.000000
10919.000000,17995.000000,9555.000000,44644.000000
10903.000000,17965.000000,9532.000000,44620.000000
10818.000000,17948.000000,9518.000000,44617.000000
10873.000000,17979.000000,9482.000000,44604.000000
10859.000000,17977.000000,9518.000000,44591.000000
10845.000000,17922.000000,9476.000000,44599.000000
10809.000000,17928.000000,9486.000000,44581.000000
10830.000000,17951.000000,9440.000000,44574.000000
10790.000000,17977.000000,9439.000000,44635.000000
10823.000000,17919.000000,9462.000000,44558.000000
10787.000000,17903.000000,9423.000000,44546.000000
10768.000000,17853.000000,9423.000000,44529.000000
10772.000000,17902.000000,9398.000000,44560.000000
10730.000000,17891.000000,9410.000000,44551.000000
10756.000000,17872.000000,9382.000000,44579.000000
10728.000000,17859.000000,9374.000000,44514.000000
10712.000000,17881.000000,9355.000000,44512.000000
10721.000000,17855.000000,9317.000000,44515.000000
10732.000000,17839.000000,9363.000000,44517.000000
10737.000000,17825.000000,9329.000000,44545.000000
10680.000000,17815.000000,9302.000000,44511.000000
10676.000000,17787.000000,9277.000000,44515.000000
10675.000000,17780.000000,9315.000000,44524.000000
10695.000000,17808.000000,9272.000000,44499.000000
10651.000000,17804.000000,9253.000000,44511.000000
10651.000000,17776.000000,9264.000000,44458.000000
10640.000000,17771.000000,9260.000000,44476.000000
10609.000000,17759.000000,9254.000000,44497.000000
10617.000000,17755.000000,9234.000000,44483.000000
10605.000000,17747.000000,9208.000000,44482.000000
10613.000000,17727.000000,9205.000000,44436.000000
10586.000000,17727.000000,9225.000000,44425.000000
10588.000000,17748.000000,9167.000000,44457.000000
10591.000000,17679.000000,9154.000000,44443.000000
10544.000000,17705.000000,9148.000000,44421.000000
10564.000000,17692.000000,9173.000000,44458.000000
10501.000000,17701.000000,9108.000000,44396.000000
10517.000000,17644.000000,9116.000000,44402.000000
10505.000000,17667.000000,9116.000000,44392.000000
10468.000000,17631.000000,9080.000000,44368.000000
10431.000000,17607.000000,9036.000000,44382.000000
10435.000000,17609.000000,9021.000000,44373.000000
10401.000000,17594.000000,9000.000000,44341.000000
10381.000000,17530.000000,8965.000000,44331.000000
10358.000000,17575.000000,8959.000000,44314.000000
10354.000000,17548.000000,8938.000000,44302.000000
10307.000000,17537.000000,8919.000000,44332.000000
10320.000000,17481.000000,8908.000000,44315.000000
10314.000000,17511.000000,8868.000000,44306.000000
10307.000000,17478.000000,8887.000000,44278.000000
10259.000000,17438.000000,8853.000000,44321.000000
10270.000000,17438.000000,8828.000000,44260.000000
10223.000000,17428.000000,8816.000000,44292.000000
10217.000000,17397.000000,8806.000000,44272.000000
10203.000000,17454.000000,8763.000000,44221.000000
10165.000000,17389.000000,8757.000000,44231.000000
10177.000000,17367.000000,8780.000000,44243.000000
10160.000000,17368.000000,8739.000000,44226.000000
10149.000000,17343.000000,8714.000000,44207.000000
10121.000000,17377.000000,8717.000000,44225.000000
10118.000000,17343.000000,8698.000000,44201.000000
10112.000000,17323.000000,8659.000000,44177.000000
10061.000000,17327.000000,8638.000000,44197.000000
10059.000000,17271.000000,8680.000000,44170.000000
10080.000000,17331.000000,8647.000000,44176.000000
10061.000000,17284.000000,8625.000000,44167.000000
10006.000000,17276.000000,8616.000000,44139.000000
10001.000000,17251.000000,8572.000000,44143.000000
10032.000000,17266.000000,8566.000000,44139.000000
9987.000000,17243.000000,8599.000000,44158.000000
9946.000000,17203.000000,8534.000000,44096.000000
9935.000000,17211.000000,8565.000000,44098.000000
9954.000000,17180.000000,8485.000000,44118.000000
9924.000000,17199.000000,8515.000000,44127.000000
9906.000000,17192.000000,8486.000000,44102.000000
9895.000000,17129.000000,8444.000000,44096.000000
9846.000000,17104.000000,8423.000000,44066.000000
9832.000000,17103.000000,8400.000000,44081.000000
9794.000000,17082.000000,8396.000000,44049.000000
9769.000000,17077.000000,8363.000000,44028.000000
9738.000000,17048.000000,8304.000000,43999.000000
9726.000000,17022.000000,8277.000000,43994.000000
9682.000000,16982.000000,8261.000000,43984.000000
9671.000000,17268.000000,8244.000000,43980.000000
9686.000000,16958.000000,8213.000000,43983.000000
9610.000000,16951.000000,8182.000000,43957.000000
9567.000000,16876.000000,8155.000000,43927.000000
9576.000000,16889.000000,8173.000000,43925.000000
9518.000000,16877.000000,8120.000000,43913.000000
9543.000000,16875.000000,8105.000000,43940.000000
9528.000000,16843.000000,8083.000000,43925.000000
9491.000000,16839.000000,8111.000000,43896.000000
9493.000000,16831.000000,8102.000000,43882.000000
9521.000000,16829.000000,8114.000000,43884.000000
9484.000000,16791.000000,8082.000000,43883.000000
9491.000000,16793.000000,8078.000000,43875.000000
9493.000000,16801.000000,8039.000000,43892.000000
9493.000000,16828.000000,8098.000000,43911.000000
9492.000000,16847.000000,8078.000000,43942.000000
9517.000000,16823.000000,8080.000000,43921.000000
9516.000000,16819.000000,8094.000000,43911.000000
9529.000000,16839.000000,8123.000000,43893.000000
9535.000000,16844.000000,8118.000000,43914.000000
9553.000000,16824.000000,8170.000000,43933.000000
9571.000000,16842.000000,8134.000000,43925.000000
9538.000000,16836.000000,8148.000000,43941.000000
9569.000000,16887.000000,8151.000000,43962.000000
9588.000000,16876.000000,8190.000000,43959.000000
9606.000000,16902.000000,8202.000000,43997.000000
9603.000000,16855.000000,8184.000000,43973.000000
9640.000000,16931.000000,8217.000000,43987.000000
9676.000000,16937.000000,8280.000000,43968.000000
9715.000000,16947.000000,8285.000000,44013.000000
9708.000000,16975.000000,8304.000000,44037.000000
9704.000000,17015.000000,8358.000000,44073.000000
9750.000000,17003.000000,8352.000000,44036.000000
9769.000000,17059.000000,8388.000000,44061.000000
9890.000000,17085.000000,8476.000000,44110.000000
10199.000000,17126.000000,8519.000000,44159.000000
9970.000000,17187.000000,8562.000000,44161.000000
10037.000000,17261.000000,8626.000000,44184.000000
10138.000000,17295.000000,8709.000000,44220.000000
10208.000000,17363.000000,8828.000000,44291.000000
10317.000000,17450.000000,8888.000000,44340.000000
10365.000000,17486.000000,9015.000000,44383.000000
10483.000000,17573.000000,9101.000000,44413.000000
10570.000000,17654.000000,9151.000000,44450.000000
10698.000000,17729.000000,9271.000000,44542.000000
10857.000000,17857.000000,9411.000000,44617.000000
10933.000000,17925.000000,9488.000000,44650.000000
10998.000000,17978.000000,9591.000000,44644.000000
11100.000000,18078.000000,9627.000000,44680.000000
11118.000000,18074.000000,9684.000000,44732.000000
11170.000000,18143.000000,9734.000000,44764.000000
11226.000000,18192.000000,9823.000000,44773.000000
11253.000000,18157.000000,9800.000000,44774.000000
11227.000000,18164.000000,9779.000000,44766.000000
11246.000000,18205.000000,9780.000000,44774.000000
11240.000000,18189.000000,9781.000000,44774.000000
11240.000000,18192.000000,9790.000000,44785.000000
11221.000000,18166.000000,9799.000000,44758.000000
11254.000000,18180.000000,9772.000000,44796.000000
11233.000000,18181.000000,9774.000000,44777.000000
11250.000000,18185.000000,9765.000000,44795.000000
11219.000000,18148.000000,9759.000000,44734.000000
11224.000000,18179.000000,9768.000000,44770.000000
11213.000000,18158.000000,9754.000000,44773.000000
11244.000000,18161.000000,9758.000000,44778.000000
11203.000000,18169.000000,9739.000000,44768.000000
11210.000000,18144.000000,9742.000000,44759.000000
11162.000000,18166.000000,9730.000000,44738.000000
11217.000000,18125.000000,9740.000000,44712.000000
11202.000000,18112.000000,9711.000000,44745.000000
11162.000000,18154.000000,9713.000000,44713.000000
11185.000000,18122.000000,9691.000000,44725.000000
11177.000000,18138.000000,9700.000000,44766.000000
11193.000000,18123.000000,9698.000000,44755.000000
11135.000000,18085.000000,9706.000000,44737.000000
11142.000000,18082.000000,9677.000000,44697.000000
11153.000000,18102.000000,9672.000000,44735.000000
11149.000000,18080.000000,9662.000000,44713.000000
11147.000000,18099.000000,9641.000000,44721.000000
11101.000000,18064.000000,9617.000000,44693.000000
11118.000000,18089.000000,9646.000000,44707.000000
11128.000000,18067.000000,9646.000000,44696.000000
11121.000000,18026.000000,9620.000000,44688.000000
11105.000000,18038.000000,9612.000000,44668.000000
11084.000000,18034.000000,9611.000000,44685.000000
11090.000000,18021.000000,9587.000000,44671.000000
11070.000000,18027.000000,9587.000000,44680.000000
11044.000000,18010.000000,9554.000000,44656.000000
11050.000000,17994.000000,9544.000000,44648.000000
11023.000000,17994.000000,9533.000000,44651.000000
11013.000000,17972.000000,9523.000000,44683.000000
11018.000000,17994.000000,9489.000000,44654.000000
11007.000000,17954.000000,9493.000000,44641.000000
10996.000000,17917.000000,9452.000000,44605.000000
10987.000000,17920.000000,9461.000000,44606.000000
10952.000000,17919.000000,9448.000000,44585.000000
10856.000000,17888.000000,9349.000000,44572.000000
10866.000000,17881.000000,9371.000000,44551.000000
10834.000000,17830.000000,9365.000000,44572.000000
10862.000000,17791.000000,9335.000000,44559.000000
10804.000000,17795.000000,9261.000000,44529.000000
10809.000000,17817.000000,9268.000000,44534.000000
10767.000000,17785.000000,9273.000000,44516.000000
10785.000000,17755.000000,9208.000000,44515.000000
10741.000000,17745.000000,9207.000000,44493.000000
10727.000000,17727.000000,9169.000000,44475.000000
10721.000000,17735.000000,9129.000000,44486.000000
10689.000000,17677.000000,9118.000000,44471.000000
10659.000000,17684.000000,9118.000000,44468.000000
10664.000000,17652.000000,9084.000000,44473.000000
10638.000000,17662.000000,9075.000000,44432.000000
10625.000000,17600.000000,9052.000000,44415.000000
10590.000000,17605.000000,9007.000000,44392.000000
10562.000000,17593.000000,9009.000000,44421.000000
10542.000000,17584.000000,9007.000000,44415.000000
10513.000000,17558.000000,8966.000000,44399.000000
10500.000000,17530.000000,8955.000000,44361.000000
10473.000000,17562.000000,8888.000000,44368.000000
10455.000000,17549.000000,8894.000000,44328.000000
10508.000000,17466.000000,8917.000000,44345.000000
10466.000000,17481.000000,8850.000000,44338.000000
10450.000000,17442.000000,8863.000000,44295.000000
10418.000000,17489.000000,8831.000000,44299.000000
10372.000000,17435.000000,8821.000000,44325.000000
10398.000000,17434.000000,8817.000000,44317.000000
10364.000000,17445.000000,8794.000000,44274.000000
10361.000000,17404.000000,8759.000000,44283.000000
10346.000000,17420.000000,8776.000000,44292.000000
10324.000000,17355.000000,8762.000000,44274.000000
10324.000000,17381.000000,8738.000000,44255.000000
10331.000000,17363.000000,8727.000000,44270.000000
10304.000000,17372.000000,8702.000000,44260.000000
10294.000000,17335.000000,8721.000000,44240.000000
10268.000000,17372.000000,8688.000000,44263.000000
10255.000000,17315.000000,8659.000000,44262.000000
10246.000000,17315.000000,8650.000000,44237.000000
10209.000000,17325.000000,8660.000000,44223.000000
10250.000000,17312.000000,8635.000000,44160.000000
10187.000000,17285.000000,8619.000000,44221.000000
10176.000000,17255.000000,8607.000000,44216.000000
10192.000000,17300.000000,8594.000000,44191.000000
10202.000000,17292.000000,8611.000000,44189.000000
10167.000000,17269.000000,8578.000000,44195.000000
10153.000000,17253.000000,8559.000000,44158.000000
10122.000000,17225.000000,8571.000000,44162.000000
10106.000000,17246.000000,8520.000000,44161.000000
10091.000000,17223.000000,8515.000000,44171.000000
10087.000000,17231.000000,8521.000000,44141.000000
10066.000000,17186.000000,8472.000000,44098.000000
10072.000000,17149.000000,8458.000000,44156.000000
9992.000000,17152.000000,8432.000000,44138.000000
9999.000000,17108.000000,8402.000000,44117.000000
9984.000000,17103.000000,8394.000000,44083.000000
9948.000000,17078.000000,8387.000000,44104.000000
9917.000000,17067.000000,8342.000000,44040.000000
9878.000000,17029.000000,8335.000000,44063.000000
9886.000000,17043.000000,8285.000000,44054.000000
9858.000000,17019.000000,8269.000000,44037.000000
9875.000000,16981.000000,8259.000000,44024.000000
9802.000000,16968.000000,8253.000000,44053.000000
9798.000000,16949.000000,8239.000000,43976.000000
9787.000000,16957.000000,8218.000000,44037.000000
9779.000000,16933.000000,8183.000000,44001.000000
9770.000000,16929.000000,8202.000000,43988.000000
9739.000000,16925.000000,8203.000000,44015.000000
9709.000000,16889.000000,8209.000000,44019.000000
9752.000000,16920.000000,8177.000000,43957.000000
9766.000000,16965.000000,8205.000000,44006.000000
9786.000000,16916.000000,8212.000000,44023.000000
9781.000000,16952.000000,8199.000000,44034.000000
9754.000000,16915.000000,8182.000000,44011.000000
9800.000000,16968.000000,8237.000000,43998.000000
9798.000000,16915.000000,8219.000000,44019.000000
9734.000000,16918.000000,8198.000000,44032.000000
9809.000000,16915.000000,8246.000000,44014.000000
9816.000000,17215.000000,8271.000000,44009.000000
9821.000000,16923.000000,8262.000000,44049.000000
9825.000000,16951.000000,8258.000000,44060.000000
9828.000000,16981.000000,8276.000000,44046.000000
9854.000000,16983.000000,8314.000000,44061.000000
9892.000000,16983.000000,8334.000000,44069.000000
9892.000000,17058.000000,8368.000000,44094.000000
9911.000000,17054.000000,8380.000000,44080.000000
9937.000000,17024.000000,8412.000000,44109.000000
9952.000000,17063.000000,8387.000000,44096.000000
10000.000000,17079.000000,8444.000000,44131.000000
10078.000000,17152.000000,8496.000000,44168.000000
10082.000000,17155.000000,8520.000000,44189.000000
10119.000000,17197.000000,8553.000000,44178.000000
10149.000000,17233.000000,8639.000000,44222.000000
10257.000000,17285.000000,8685.000000,44273.000000
10310.000000,17351.000000,8779.000000,44309.000000
10325.000000,17400.000000,8793.000000,44320.000000
10425.000000,17448.000000,8915.000000,44383.000000
10526.000000,17513.000000,9005.000000,44457.000000
10657.000000,17587.000000,9108.000000,44476.000000
10714.000000,17668.000000,9168.000000,44524.000000
10838.000000,17722.000000,9276.000000,44586.000000
10908.000000,17784.000000,9357.000000,44607.000000
11019.000000,17874.000000,9503.000000,44656.000000
11160.000000,17975.000000,9579.000000,44734.000000
11260.000000,18071.000000,9703.000000,44775.000000
11322.000000,18158.000000,9775.000000,44783.000000
11371.000000,18148.000000,9852.000000,44806.000000
11435.000000,18203.000000,9856.000000,44872.000000
11451.000000,18221.000000,9890.000000,44856.000000
11486.000000,18263.000000,9908.000000,44897.000000
11503.000000,18267.000000,9914.000000,44920.000000
11498.000000,18288.000000,9923.000000,44881.000000
11512.000000,18297.000000,9903.000000,44866.000000
11517.000000,18329.000000,9913.000000,44890.000000
11525.000000,18265.000000,9921.000000,44900.000000
11532.000000,18297.000000,9928.000000,44895.000000
11560.000000,18303.000000,9941.000000,44907.000000
11537.000000,18281.000000,9922.000000,44848.000000
11528.000000,18272.000000,9904.000000,44871.000000
11523.000000,18287.000000,9937.000000,44884.000000
11517.000000,18288.000000,9923.000000,44903.000000
11515.000000,18280.000000,9899.000000,44910.000000
11470.000000,18259.000000,9876.000000,44876.000000
11530.000000,18263.000000,9926.000000,44872.000000
11482.000000,18273.000000,9901.000000,44880.000000
11472.000000,18255.000000,9862.000000,44874.000000
11480.000000,18234.000000,9894.000000,44873.000000
11478.000000,18261.000000,9884.000000,44856.000000
11458.000000,18241.000000,9886.000000,44884.000000
11480.000000,18243.000000,9854.000000,44850.000000
11456.000000,18232.000000,9863.000000,44882.000000
11455.000000,18256.000000,9842.000000,44860.000000
11464.000000,18227.000000,9825.000000,44872.000000
11479.000000,18227.000000,9805.000000,44863.000000
11471.000000,18223.000000,9850.000000,44850.000000
11480.000000,18215.000000,9803.000000,44851.000000
11476.000000,18208.000000,9838.000000,44854.000000
11412.000000,18160.000000,9816.000000,44837.000000
11449.000000,18223.000000,9867.000000,44824.000000
11413.000000,18167.000000,9771.000000,44843.000000
11448.000000,18201.000000,9800.000000,44842.000000
11437.000000,18199.000000,9766.000000,44832.000000
11435.000000,18177.000000,9765.000000,44834.000000
11386.000000,18160.000000,9744.000000,44818.000000
11422.000000,18179.000000,9764.000000,44813.000000
11420.000000,18415.000000,9754.000000,44840.000000
11396.000000,18166.000000,9768.000000,44799.000000
11364.000000,18126.000000,9761.000000,44831.000000
11382.000000,18174.000000,9733.000000,44803.000000
11372.000000,18153.000000,9754.000000,44793.000000
11397.000000,18173.000000,9717.000000,44774.000000
11351.000000,18113.000000,9685.000000,44777.000000
11355.000000,18091.000000,9706.000000,44767.000000
11332.000000,18132.000000,9673.000000,44768.000000
11355.000000,18117.000000,9695.000000,44791.000000
11331.000000,18052.000000,9678.000000,44771.000000
11360.000000,18101.000000,9689.000000,44780.000000
11346.000000,18088.000000,9677.000000,44758.000000
11336.000000,18089.000000,9669.000000,44771.000000
11263.000000,18099.000000,9658.000000,44733.000000
11269.000000,18047.000000,9611.000000,44750.000000
11285.000000,18072.000000,9587.000000,44742.000000
11290.000000,18083.000000,9583.000000,44772.000000
11246.000000,18028.000000,9620.000000,44722.000000
11225.000000,17992.000000,9571.000000,44708.000000
11235.000000,18004.000000,9590.000000,44701.000000
11214.000000,18013.000000,9567.000000,44701.000000
11166.000000,17972.000000,9532.000000,44714.000000
11177.000000,18012.000000,9529.000000,44699.000000
11154.000000,17995.000000,9501.000000,44732.000000
11184.000000,17935.000000,9486.000000,44655.000000
11128.000000,17949.000000,9476.000000,44660.000000
11114.000000,17930.000000,9441.000000,44659.000000
11115.000000,17933.000000,9505.000000,44671.000000
11083.000000,17909.000000,9451.000000,44667.000000
11065.000000,17889.000000,9409.000000,44657.000000
11015.000000,17855.000000,9395.000000,44626.000000
11004.000000,17856.000000,9386.000000,44609.000000
10985.000000,17839.000000,9333.000000,44612.000000
10989.000000,17795.000000,9279.000000,44579.000000
10929.000000,17831.000000,9312.000000,44552.000000
10912.000000,17783.000000,9284.000000,44582.000000
10927.000000,17781.000000,9265.000000,44570.000000
10896.000000,17784.000000,9256.000000,44559.000000
10908.000000,17759.000000,9261.000000,44580.000000
10886.000000,17779.000000,9198.000000,44584.000000
10856.000000,17737.000000,9240.000000,44507.000000
10849.000000,17713.000000,9197.000000,44527.000000
10839.000000,17711.000000,9211.000000,44556.000000
10798.000000,17715.000000,9208.000000,44521.000000
10786.000000,17681.000000,9181.000000,44511.000000
10782.000000,17711.000000,9096.000000,44483.000000
10782.000000,17668.000000,9120.000000,44469.000000
10748.000000,17666.000000,9132.000000,44484.000000
10780.000000,17673.000000,9092.000000,44478.000000
10723.000000,17642.000000,9102.000000,44483.000000
10703.000000,17635.000000,9074.000000,44454.000000
10703.000000,17630.000000,9049.000000,44441.000000
10690.000000,17604.000000,9030.000000,44453.000000
10672.000000,17574.000000,9033.000000,44444.000000
10642.000000,17561.000000,9015.000000,44417.000000
10606.000000,17523.000000,8984.000000,44406.000000
10597.000000,17514.000000,8936.000000,44395.000000
10628.000000,17518.000000,8947.000000,44413.000000
10571.000000,17542.000000,8943.000000,44422.000000
10513.000000,17481.000000,8876.000000,44375.000000
10498.000000,17462.000000,8866.000000,44367.000000
10528.000000,17420.000000,8820.000000,44331.000000
10463.000000,17431.000000,8816.000000,44320.000000
10437.000000,17403.000000,8778.000000,44320.000000
10427.000000,17426.000000,8742.000000,44327.000000
10377.000000,17308.000000,8733.000000,44305.000000
10360.000000,17328.000000,8689.000000,44274.000000
10298.000000,17300.000000,8622.000000,44249.000000
10264.000000,17255.000000,8623.000000,44218.000000
10277.000000,17226.000000,8577.000000,44188.000000
10216.000000,17211.000000,8580.000000,44210.000000
10195.000000,17178.000000,8539.000000,44174.000000
10178.000000,17163.000000,8510.000000,44199.000000
10188.000000,17193.000000,8491.000000,44148.000000
10116.000000,17141.000000,8444.000000,44155.000000
10098.000000,17118.000000,8437.000000,44140.000000
10066.000000,17109.000000,8425.000000,44131.000000
10063.000000,17057.000000,8390.000000,44106.000000
10081.000000,17103.000000,8425.000000,44131.000000
10060.000000,17106.000000,8406.000000,44158.000000
10032.000000,17065.000000,8411.000000,44114.000000
10038.000000,17052.000000,8399.000000,44146.000000
10034.000000,17025.000000,8397.000000,44091.000000
10017.000000,17041.000000,8374.000000,44148.000000
10052.000000,17102.000000,8393.000000,44130.000000
10066.000000,17049.000000,8378.000000,44102.000000
10053.000000,17067.000000,8403.000000,44093.000000
10052.000000,17076.000000,8407.000000,44132.000000
10065.000000,17106.000000,8427.000000,44149.000000
10099.000000,17111.000000,8445.000000,44135.000000
10091.000000,17099.000000,8419.000000,44114.000000
10121.000000,17120.000000,8439.000000,44128.000000
10139.000000,17124.000000,8471.000000,44175.000000
10151.000000,17142.000000,8470.000000,44204.000000
10170.000000,17148.000000,8504.000000,44156.000000
10182.000000,17156.000000,8536.000000,44189.000000
10242.000000,17224.000000,8571.000000,44209.000000
10237.000000,17200.000000,8587.000000,44271.000000
10301.000000,17208.000000,8640.000000,44246.000000
10325.000000,17257.000000,8661.000000,44263.000000
10391.000000,17331.000000,8700.000000,44295.000000
10432.000000,17321.000000,8733.000000,44307.000000
10462.000000,17417.000000,8793.000000,44343.000000
10531.000000,17392.000000,8822.000000,44352.000000
10592.000000,17463.000000,8866.000000,44401.000000
10657.000000,17528.000000,8963.000000,44468.000000
10690.000000,17586.000000,9059.000000,44489.000000
10750.000000,17612.000000,9145.000000,44516.000000
11230.000000,17957.000000,9589.000000,44735.000000
11315.000000,18048.000000,9650.000000,44763.000000
11361.000000,18110.000000,9708.000000,44820.000000
11472.000000,18111.000000,9791.000000,44840.000000
11509.000000,18217.000000,9814.000000,44855.000000
11523.000000,18245.000000,9842.000000,44887.000000
11541.000000,18228.000000,9875.000000,44871.000000
11608.000000,18237.000000,9887.000000,44873.000000
11619.000000,18256.000000,9894.000000,44893.000000
11598.000000,18325.000000,9900.000000,44884.000000
11633.000000,18263.000000,9909.000000,44889.000000
11619.000000,18264.000000,9914.000000,44866.000000
11634.000000,18291.000000,9902.000000,44872.000000
11602.000000,18285.000000,9882.000000,44885.000000
11604.000000,18235.000000,9854.000000,44893.000000
11574.000000,18243.000000,9852.000000,44858.000000
11585.000000,18271.000000,9871.000000,44882.000000
11613.000000,18243.000000,9853.000000,44895.000000
11573.000000,18237.000000,9837.000000,44871.000000
11568.000000,18205.000000,9809.000000,44813.000000
11580.000000,18218.000000,9821.000000,44844.000000
11604.000000,18241.000000,9857.000000,44861.000000
11564.000000,18244.000000,9814.000000,44859.000000
11503.000000,18202.000000,9779.000000,44815.000000
11536.000000,18211.000000,9813.000000,44824.000000
11532.000000,18195.000000,9775.000000,44815.000000
11533.000000,18207.000000,9770.000000,44846.000000
11536.000000,18191.000000,9805.000000,44864.000000
11532.000000,18192.000000,9768.000000,44822.000000
11529.000000,18219.000000,9787.000000,44831.000000
11538.000000,18179.000000,9782.000000,44841.000000
11517.000000,18196.000000,9742.000000,44824.000000
11546.000000,18181.000000,9741.000000,44820.000000
11514.000000,18177.000000,9725.000000,44804.000000
11506.000000,18179.000000,9749.000000,44827.000000
11524.000000,18149.000000,9716.000000,44828.000000
11500.000000,18168.000000,9715.000000,44807.000000
11532.000000,18187.000000,9755.000000,44791.000000
11483.000000,18153.000000,9713.000000,44801.000000
11495.000000,18093.000000,9694.000000,44813.000000
11477.000000,18111.000000,9707.000000,44822.000000
11481.000000,18121.000000,9675.000000,44786.000000
11453.000000,18097.000000,9673.000000,44763.000000
11463.000000,18129.000000,9680.000000,44820.000000
11456.000000,18095.000000,9632.000000,44787.000000
11426.000000,18084.000000,9634.000000,44790.000000
11408.000000,18106.000000,9628.000000,44752.000000
11412.000000,18061.000000,9593.000000,44717.000000
11403.000000,18050.000000,9621.000000,44746.000000
11379.000000,18050.000000,9596.000000,44726.000000
11372.000000,18080.000000,9548.000000,44732.000000
11364.000000,18021.000000,9572.000000,44709.000000
11318.000000,18012.000000,9546.000000,44737.000000
11366.000000,18037.000000,9525.000000,44749.000000
11332.000000,18001.000000,9496.000000,44712.000000
11301.000000,17988.000000,9518.000000,44696.000000
11312.000000,17967.000000,9485.000000,44708.000000
11299.000000,17968.000000,9501.000000,44702.000000
11310.000000,17984.000000,9464.000000,44713.000000
11288.000000,17975.000000,9472.000000,44688.000000
11257.000000,17972.000000,9435.000000,44706.000000
11250.000000,17932.000000,9423.000000,44684.000000
11257.000000,17930.000000,9413.000000,44683.000000
11216.000000,17865.000000,9397.000000,44646.000000
11205.000000,17921.000000,9385.000000,44650.000000
11201.000000,17920.000000,9383.000000,44665.000000
11176.000000,17884.000000,9348.000000,44621.000000
11132.000000,17873.000000,9328.000000,44623.000000
11154.000000,17828.000000,9302.000000,44614.000000
11123.000000,17840.000000,9313.000000,44589.000000
11083.000000,17864.000000,9317.000000,44609.000000
11078.000000,17833.000000,9310.000000,44608.000000
11067.000000,17828.000000,9255.000000,44589.000000
11056.000000,17799.000000,9259.000000,44586.000000
11084.000000,17791.000000,9249.000000,44604.000000
11047.000000,17776.000000,9195.000000,44553.000000
10973.000000,17763.000000,9190.000000,44569.000000
10984.000000,17743.000000,9166.000000,44532.000000
10985.000000,17683.000000,9168.000000,44541.000000
10970.000000,17727.000000,9135.000000,44573.000000
10915.000000,17675.000000,9161.000000,44543.000000
10903.000000,17672.000000,9082.000000,44507.000000
10904.000000,17672.000000,9053.000000,44509.000000
10864.000000,17646.000000,9013.000000,44490.000000
10818.000000,17611.000000,9048.000000,44495.000000
10816.000000,17613.000000,8963.000000,44470.000000
10776.000000,17547.000000,8940.000000,44422.000000
10755.000000,17567.000000,8961.000000,44420.000000
10709.000000,17510.000000,8892.000000,44384.000000
10684.000000,17495.000000,8866.000000,44395.000000
10611.000000,17463.000000,8819.000000,44379.000000
10608.000000,17414.000000,8795.000000,44345.000000
10561.000000,17380.000000,8750.000000,44339.000000
10538.000000,17367.000000,8710.000000,44320.000000
10501.000000,17336.000000,8720.000000,44320.000000
10481.000000,17363.000000,8692.000000,44299.000000
10476.000000,17287.000000,8634.000000,44275.000000
10384.000000,17263.000000,8605.000000,44254.000000
10421.000000,17293.000000,8605.000000,44248.000000
10345.000000,17267.000000,8564.000000,44231.000000
10351.000000,17211.000000,8568.000000,44227.000000
10355.000000,17235.000000,8528.000000,44238.000000
10354.000000,17240.000000,8554.000000,44233.000000
10313.000000,17191.000000,8496.000000,44214.000000
10293.000000,17207.000000,8480.000000,44208.000000
10302.000000,17203.000000,8517.000000,44213.000000
10339.000000,17185.000000,8520.000000,44206.000000
10287.000000,17185.000000,8486.000000,44188.000000
10369.000000,17190.000000,8571.000000,44236.000000
10332.000000,17220.000000,8525.000000,44234.000000
10332.000000,17196.000000,8500.000000,44225.000000
10322.000000,17209.000000,8560.000000,44216.000000
10324.000000,17229.000000,8564.000000,44267.000000
10338.000000,17211.000000,8539.000000,44253.000000
10357.000000,17241.000000,8562.000000,44259.000000
10355.000000,17285.000000,8621.000000,44266.000000
10399.000000,17247.000000,8614.000000,44250.000000
10383.000000,17219.000000,8623.000000,44284.000000
10431.000000,17320.000000,8665.000000,44277.000000
10479.000000,17295.000000,8673.000000,44319.000000
10486.000000,17321.000000,8732.000000,44309.000000
10525.000000,17321.000000,8752.000000,44368.000000
10556.000000,17395.000000,8759.000000,44319.000000
10601.000000,17429.000000,8828.000000,44369.000000
10631.000000,17434.000000,8850.000000,44381.000000
10685.000000,17515.000000,8899.000000,44424.000000
10711.000000,17520.000000,8955.000000,44436.000000
10772.000000,17555.000000,8996.000000,44451.000000
10820.000000,17631.000000,9049.000000,44504.000000
10885.000000,17619.000000,9109.000000,44515.000000
10926.000000,17719.000000,9193.000000,44519.000000
11036.000000,17770.000000,9286.000000,44590.000000
11139.000000,17857.000000,9394.000000,44658.000000
11170.000000,17909.000000,9456.000000,44684.000000
11238.000000,17942.000000,9519.000000,44692.000000
11305.000000,17979.000000,9530.000000,44712.000000
11327.000000,18042.000000,9573.000000,44746.000000
11366.000000,18076.000000,9640.000000,44764.000000
11425.000000,18136.000000,9659.000000,44808.000000
11454.000000,18095.000000,9682.000000,44777.000000
11463.000000,18121.000000,9668.000000,44742.000000
11494.000000,18136.000000,9718.000000,44788.000000
11488.000000,18155.000000,9704.000000,44783.000000
11459.000000,18130.000000,9725.000000,44803.000000
11508.000000,18142.000000,9692.000000,44827.000000
11482.000000,18151.000000,9710.000000,44822.000000
11493.000000,18153.000000,9739.000000,44775.000000
11505.000000,18151.000000,9725.000000,44813.000000
11464.000000,18141.000000,9732.000000,44803.000000
11493.000000,18157.000000,9724.000000,44783.000000
11472.000000,18148.000000,9703.000000,44811.000000
11481.000000,18159.000000,9713.000000,44804.000000
11521.000000,18169.000000,9724.000000,44785.000000
11502.000000,18140.000000,9672.000000,44805.000000
11500.000000,18139.000000,9663.000000,44821.000000
11467.000000,18121.000000,9692.000000,44787.000000
11477.000000,18159.000000,9725.000000,44783.000000
11494.000000,18106.000000,9694.000000,44810.000000
11500.000000,18168.000000,9702.000000,44773.000000
11483.000000,18141.000000,9694.000000,44795.000000
11521.000000,18136.000000,9671.000000,44782.000000
11485.000000,18136.000000,9672.000000,44790.000000
11466.000000,18142.000000,9698.000000,44738.000000
11489.000000,18125.000000,9679.000000,44771.000000
11462.000000,18188.000000,9658.000000,44789.000000
11441.000000,18111.000000,9653.000000,44794.000000
11470.000000,18099.000000,9631.000000,44761.000000
11483.000000,18113.000000,9650.000000,44760.000000
11497.000000,18129.000000,9640.000000,44774.000000
11460.000000,18071.000000,9633.000000,44765.000000
11459.000000,18119.000000,9631.000000,44767.000000
11479.000000,18111.000000,9626.000000,44750.000000
11457.000000,18124.000000,9646.000000,44725.000000
11459.000000,18140.000000,9638.000000,44777.000000
11486.000000,18108.000000,9649.000000,44769.000000
11477.000000,18110.000000,9620.000000,44770.000000
11446.000000,18135.000000,9632.000000,44778.000000
11477.000000,18107.000000,9647.000000,44747.000000
11473.000000,18104.000000,9649.000000,44725.000000
11442.000000,18095.000000,9651.000000,44757.000000
11459.000000,18089.000000,9629.000000,44757.000000
11487.000000,18120.000000,9643.000000,44761.000000
11503.000000,18122.000000,9646.000000,44743.000000
11453.000000,18102.000000,9599.000000,44756.000000
11481.000000,18131.000000,9608.000000,44769.000000
11476.000000,18116.000000,9617.000000,44769.000000
11498.000000,18146.000000,9648.000000,44763.000000
11466.000000,18133.000000,9591.000000,44754.000000
11455.000000,18079.000000,9607.000000,44734.000000
11464.000000,18132.000000,9596.000000,44740.000000
11471.000000,18051.000000,9615.000000,44742.000000
11457.000000,18114.000000,9621.000000,44762.000000
11460.000000,18062.000000,9608.000000,44744.000000
11460.000000,18108.000000,9575.000000,44741.000000
11445.000000,18077.000000,9571.000000,44728.000000
11478.000000,18086.000000,9633.000000,44767.000000
11480.000000,18069.000000,9593.000000,44728.000000
11442.000000,18056.000000,9586.000000,44722.000000
11500.000000,18104.000000,9601.000000,44749.000000
11467.000000,18095.000000,9566.000000,44745.000000
11469.000000,18082.000000,9587.000000,44740.000000
11481.000000,18074.000000,9584.000000,44751.000000
11489.000000,18091.000000,9555.000000,44729.000000
11471.000000,18065.000000,9554.000000,44741.000000
11450.000000,18096.000000,9564.000000,44733.000000
11459.000000,18051.000000,9555.000000,44734.000000
11482.000000,18060.000000,9541.000000,44738.000000
11477.000000,18050.000000,9557.000000,44741.000000
11472.000000,18055.000000,9517.000000,44730.000000
11473.000000,18003.000000,9542.000000,44724.000000
11467.000000,18043.000000,9540.000000,44714.000000
11433.000000,18059.000000,9521.000000,44716.000000
11455.000000,18022.000000,9482.000000,44700.000000
11457.000000,18035.000000,9530.000000,44753.000000
11446.000000,18027.000000,9524.000000,44722.000000
11434.000000,18025.000000,9465.000000,44718.000000
11425.000000,17982.000000,9430.000000,44688.000000
11422.000000,18008.000000,9453.000000,44697.000000
11373.000000,18007.000000,9438.000000,44736.000000
11432.000000,18015.000000,9432.000000,44703.000000
11354.000000,17969.000000,9442.000000,44696.000000
11368.000000,17976.000000,9418.000000,44677.000000
11383.000000,17958.000000,9373.000000,44677.000000
11327.000000,17946.000000,9370.000000,44686.000000
11282.000000,17907.000000,9355.000000,44690.000000
11294.000000,17949.000000,9332.000000,44670.000000
11237.000000,17922.000000,9323.000000,44643.000000
11275.000000,17915.000000,9330.000000,44659.000000
11289.000000,17894.000000,9326.000000,44625.000000
11216.000000,17864.000000,9270.000000,44620.000000
11246.000000,17848.000000,9244.000000,44635.000000
11210.000000,17815.000000,9224.000000,44598.000000
11190.000000,17799.000000,9201.000000,44601.000000
11231.000000,17786.000000,9211.000000,44620.000000
11168.000000,17801.000000,9207.000000,44606.000000
11128.000000,17751.000000,9178.000000,44587.000000
11134.000000,17755.000000,9130.000000,44562.000000
11107.000000,17703.000000,9096.000000,44523.000000
11083.000000,17752.000000,9092.000000,44531.000000
11043.000000,17675.000000,9078.000000,44532.000000
11036.000000,17684.000000,9028.000000,44527.000000
10996.000000,17653.000000,8990.000000,44469.000000
10971.000000,17644.000000,9005.000000,44496.000000
10976.000000,17639.000000,8923.000000,44475.000000
10914.000000,17571.000000,8919.000000,44465.000000
10852.000000,17506.000000,8862.000000,44423.000000
10845.000000,17482.000000,8822.000000,44420.000000
10819.000000,17477.000000,8821.000000,44397.000000
10793.000000,17458.000000,8703.000000,44381.000000
10717.000000,17418.000000,8731.000000,44338.000000
10640.000000,17368.000000,8658.000000,44331.000000
10624.000000,17340.000000,8607.000000,44312.000000
10625.000000,17323.000000,8617.000000,44321.000000
10608.000000,17299.000000,8539.000000,44277.000000
10564.000000,17276.000000,8523.000000,44248.000000
10518.000000,17227.000000,8486.000000,44234.000000
10505.000000,17195.000000,8447.000000,44231.000000
10498.000000,17195.000000,8457.000000,44241.000000
10451.000000,17203.000000,8423.000000,44222.000000
10453.000000,17133.000000,8412.000000,44195.000000
10408.000000,17155.000000,8393.000000,44223.000000
10419.000000,17113.000000,8371.000000,44222.000000
10413.000000,17131.000000,8330.000000,44151.000000
10380.000000,17107.000000,8354.000000,44169.000000
10402.000000,17109.000000,8359.000000,44179.000000
10391.000000,17120.000000,8347.000000,44148.000000
10398.000000,17073.000000,8332.000000,44161.000000
10370.000000,17074.000000,8314.000000,44181.000000
10393.000000,17121.000000,8325.000000,44150.000000
10425.000000,17127.000000,8359.000000,44226.000000
10395.000000,17130.000000,8328.000000,44189.000000
10398.000000,17073.000000,8349.000000,44227.000000
10433.000000,17123.000000,8376.000000,44196.000000
10395.000000,17135.000000,8421.000000,44215.000000
10488.000000,17162.000000,8441.000000,44231.000000
10463.000000,17192.000000,8413.000000,44239.000000
10476.000000,17160.000000,8471.000000,44251.000000
10524.000000,17197.000000,8474.000000,44233.000000
10530.000000,17219.000000,8496.000000,44250.000000
10558.000000,17259.000000,8547.000000,44273.000000
10619.000000,17279.000000,8576.000000,44311.000000
10664.000000,17308.000000,8606.000000,44295.000000
10664.000000,17341.000000,8635.000000,44316.000000
10816.000000,17431.000000,8786.000000,44392.000000
10827.000000,17478.000000,8828.000000,44444.000000
10892.000000,17491.000000,8882.000000,44474.000000
10952.000000,17558.000000,8962.000000,44474.000000
11032.000000,17599.000000,8990.000000,44463.000000
11113.000000,17655.000000,9059.000000,44546.000000
11138.000000,17740.000000,9152.000000,44590.000000
11233.000000,17775.000000,9241.000000,44647.000000
11305.000000,17837.000000,9304.000000,44629.000000
11374.000000,17867.000000,9373.000000,44670.000000
11429.000000,17978.000000,9435.000000,44687.000000
11495.000000,17964.000000,9453.000000,44712.000000
11521.000000,18031.000000,9522.000000,44728.000000
11549.000000,18023.000000,9536.000000,44785.000000
11582.000000,18077.000000,9561.000000,44751.000000
11619.000000,18099.000000,9564.000000,44786.000000
11619.000000,18098.000000,9604.000000,44803.000000
11646.000000,18133.000000,9594.000000,44811.000000
11667.000000,18119.000000,9596.000000,44839.000000
11666.000000,18093.000000,9579.000000,44775.000000
11663.000000,18117.000000,9605.000000,44775.000000
11682.000000,18131.000000,9604.000000,44794.000000
11658.000000,18119.000000,9629.000000,44779.000000
11672.000000,18149.000000,9626.000000,44801.000000
11672.000000,18145.000000,9605.000000,44797.000000
11670.000000,18141.000000,9614.000000,44785.000000
11675.000000,18151.000000,9593.000000,44779.000000
11676.000000,18142.000000,9568.000000,44781.000000
11670.000000,18104.000000,9624.000000,44793.000000
11660.000000,18124.000000,9589.000000,44775.000000
11671.000000,18110.000000,9563.000000,44777.000000
11679.000000,18149.000000,9607.000000,44809.000000
11696.000000,18103.000000,9582.000000,44796.000000
11688.000000,18059.000000,9552.000000,44764.000000
11672.000000,18108.000000,9581.000000,44777.000000
11669.000000,18122.000000,9553.000000,44774.000000
11650.000000,18111.000000,9576.000000,44799.000000
11666.000000,18063.000000,9560.000000,44764.000000
11620.000000,18084.000000,9554.000000,44757.000000
11656.000000,18112.000000,9559.000000,44761.000000
11647.000000,18071.000000,9549.000000,44765.000000
11635.000000,18087.000000,9520.000000,44745.000000
11647.000000,18085.000000,9548.000000,44741.000000
11636.000000,18067.000000,9540.000000,44757.000000
11644.000000,18335.000000,9525.000000,44747.000000
11597.000000,18091.000000,9568.000000,44792.000000
11665.000000,18071.000000,9517.000000,44764.000000
11650.000000,18092.000000,9543.000000,44771.000000
11649.000000,18054.000000,9545.000000,44755.000000
11643.000000,18047.000000,9541.000000,44744.000000
11644.000000,18099.000000,9498.000000,44732.000000
11621.000000,18070.000000,9503.000000,44735.000000
11614.000000,18057.000000,9503.000000,44775.000000
11629.000000,18315.000000,9476.000000,44758.000000
11651.000000,18110.000000,9510.000000,44730.000000
11651.000000,18070.000000,9474.000000,44740.000000
11575.000000,18076.000000,9495.000000,44725.000000
11640.000000,18078.000000,9524.000000,44743.000000
11645.000000,18087.000000,9502.000000,44785.000000
11621.000000,18028.000000,9489.000000,44738.000000
11666.000000,18075.000000,9481.000000,44725.000000
11593.000000,18065.000000,9497.000000,44743.000000
11603.000000,18057.000000,9480.000000,44766.000000
11633.000000,18044.000000,9467.000000,44720.000000
11625.000000,18050.000000,9463.000000,44714.000000
11645.000000,18048.000000,9450.000000,44772.000000
11599.000000,18026.000000,9435.000000,44735.000000
11597.000000,18020.000000,9445.000000,44734.000000
11602.000000,18014.000000,9437.000000,44740.000000
11597.000000,18050.000000,9474.000000,44732.000000
11597.000000,18043.000000,9440.000000,44720.000000
11598.000000,18015.000000,9437.000000,44728.000000
11594.000000,18019.000000,9416.000000,44700.000000
11554.000000,18022.000000,9434.000000,44720.000000
11586.000000,18021.000000,9416.000000,44726.000000
11572.000000,17980.000000,9419.000000,44709.000000
11558.000000,18012.000000,9405.000000,44681.000000
11584.000000,17966.000000,9433.000000,44696.000000
11561.000000,17976.000000,9390.000000,44725.000000
11545.000000,17999.000000,9411.000000,44698.000000
11557.000000,17976.000000,9387.000000,44699.000000
11543.000000,17961.000000,9394.000000,44671.000000
11530.000000,18268.000000,9394.000000,44704.000000
11531.000000,17972.000000,9400.000000,44702.000000
11521.000000,18000.000000,9389.000000,44711.000000
11566.000000,17964.000000,9371.000000,44694.000000
11517.000000,17960.000000,9342.000000,44702.000000
11545.000000,17984.000000,9347.000000,44666.000000
11534.000000,17972.000000,9363.000000,44666.000000
11521.000000,17941.000000,9336.000000,44682.000000
11492.000000,17942.000000,9321.000000,44658.000000
11506.000000,17944.000000,9314.000000,44672.000000
11482.000000,17947.000000,9320.000000,44678.000000
11440.000000,17903.000000,9315.000000,44643.000000
11493.000000,17912.000000,9280.000000,44666.000000
11458.000000,17933.000000,9282.000000,44642.000000
11470.000000,17925.000000,9306.000000,44694.000000
11439.000000,17918.000000,9284.000000,44633.000000
11451.000000,17907.000000,9294.000000,44620.000000
11443.000000,17932.000000,9292.000000,44651.000000
11388.000000,17891.000000,9254.000000,44663.000000
11368.000000,17892.000000,9247.000000,44650.000000
11385.000000,17867.000000,9257.000000,44656.000000
11357.000000,17833.000000,9230.000000,44637.000000
11385.000000,17849.000000,9207.000000,44602.000000
11377.000000,17841.000000,9208.000000,44603.000000
11342.000000,17855.000000,9152.000000,44595.000000
11363.000000,17816.000000,9156.000000,44570.000000
11308.000000,17843.000000,9127.000000,44576.000000
11295.000000,17813.000000,9114.000000,44595.000000
11271.000000,17787.000000,9090.000000,44590.000000
11295.000000,17747.000000,9066.000000,44546.000000
11219.000000,17709.000000,9060.000000,44543.000000
11243.000000,17685.000000,8994.000000,44524.000000
11206.000000,17705.000000,8990.000000,44528.000000
11167.000000,17635.000000,8918.000000,44479.000000
11153.000000,17644.000000,8875.000000,44485.000000
11111.000000,17635.000000,8884.000000,44486.000000
11108.000000,17600.000000,8837.000000,44468.000000
11100.000000,17565.000000,8803.000000,44441.000000
11035.000000,17530.000000,8767.000000,44390.000000
11016.000000,17504.000000,8735.000000,44386.000000
10985.000000,17478.000000,8686.000000,44391.000000
10929.000000,17430.000000,8659.000000,44384.000000
10883.000000,17399.000000,8635.000000,44336.000000
10813.000000,17401.000000,8575.000000,44327.000000
10826.000000,17351.000000,8527.000000,44288.000000
10787.000000,17339.000000,8554.000000,44311.000000
10762.000000,17281.000000,8488.000000,44255.000000
10720.000000,17264.000000,8423.000000,44273.000000
10701.000000,17259.000000,8408.000000,44269.000000
10681.000000,17226.000000,8393.000000,44218.000000
10658.000000,17196.000000,8364.000000,44214.000000
10647.000000,17224.000000,8341.000000,44189.000000
10623.000000,17175.000000,8327.000000,44231.000000
10644.000000,17163.000000,8311.000000,44229.000000
10619.000000,17134.000000,8311.000000,44176.000000
10584.000000,17129.000000,8285.000000,44207.000000
10614.000000,17146.000000,8283.000000,44195.000000
10597.000000,17151.000000,8320.000000,44229.000000
10609.000000,17116.000000,8285.000000,44184.000000
10604.000000,17130.000000,8279.000000,44169.000000
10597.000000,17111.000000,8280.000000,44206.000000
10661.000000,17199.000000,8321.000000,44225.000000
10641.000000,17152.000000,8351.000000,44212.000000
10639.000000,17159.000000,8332.000000,44208.000000
10639.000000,17139.000000,8374.000000,44205.000000
10685.000000,17151.000000,8342.000000,44219.000000
10691.000000,17171.000000,8351.000000,44254.000000
10701.000000,17183.000000,8381.000000,44249.000000
10748.000000,17191.000000,8397.000000,44270.000000
10738.000000,17235.000000,8430.000000,44246.000000
10774.000000,17239.000000,8443.000000,44260.000000
10788.000000,17259.000000,8505.000000,44314.000000
10805.000000,17296.000000,8512.000000,44317.000000
10840.000000,17336.000000,8537.000000,44336.000000
10913.000000,17343.000000,8602.000000,44351.000000
10969.000000,17385.000000,8661.000000,44379.000000
10985.000000,17389.000000,8674.000000,44368.000000
11043.000000,17440.000000,8711.000000,44427.000000
11101.000000,17481.000000,8746.000000,44433.000000
11156.000000,17526.000000,8844.000000,44509.000000
11230.000000,17602.000000,8919.000000,44546.000000
11294.000000,17668.000000,8973.000000,44567.000000
11502.000000,17841.000000,9175.000000,44643.000000
11542.000000,17843.000000,9229.000000,44681.000000
11616.000000,17897.000000,9288.000000,44701.000000
11722.000000,18021.000000,9412.000000,44754.000000
11824.000000,18039.000000,9491.000000,44794.000000
11872.000000,18123.000000,9559.000000,44817.000000
11904.000000,18195.000000,9596.000000,44875.000000
11997.000000,18191.000000,9691.000000,44908.000000
12028.000000,18251.000000,9698.000000,44932.000000
12088.000000,18289.000000,9735.000000,44917.000000
12124.000000,18333.000000,9750.000000,44941.000000
12119.000000,18331.000000,9767.000000,44942.000000
12173.000000,18357.000000,9768.000000,44987.000000
12124.000000,18336.000000,9804.000000,44966.000000
12140.000000,18335.000000,9800.000000,44954.000000
12132.000000,18341.000000,9774.000000,44942.000000
12169.000000,18334.000000,9803.000000,44943.000000
12174.000000,18359.000000,9803.000000,44947.000000
12133.000000,18319.000000,9766.000000,44966.000000
12156.000000,18344.000000,9782.000000,44907.000000
12165.000000,18311.000000,9773.000000,44966.000000
12144.000000,18327.000000,9755.000000,44942.000000
12116.000000,18328.000000,9783.000000,44926.000000
12127.000000,18313.000000,9757.000000,44915.000000
12118.000000,18296.000000,9757.000000,44935.000000
12148.000000,18300.000000,9757.000000,44915.000000
12102.000000,18287.000000,9736.000000,44910.000000
12094.000000,18319.000000,9744.000000,44920.000000
12118.000000,18303.000000,9742.000000,44929.000000
12133.000000,18317.000000,9737.000000,44925.000000
12145.000000,18261.000000,9758.000000,44918.000000
12093.000000,18327.000000,9739.000000,44916.000000
12103.000000,18288.000000,9723.000000,44909.000000
12093.000000,18299.000000,9729.000000,44931.000000
12115.000000,18263.000000,9702.000000,44906.000000
12116.000000,18247.000000,9722.000000,44904.000000
12091.000000,18260.000000,9690.000000,44899.000000
12082.000000,18263.000000,9710.000000,44920.000000
12081.000000,18284.000000,9711.000000,44927.000000
12066.000000,18323.000000,9705.000000,44904.000000
12075.000000,18264.000000,9737.000000,44925.000000
12042.000000,18272.000000,9711.000000,44903.000000
12051.000000,18223.000000,9701.000000,44872.000000
12068.000000,18247.000000,9671.000000,44883.000000
12083.000000,18287.000000,9684.000000,44901.000000
12079.000000,18273.000000,9682.000000,44924.000000
12070.000000,18239.000000,9655.000000,44904.000000
12046.000000,18248.000000,9654.000000,44883.000000
12048.000000,18227.000000,9678.000000,44867.000000
12076.000000,18233.000000,9648.000000,44875.000000
12050.000000,18263.000000,9668.000000,44854.000000
12019.000000,18247.000000,9651.000000,44900.000000
12042.000000,18243.000000,9599.000000,44888.000000
12051.000000,18245.000000,9652.000000,44873.000000
12073.000000,18209.000000,9655.000000,44866.000000
12083.000000,18283.000000,9654.000000,44889.000000
12086.000000,18252.000000,9658.000000,44908.000000
12057.000000,18257.000000,9626.000000,44852.000000
12051.000000,18275.000000,9593.000000,44856.000000
12073.000000,18259.000000,9640.000000,44903.000000
12057.000000,18243.000000,9631.000000,44907.000000
12068.000000,18239.000000,9629.000000,44870.000000
12058.000000,18235.000000,9614.000000,44885.000000
12020.000000,18252.000000,9595.000000,44889.000000
12017.000000,18229.000000,9599.000000,44859.000000
12283.000000,18204.000000,9600.000000,44866.000000
12038.000000,18206.000000,9597.000000,44864.000000
12018.000000,18162.000000,9585.000000,44827.000000
12030.000000,18236.000000,9558.000000,44850.000000
12016.000000,18176.000000,9553.000000,44846.000000
12017.000000,18198.000000,9564.000000,44853.000000
11982.000000,18171.000000,9534.000000,44861.000000
11996.000000,18175.000000,9554.000000,44836.000000
11975.000000,18165.000000,9562.000000,44846.000000
11995.000000,18149.000000,9523.000000,44835.000000
11942.000000,18117.000000,9508.000000,44823.000000
11950.000000,18106.000000,9479.000000,44797.000000
11923.000000,18116.000000,9487.000000,44810.000000
11915.000000,18116.000000,9498.000000,44786.000000
11921.000000,18111.000000,9426.000000,44793.000000
11863.000000,18060.000000,9367.000000,44775.000000
11912.000000,18048.000000,9396.000000,44783.000000
11869.000000,18064.000000,9370.000000,44799.000000
11843.000000,18037.000000,9360.000000,44776.000000
11807.000000,18052.000000,9348.000000,44751.000000
11823.000000,18039.000000,9336.000000,44738.000000
11829.000000,17984.000000,9321.000000,44731.000000
11793.000000,17969.000000,9309.000000,44714.000000
11734.000000,17959.000000,9227.000000,44695.000000
11754.000000,17950.000000,9252.000000,44709.000000
11711.000000,17904.000000,9209.000000,44724.000000
11732.000000,17916.000000,9196.000000,44710.000000
11712.000000,17896.000000,9149.000000,44664.000000
11689.000000,17890.000000,9147.000000,44683.000000
11637.000000,17849.000000,9125.000000,44696.000000
11635.000000,17831.000000,9137.000000,44644.000000
11616.000000,17824.000000,9099.000000,44651.000000
11577.000000,17795.000000,9053.000000,44615.000000
11565.000000,17787.000000,9051.000000,44605.000000
11562.000000,17776.000000,9005.000000,44604.000000
11552.000000,17776.000000,9004.000000,44610.000000
11544.000000,17805.000000,9005.000000,44604.000000
11499.000000,17769.000000,9006.000000,44589.000000
11491.000000,17727.000000,8946.000000,44564.000000
11489.000000,17747.000000,8941.000000,44566.000000
11458.000000,17711.000000,8905.000000,44579.000000
11456.000000,17693.000000,8912.000000,44530.000000
11403.000000,17663.000000,8894.000000,44556.000000
11428.000000,17683.000000,8871.000000,44555.000000
11370.000000,17650.000000,8847.000000,44503.000000
11395.000000,17639.000000,8811.000000,44514.000000
11345.000000,17626.000000,8831.000000,44508.000000
11332.000000,17590.000000,8767.000000,44475.000000
11274.000000,17546.000000,8737.000000,44495.000000
11253.000000,17563.000000,8704.000000,44477.000000
11269.000000,17527.000000,8673.000000,44449.000000
11258.000000,17536.000000,8711.000000,44437.000000
11182.000000,17486.000000,8651.000000,44411.000000
11166.000000,17445.000000,8604.000000,44388.000000
11135.000000,17439.000000,8582.000000,44400.000000
11133.000000,17415.000000,8516.000000,44357.000000
11063.000000,17369.000000,8546.000000,44382.000000
11029.000000,17343.000000,8507.000000,44341.000000
11036.000000,17331.000000,8463.000000,44359.000000
11005.000000,17312.000000,8472.000000,44316.000000
11003.000000,17289.000000,8453.000000,44347.000000
10976.000000,17269.000000,8417.000000,44284.000000
10959.000000,17244.000000,8382.000000,44268.000000
10928.000000,17237.000000,8385.000000,44281.000000
10934.000000,17229.000000,8390.000000,44294.000000
10891.000000,17233.000000,8370.000000,44263.000000
10863.000000,17181.000000,8336.000000,44263.000000
10887.000000,17202.000000,8315.000000,44279.000000
10912.000000,17239.000000,8334.000000,44261.000000
10893.000000,17247.000000,8367.000000,44279.000000
10882.000000,17211.000000,8331.000000,44258.000000
10882.000000,17213.000000,8340.000000,44269.000000
10886.000000,17216.000000,8320.000000,44257.000000
10875.000000,17192.000000,8357.000000,44311.000000
10900.000000,17220.000000,8363.000000,44277.000000
10870.000000,17255.000000,8365.000000,44264.000000
10907.000000,17204.000000,8351.000000,44298.000000
10927.000000,17212.000000,8378.000000,44259.000000
10961.000000,17282.000000,8382.000000,44291.000000
10955.000000,17271.000000,8419.000000,44310.000000
10992.000000,17269.000000,8449.000000,44331.000000
11021.000000,17317.000000,8447.000000,44320.000000
11010.000000,17301.000000,8434.000000,44336.000000
11044.000000,17312.000000,8508.000000,44351.000000
11063.000000,17351.000000,8509.000000,44380.000000
11091.000000,17323.000000,8553.000000,44386.000000
11113.000000,17353.000000,8556.000000,44351.000000
11166.000000,17389.000000,8594.000000,44447.000000
11200.000000,17449.000000,8639.000000,44432.000000
11247.000000,17491.000000,8712.000000,44477.000000
11303.000000,17555.000000,8741.000000,44483.000000
11376.000000,17559.000000,8817.000000,44531.000000
11423.000000,17613.000000,8872.000000,44573.000000
11454.000000,17643.000000,8915.000000,44591.000000
11525.000000,17684.000000,8960.000000,44605.000000
11676.000000,17767.000000,9043.000000,44628.000000
11728.000000,17831.000000,9150.000000,44701.000000
11783.000000,17899.000000,9227.000000,44756.000000
11835.000000,17944.000000,9284.000000,44773.000000
11946.000000,18003.000000,9343.000000,44794.000000
12028.000000,18055.000000,9455.000000,44840.000000
12118.000000,18156.000000,9576.000000,44907.000000
12187.000000,18196.000000,9591.000000,44945.000000
12257.000000,18256.000000,9679.000000,44987.000000
12308.000000,18277.000000,9678.000000,44955.000000
12343.000000,18359.000000,9750.000000,44972.000000
12416.000000,18377.000000,9818.000000,45059.000000
12406.000000,18391.000000,9802.000000,45008.000000
12440.000000,18383.000000,9847.000000,44986.000000
12443.000000,18421.000000,9828.000000,45020.000000
12467.000000,18448.000000,9859.000000,45042.000000
12465.000000,18431.000000,9825.000000,45029.000000
12471.000000,18401.000000,9810.000000,45048.000000
12443.000000,18451.000000,9841.000000,45012.000000
12450.000000,18447.000000,9825.000000,45041.000000
12461.000000,18451.000000,9846.000000,45039.000000
12451.000000,18387.000000,9831.000000,45026.000000
12456.000000,18403.000000,9854.000000,45012.000000
12436.000000,18397.000000,9806.000000,45007.000000
12429.000000,18424.000000,9804.000000,45044.000000
12414.000000,18415.000000,9787.000000,45000.000000
12401.000000,18359.000000,9772.000000,44994.000000
12370.000000,18356.000000,9766.000000,45001.000000
12377.000000,18364.000000,9784.000000,44959.000000
12388.000000,18379.000000,9791.000000,44984.000000
12395.000000,18368.000000,9764.000000,44992.000000
12387.000000,18323.000000,9746.000000,44983.000000
12357.000000,18356.000000,9751.000000,44965.000000
12392.000000,18381.000000,9754.000000,44987.000000
12371.000000,18327.000000,9768.000000,44975.000000
12366.000000,18327.000000,9757.000000,45000.000000
12357.000000,18359.000000,9732.000000,44988.000000
12402.000000,18372.000000,9719.000000,44971.000000
12377.000000,18343.000000,9764.000000,44988.000000
12369.000000,18332.000000,9725.000000,44969.000000
12354.000000,18315.000000,9733.000000,45012.000000
12341.000000,18336.000000,9694.000000,44968.000000
12341.000000,18360.000000,9724.000000,45001.000000
12381.000000,18329.000000,9737.000000,44952.000000
12340.000000,18338.000000,9694.000000,44970.000000
12335.000000,18306.000000,9704.000000,44961.000000
12336.000000,18323.000000,9710.000000,44964.000000
12363.000000,18327.000000,9755.000000,44990.000000
12334.000000,18307.000000,9692.000000,44970.000000
12292.000000,18320.000000,9696.000000,44949.000000
12355.000000,18283.000000,9690.000000,44937.000000
12344.000000,18303.000000,9718.000000,44994.000000
12336.000000,18292.000000,9654.000000,44954.000000
12325.000000,18285.000000,9681.000000,44936.000000
12354.000000,18336.000000,9665.000000,44943.000000
12309.000000,18295.000000,9660.000000,44961.000000
12320.000000,18312.000000,9654.000000,44954.000000
12344.000000,18283.000000,9662.000000,44969.000000
12316.000000,18289.000000,9634.000000,44953.000000
12299.000000,18263.000000,9637.000000,44949.000000
12289.000000,18271.000000,9609.000000,44957.000000
12308.000000,18255.000000,9610.000000,44945.000000
12263.000000,18290.000000,9602.000000,44946.000000
12281.000000,18262.000000,9615.000000,44924.000000
12274.000000,18283.000000,9566.000000,44919.000000
12293.000000,18233.000000,9585.000000,44914.000000
12262.000000,18237.000000,9559.000000,44917.000000
12267.000000,18196.000000,9563.000000,44892.000000
12256.000000,18209.000000,9550.000000,44901.000000
12243.000000,18215.000000,9557.000000,44891.000000
12231.000000,18191.000000,9549.000000,44904.000000
12204.000000,18215.000000,9522.000000,44891.000000
12208.000000,18177.000000,9487.000000,44870.000000
12195.000000,18134.000000,9471.000000,44880.000000
12198.000000,18163.000000,9451.000000,44900.000000
12168.000000,18189.000000,9455.000000,44892.000000
12115.000000,18115.000000,9435.000000,44840.000000
12117.000000,18103.000000,9391.000000,44800.000000
12091.000000,18095.000000,9382.000000,44805.000000
12082.000000,18096.000000,9387.000000,44805.000000
12068.000000,18054.000000,9328.000000,44785.000000
12039.000000,18042.000000,9280.000000,44809.000000
12049.000000,18025.000000,9303.000000,44796.000000
12017.000000,18015.000000,9303.000000,44785.000000
11994.000000,17986.000000,9278.000000,44792.000000
11959.000000,17976.000000,9243.000000,44763.000000
11951.000000,17946.000000,9229.000000,44749.000000
11941.000000,17934.000000,9208.000000,44729.000000
11926.000000,17915.000000,9178.000000,44729.000000
11895.000000,17930.000000,9175.000000,44732.000000
11857.000000,17909.000000,9153.000000,44706.000000
11838.000000,17861.000000,9087.000000,44683.000000
11834.000000,17900.000000,9074.000000,44695.000000
11815.000000,17843.000000,9114.000000,44689.000000
11786.000000,17845.000000,9069.000000,44630.000000
11785.000000,17812.000000,9046.000000,44661.000000
11780.000000,17831.000000,9028.000000,44652.000000
11730.000000,17807.000000,9000.000000,44660.000000
11739.000000,17791.000000,9018.000000,44654.000000
11709.000000,17735.000000,9001.000000,44648.000000
11720.000000,17744.000000,8964.000000,44606.000000
11681.000000,17760.000000,8926.000000,44590.000000
11676.000000,17756.000000,8940.000000,44630.000000
11667.000000,17709.000000,8911.000000,44620.000000
11597.000000,17715.000000,8866.000000,44586.000000
11623.000000,17728.000000,8918.000000,44590.000000
11627.000000,17708.000000,8863.000000,44610.000000
11594.000000,17652.000000,8833.000000,44532.000000
11581.000000,17634.000000,8809.000000,44554.000000
11557.000000,17636.000000,8792.000000,44552.000000
11545.000000,17662.000000,8809.000000,44548.000000
11511.000000,17592.000000,8756.000000,44547.000000
11480.000000,17588.000000,8716.000000,44524.000000
11447.000000,17559.000000,8718.000000,44477.000000
11434.000000,17545.000000,8701.000000,44504.000000
11428.000000,17501.000000,8692.000000,44491.000000
11367.000000,17494.000000,8605.000000,44474.000000
11376.000000,17463.000000,8618.000000,44428.000000
11338.000000,17479.000000,8630.000000,44436.000000
11270.000000,17414.000000,8542.000000,44435.000000
11266.000000,17432.000000,8471.000000,44381.000000
11274.000000,17393.000000,8473.000000,44376.000000
11235.000000,17390.000000,8479.000000,44376.000000
11219.000000,17357.000000,8439.000000,44379.000000
11146.000000,17305.000000,8421.000000,44355.000000
11159.000000,17287.000000,8395.000000,44319.000000
11091.000000,17263.000000,8358.000000,44300.000000
11110.000000,17245.000000,8321.000000,44325.000000
11075.000000,17219.000000,8324.000000,44282.000000
11053.000000,17200.000000,8272.000000,44296.000000
11051.000000,17217.000000,8327.000000,44279.000000
10980.000000,17176.000000,8237.000000,44280.000000
10966.000000,17185.000000,8205.000000,44245.000000
10981.000000,17146.000000,8273.000000,44265.000000
10986.000000,17181.000000,8245.000000,44263.000000
11020.000000,17175.000000,8252.000000,44234.000000
10965.000000,17162.000000,8245.000000,44251.000000
11016.000000,17152.000000,8240.000000,44261.000000
11016.000000,17173.000000,8241.000000,44274.000000
11018.000000,17175.000000,8252.000000,44222.000000
11018.000000,17163.000000,8272.000000,44269.000000
11028.000000,17140.000000,8252.000000,44284.000000
11041.000000,17215.000000,8302.000000,44298.000000
11043.000000,17187.000000,8287.000000,44303.000000
11056.000000,17195.000000,8312.000000,44295.000000
11074.000000,17217.000000,8320.000000,44286.000000
11073.000000,17223.000000,8338.000000,44322.000000
11094.000000,17234.000000,8374.000000,44315.000000
11118.000000,17245.000000,8380.000000,44328.000000
11148.000000,17293.000000,8423.000000,44357.000000
11201.000000,17277.000000,8414.000000,44353.000000
11231.000000,17313.000000,8448.000000,44364.000000
11254.000000,17323.000000,8491.000000,44439.000000
11289.000000,17393.000000,8571.000000,44395.000000
11354.000000,17415.000000,8603.000000,44471.000000
11394.000000,17442.000000,8652.000000,44493.000000
11488.000000,17480.000000,8687.000000,44488.000000
11502.000000,17555.000000,8746.000000,44554.000000
11595.000000,17596.000000,8855.000000,44582.000000
11655.000000,17652.000000,8898.000000,44596.000000
11740.000000,17680.000000,8949.000000,44656.000000
11797.000000,17781.000000,9039.000000,44678.000000
11882.000000,17807.000000,9116.000000,44734.000000
11957.000000,17895.000000,9221.000000,44778.000000
12032.000000,17984.000000,9251.000000,44788.000000
12093.000000,18018.000000,9347.000000,44828.000000
12230.000000,18099.000000,9464.000000,44864.000000
12303.000000,18197.000000,9562.000000,44957.000000
12352.000000,18260.000000,9610.000000,44933.000000
12427.000000,18272.000000,9669.000000,44982.000000
12455.000000,18275.000000,9698.000000,44965.000000
12493.000000,18325.000000,9739.000000,44982.000000
12559.000000,18338.000000,9744.000000,45030.000000
12555.000000,18411.000000,9765.000000,45033.000000
12546.000000,18351.000000,9746.000000,45035.000000
12548.000000,18403.000000,9766.000000,45007.000000
12540.000000,18367.000000,9745.000000,45028.000000
12519.000000,18353.000000,9774.000000,44991.000000
12524.000000,18371.000000,9750.000000,45041.000000
12532.000000,18329.000000,9776.000000,45029.000000
12502.000000,18373.000000,9725.000000,45008.000000
12519.000000,18355.000000,9745.000000,45015.000000
12522.000000,18367.000000,9731.000000,45004.000000
12508.000000,18369.000000,9758.000000,44983.000000
12519.000000,18344.000000,9714.000000,44977.000000
12515.000000,18332.000000,9742.000000,45008.000000
12489.000000,18331.000000,9715.000000,44974.000000
12495.000000,18304.000000,9705.000000,44991.000000
12503.000000,18353.000000,9704.000000,44965.000000
12513.000000,18292.000000,9700.000000,44966.000000
12482.000000,18291.000000,9712.000000,44975.000000
12467.000000,18344.000000,9692.000000,44983.000000
12425.000000,18303.000000,9678.000000,44956.000000
12421.000000,18282.000000,9647.000000,44928.000000
12454.000000,18287.000000,9688.000000,44975.000000
12494.000000,18303.000000,9641.000000,44969.000000
12458.000000,18270.000000,9653.000000,44968.000000
12426.000000,18281.000000,9632.000000,44973.000000
12391.000000,18279.000000,9646.000000,44954.000000
12420.000000,18260.000000,9643.000000,44981.000000
12417.000000,18284.000000,9610.000000,44956.000000
12434.000000,18249.000000,9619.000000,44915.000000
12433.000000,18271.000000,9670.000000,44957.000000
12395.000000,18255.000000,9607.000000,44953.000000
12389.000000,18276.000000,9617.000000,44937.000000
12416.000000,18252.000000,9613.000000,44911.000000
12417.000000,18244.000000,9629.000000,44939.000000
12383.000000,18239.000000,9608.000000,44945.000000
12398.000000,18281.000000,9612.000000,44963.000000
12401.000000,18233.000000,9578.000000,44920.000000
12402.000000,18256.000000,9549.000000,44954.000000
12386.000000,18197.000000,9596.000000,44916.000000
12398.000000,18247.000000,9548.000000,44932.000000
12387.000000,18207.000000,9540.000000,44950.000000
12373.000000,18207.000000,9560.000000,44931.000000
12375.000000,18200.000000,9555.000000,44901.000000
12362.000000,18227.000000,9568.000000,44924.000000
12339.000000,18197.000000,9566.000000,44895.000000
12352.000000,18195.000000,9508.000000,44907.000000
12361.000000,18181.000000,9518.000000,44885.000000
12348.000000,18195.000000,9534.000000,44887.000000
12370.000000,18224.000000,9518.000000,44900.000000
12310.000000,18182.000000,9491.000000,44884.000000
12358.000000,18163.000000,9495.000000,44885.000000
12352.000000,18159.000000,9474.000000,44879.000000
12337.000000,18196.000000,9513.000000,44883.000000
12334.000000,18172.000000,9497.000000,44869.000000
12271.000000,18159.000000,9450.000000,44851.000000
12289.000000,18132.000000,9442.000000,44855.000000
12275.000000,18141.000000,9447.000000,44885.000000
12249.000000,18125.000000,9454.000000,44868.000000
12258.000000,18101.000000,9441.000000,44851.000000
12232.000000,18145.000000,9434.000000,44851.000000
12253.000000,18099.000000,9389.000000,44854.000000
12234.000000,18059.000000,9414.000000,44818.000000
12205.000000,18078.000000,9370.000000,44834.000000
12205.000000,18076.000000,9345.000000,44831.000000
12209.000000,18046.000000,9339.000000,44797.000000
12173.000000,18002.000000,9343.000000,44794.000000
12164.000000,18039.000000,9301.000000,44782.000000
12137.000000,18000.000000,9284.000000,44778.000000
12132.000000,18020.000000,9258.000000,44761.000000
12123.000000,17997.000000,9261.000000,44788.000000
12137.000000,17992.000000,9264.000000,44789.000000
12094.000000,17935.000000,9209.000000,44727.000000
12064.000000,17940.000000,9192.000000,44752.000000
12066.000000,17916.000000,9179.000000,44755.000000
12042.000000,17934.000000,9154.000000,44719.000000
12012.000000,17896.000000,9137.000000,44678.000000
11962.000000,17895.000000,9095.000000,44681.000000
11991.000000,17864.000000,9109.000000,44719.000000
11950.000000,17843.000000,9073.000000,44688.000000
12164.000000,17817.000000,9058.000000,44937.000000
11910.000000,17815.000000,9017.000000,44663.000000
11899.000000,17798.000000,9007.000000,44649.000000
11906.000000,17820.000000,9000.000000,44646.000000
11827.000000,17762.000000,8951.000000,44629.000000
11816.000000,17721.000000,8929.000000,44621.000000
11805.000000,17764.000000,8916.000000,44597.000000
11779.000000,17699.000000,8941.000000,44610.000000
11781.000000,17713.000000,8916.000000,44566.000000
11775.000000,17671.000000,8871.000000,44560.000000
11732.000000,17676.000000,8867.000000,44571.000000
11749.000000,17640.000000,8834.000000,44581.000000
11745.000000,17646.000000,8813.000000,44543.000000
11707.000000,17658.000000,8781.000000,44550.000000
11677.000000,17601.000000,8753.000000,44545.000000
11635.000000,17615.000000,8732.000000,44528.000000
11622.000000,17597.000000,8718.000000,44511.000000
11613.000000,17527.000000,8706.000000,44492.000000
11582.000000,17536.000000,8679.000000,44518.000000
11560.000000,17517.000000,8644.000000,44464.000000
11526.000000,17481.000000,8613.000000,44460.000000
11531.000000,17461.000000,8583.000000,44424.000000
11496.000000,17437.000000,8561.000000,44451.000000
11449.000000,17416.000000,8540.000000,44427.000000
11430.000000,17409.000000,8465.000000,44400.000000
11401.000000,17387.000000,8487.000000,44391.000000
11366.000000,17383.000000,8443.000000,44396.000000
11366.000000,17337.000000,8430.000000,44364.000000
11371.000000,17320.000000,8404.000000,44367.000000
11278.000000,17269.000000,8392.000000,44305.000000
11264.000000,17251.000000,8327.000000,44309.000000
11245.000000,17228.000000,8314.000000,44305.000000
11227.000000,17228.000000,8274.000000,44272.000000
11223.000000,17207.000000,8245.000000,44303.000000
11193.000000,17159.000000,8249.000000,44291.000000
11171.000000,17171.000000,8223.000000,44268.000000
11149.000000,17192.000000,8180.000000,44265.000000
11112.000000,17125.000000,8192.000000,44243.000000
11126.000000,17143.000000,8202.000000,44239.000000
11123.000000,17134.000000,8181.000000,44224.000000
11124.000000,17114.000000,8191.000000,44249.000000
11096.000000,17093.000000,8148.000000,44256.000000
11094.000000,17109.000000,8191.000000,44216.000000
11115.000000,17093.000000,8187.000000,44277.000000
11129.000000,17090.000000,8204.000000,44260.000000
11138.000000,17167.000000,8221.000000,44239.000000
11155.000000,17109.000000,8176.000000,44249.000000
11128.000000,17149.000000,8191.000000,44278.000000
11157.000000,17151.000000,8234.000000,44295.000000
11185.000000,17135.000000,8227.000000,44292.000000
11197.000000,17184.000000,8234.000000,44307.000000
11211.000000,17160.000000,8258.000000,44295.000000
11275.000000,17187.000000,8329.000000,44309.000000
11235.000000,17232.000000,8333.000000,44357.000000
11265.000000,17227.000000,8351.000000,44379.000000
11279.000000,17239.000000,8398.000000,44333.000000
11284.000000,17277.000000,8388.000000,44356.000000
11363.000000,17299.000000,8438.000000,44424.000000
11371.000000,17348.000000,8468.000000,44428.000000
11412.000000,17360.000000,8525.000000,44416.000000
11472.000000,17377.000000,8555.000000,44451.000000
11505.000000,17417.000000,8632.000000,44497.000000
11577.000000,17472.000000,8698.000000,44508.000000
11623.000000,17504.000000,8715.000000,44568.000000
11712.000000,17587.000000,8828.000000,44590.000000
11752.000000,17617.000000,8872.000000,44607.000000
11806.000000,17681.000000,8919.000000,44633.000000
11910.000000,17716.000000,9000.000000,44661.000000
11979.000000,17786.000000,9070.000000,44701.000000
12030.000000,17839.000000,9172.000000,44740.000000
12141.000000,17923.000000,9237.000000,44780.000000
12230.000000,18019.000000,9353.000000,44848.000000
12323.000000,18075.000000,9396.000000,44839.000000
12389.000000,18106.000000,9467.000000,44920.000000
12423.000000,18140.000000,9533.000000,44930.000000
12482.000000,18180.000000,9610.000000,44971.000000
12498.000000,18216.000000,9585.000000,44963.000000
12521.000000,18265.000000,9628.000000,44943.000000
12569.000000,18264.000000,9650.000000,44999.000000
12542.000000,18256.000000,9635.000000,44973.000000
12552.000000,18260.000000,9655.000000,44986.000000
12540.000000,18280.000000,9621.000000,44979.000000
12582.000000,18283.000000,9643.000000,44945.000000
12596.000000,18268.000000,9654.000000,44972.000000
12598.000000,18295.000000,9667.000000,45004.000000
12571.000000,18255.000000,9608.000000,44956.000000
12551.000000,18260.000000,9626.000000,44995.000000
12582.000000,18275.000000,9615.000000,44975.000000
12545.000000,18265.000000,9645.000000,44975.000000
12563.000000,18243.000000,9607.000000,44988.000000
12555.000000,18257.000000,9631.000000,44965.000000
12525.000000,18264.000000,9582.000000,44964.000000
12534.000000,18240.000000,9579.000000,44967.000000
12558.000000,18269.000000,9643.000000,44963.000000
12550.000000,18247.000000,9625.000000,44986.000000
12571.000000,18264.000000,9606.000000,44970.000000
12545.000000,18267.000000,9595.000000,44918.000000
12539.000000,18215.000000,9587.000000,44967.000000
12532.000000,18241.000000,9637.000000,44969.000000
12555.000000,18289.000000,9608.000000,44955.000000
12542.000000,18261.000000,9596.000000,44945.000000
12545.000000,18249.000000,9609.000000,44960.000000
12542.000000,18217.000000,9583.000000,44947.000000
12540.000000,18229.000000,9598.000000,44959.000000
12531.000000,18197.000000,9571.000000,44932.000000
12538.000000,18235.000000,9578.000000,44945.000000
12532.000000,18248.000000,9596.000000,44958.000000
12548.000000,18289.000000,9571.000000,44964.000000
12488.000000,18224.000000,9586.000000,44902.000000
12565.000000,18230.000000,9562.000000,44935.000000
12500.000000,18259.000000,9562.000000,44927.000000
12529.000000,18233.000000,9550.000000,44929.000000
12547.000000,18229.000000,9565.000000,44901.000000
12522.000000,18232.000000,9540.000000,44921.000000
12525.000000,18216.000000,9553.000000,44947.000000
12550.000000,18223.000000,9537.000000,44971.000000
12525.000000,18191.000000,9557.000000,44887.000000
12498.000000,18239.000000,9532.000000,44947.000000
12517.000000,18203.000000,9519.000000,44909.000000
12527.000000,18195.000000,9522.000000,44939.000000
12528.000000,18185.000000,9535.000000,44928.000000
12481.000000,18183.000000,9488.000000,44893.000000
12518.000000,18192.000000,9500.000000,44919.000000
12518.000000,18189.000000,9512.000000,44929.000000
12524.000000,18179.000000,9498.000000,44923.000000
12483.000000,18195.000000,9507.000000,44936.000000
12506.000000,18179.000000,9489.000000,44907.000000
12499.000000,18195.000000,9487.000000,44919.000000
12508.000000,18162.000000,9479.000000,44901.000000
12481.000000,18177.000000,9467.000000,44907.000000
12477.000000,18160.000000,9432.000000,44900.000000
12472.000000,18176.000000,9477.000000,44920.000000
12486.000000,18123.000000,9454.000000,44900.000000
12438.000000,18144.000000,9429.000000,44864.000000
12451.000000,18132.000000,9427.000000,44891.000000
12415.000000,18120.000000,9420.000000,44896.000000
12433.000000,18123.000000,9401.000000,44922.000000
12440.000000,18126.000000,9388.000000,44860.000000
12468.000000,18122.000000,9404.000000,44853.000000
12426.000000,18096.000000,9365.000000,44860.000000
12397.000000,18125.000000,9375.000000,44830.000000
12405.000000,18086.000000,9351.000000,44843.000000
12394.000000,18095.000000,9368.000000,44861.000000
12411.000000,18092.000000,9357.000000,44852.000000
12366.000000,18093.000000,9322.000000,44873.000000
12358.000000,18013.000000,9274.000000,44872.000000
12311.000000,18024.000000,9290.000000,44821.000000
12319.000000,18013.000000,9254.000000,44842.000000
12344.000000,17981.000000,9292.000000,44819.000000
12304.000000,17991.000000,9245.000000,44797.000000
12285.000000,17991.000000,9215.000000,44800.000000
12249.000000,17948.000000,9188.000000,44795.000000
12246.000000,17931.000000,9187.000000,44818.000000
12247.000000,17936.000000,9173.000000,44753.000000
12208.000000,17944.000000,9126.000000,44774.000000
12178.000000,17890.000000,9151.000000,44754.000000
12146.000000,17891.000000,9082.000000,44733.000000
12119.000000,17840.000000,9067.000000,44695.000000
12102.000000,17823.000000,9039.000000,44687.000000
12082.000000,17828.000000,9014.000000,44690.000000
12068.000000,17804.000000,9013.000000,44713.000000
12034.000000,17772.000000,9010.000000,44674.000000
12031.000000,17783.000000,8906.000000,44673.000000
12023.000000,17763.000000,8933.000000,44619.000000
12011.000000,17725.000000,8895.000000,44644.000000
11986.000000,17733.000000,8903.000000,44645.000000
12015.000000,17733.000000,8893.000000,44624.000000
11928.000000,17695.000000,8820.000000,44639.000000
11935.000000,17667.000000,8849.000000,44618.000000
11920.000000,17647.000000,8800.000000,44588.000000
11914.000000,17645.000000,8805.000000,44579.000000
11897.000000,17639.000000,8784.000000,44600.000000
11877.000000,17621.000000,8770.000000,44564.000000
11870.000000,17594.000000,8745.000000,44572.000000
11827.000000,17590.000000,8704.000000,44543.000000
11820.000000,17569.000000,8720.000000,44549.000000
11790.000000,17530.000000,8685.000000,44540.000000
11786.000000,17546.000000,8675.000000,44543.000000
11767.000000,17536.000000,8660.000000,44538.000000
11782.000000,17535.000000,8626.000000,44504.000000
11733.000000,17476.000000,8594.000000,44482.000000
11704.000000,17509.000000,8569.000000,44484.000000
11660.000000,17436.000000,8530.000000,44443.000000
11615.000000,17432.000000,8533.000000,44420.000000
11604.000000,17415.000000,8508.000000,44444.000000
11624.000000,17365.000000,8465.000000,44411.000000
11576.000000,17357.000000,8421.000000,44395.000000
11553.000000,17353.000000,8362.000000,44390.000000
11525.000000,17352.000000,8382.000000,44400.000000
11548.000000,17279.000000,8381.000000,44365.000000
11460.000000,17259.000000,8303.000000,44359.000000
11412.000000,17253.000000,8318.000000,44371.000000
11406.000000,17214.000000,8262.000000,44318.000000
11386.000000,17191.000000,8213.000000,44305.000000
11401.000000,17175.000000,8215.000000,44311.000000
11333.000000,17181.000000,8227.000000,44289.000000
11314.000000,17119.000000,8186.000000,44311.000000
11283.000000,17130.000000,8143.000000,44278.000000
11261.000000,17090.000000,8133.000000,44273.000000
11271.000000,17136.000000,8128.000000,44246.000000
11271.000000,17097.000000,8140.000000,44247.000000
11221.000000,17098.000000,8119.000000,44248.000000
11249.000000,17099.000000,8112.000000,44261.000000
11225.000000,17075.000000,8101.000000,44276.000000
11254.000000,17100.000000,8094.000000,44243.000000
11261.000000,17072.000000,8158.000000,44288.000000
11265.000000,17079.000000,8149.000000,44274.000000
11275.000000,17074.000000,8157.000000,44280.000000
11263.000000,17079.000000,8107.000000,44277.000000
11264.000000,17112.000000,8135.000000,44284.000000
11303.000000,17101.000000,8152.000000,44269.000000
11265.000000,17063.000000,8146.000000,44293.000000
11297.000000,17094.000000,8181.000000,44274.000000
11296.000000,17093.000000,8172.000000,44260.000000
11300.000000,17133.000000,8193.000000,44330.000000
11386.000000,17126.000000,8235.000000,44313.000000
11364.000000,17156.000000,8206.000000,44337.000000
11382.000000,17192.000000,8240.000000,44348.000000
11423.000000,17211.000000,8257.000000,44344.000000
11466.000000,17203.000000,8318.000000,44361.000000
11451.000000,17213.000000,8311.000000,44389.000000
11495.000000,17267.000000,8372.000000,44373.000000
11539.000000,17279.000000,8378.000000,44407.000000
11584.000000,17319.000000,8458.000000,44427.000000
11637.000000,17383.000000,8480.000000,44492.000000
11661.000000,17384.000000,8529.000000,44505.000000
11725.000000,17436.000000,8576.000000,44519.000000
11787.000000,17479.000000,8655.000000,44561.000000
11833.000000,17532.000000,8737.000000,44581.000000
11967.000000,17607.000000,8814.000000,44630.000000
12020.000000,17676.000000,8879.000000,44695.000000
12077.000000,17711.000000,8969.000000,44721.000000
12164.000000,17742.000000,9054.000000,44713.000000
12247.000000,17828.000000,9079.000000,44755.000000
12332.000000,17898.000000,9205.000000,44835.000000
12466.000000,17975.000000,9305.000000,44864.000000
12550.000000,18101.000000,9400.000000,44940.000000
12611.000000,18099.000000,9439.000000,44962.000000
12654.000000,18168.000000,9516.000000,44950.000000
12712.000000,18247.000000,9597.000000,45023.000000
12780.000000,18271.000000,9630.000000,45033.000000
12806.000000,18260.000000,9640.000000,45068.000000
12830.000000,18293.000000,9648.000000,45088.000000
12844.000000,18333.000000,9675.000000,45048.000000
12823.000000,18352.000000,9700.000000,45048.000000
12872.000000,18344.000000,9687.000000,45042.000000
12864.000000,18347.000000,9693.000000,45087.000000
12890.000000,18335.000000,9705.000000,45074.000000
12874.000000,18344.000000,9708.000000,45049.000000
12898.000000,18315.000000,9694.000000,45055.000000
12828.000000,18331.000000,9688.000000,45024.000000
12923.000000,18341.000000,9713.000000,45026.000000
12889.000000,18339.000000,9690.000000,45069.000000
12880.000000,18315.000000,9675.000000,45047.000000
12808.000000,18298.000000,9661.000000,45027.000000
12834.000000,18324.000000,9645.000000,45050.000000
12850.000000,18311.000000,9637.000000,45024.000000
12838.000000,18277.000000,9631.000000,45039.000000
12820.000000,18272.000000,9651.000000,45050.000000
12798.000000,18276.000000,9589.000000,45035.000000
12775.000000,18300.000000,9626.000000,45026.000000
12799.000000,18287.000000,9638.000000,45004.000000
12811.000000,18295.000000,9621.000000,45010.000000
12814.000000,18292.000000,9614.000000,45015.000000
12819.000000,18272.000000,9601.000000,45000.000000
12835.000000,18264.000000,9616.000000,45037.000000
12801.000000,18300.000000,9602.000000,45012.000000
12805.000000,18262.000000,9610.000000,45027.000000
12803.000000,18244.000000,9568.000000,45015.000000
12826.000000,18223.000000,9583.000000,44991.000000
12778.000000,18283.000000,9601.000000,45000.000000
12780.000000,18246.000000,9603.000000,44982.000000
12782.000000,18277.000000,9560.000000,44980.000000
12743.000000,18230.000000,9548.000000,44985.000000
12762.000000,18225.000000,9575.000000,44992.000000
12752.000000,18221.000000,9554.000000,44987.000000
12732.000000,18248.000000,9567.000000,44997.000000
12765.000000,18227.000000,9597.000000,44988.000000
12761.000000,18248.000000,9523.000000,45004.000000
12744.000000,18239.000000,9531.000000,44972.000000
12774.000000,18247.000000,9554.000000,44984.000000
12759.000000,18232.000000,9550.000000,44982.000000
12738.000000,18203.000000,9544.000000,44971.000000
12760.000000,18219.000000,9528.000000,44956.000000
12758.000000,18211.000000,9553.000000,45003.000000
12762.000000,18231.000000,9524.000000,44944.000000
12739.000000,18183.000000,9518.000000,44973.000000
12770.000000,18199.000000,9540.000000,44989.000000
12739.000000,18195.000000,9504.000000,44953.000000
12720.000000,18194.000000,9483.000000,44931.000000
12716.000000,18199.000000,9468.000000,44955.000000
12700.000000,18183.000000,9516.000000,44954.000000
12728.000000,18205.000000,9493.000000,44964.000000
12666.000000,18155.000000,9496.000000,44971.000000
12684.000000,18165.000000,9463.000000,44963.000000
12700.000000,18156.000000,9480.000000,44919.000000
12674.000000,18171.000000,9469.000000,44937.000000
12685.000000,18389.000000,9488.000000,44934.000000
12686.000000,18190.000000,9435.000000,44957.000000
12639.000000,18138.000000,9468.000000,44934.000000
12670.000000,18129.000000,9415.000000,44919.000000
12666.000000,18109.000000,9398.000000,44917.000000
12633.000000,18093.000000,9414.000000,44915.000000
12655.000000,18105.000000,9400.000000,44916.000000
12660.000000,18137.000000,9414.000000,44921.000000
12624.000000,18098.000000,9402.000000,44908.000000
12631.000000,18073.000000,9352.000000,44911.000000
12641.000000,18112.000000,9352.000000,44930.000000
12579.000000,18050.000000,9310.000000,44883.000000
12602.000000,18054.000000,9336.000000,44872.000000
12552.000000,18069.000000,9331.000000,44845.000000
12569.000000,18079.000000,9318.000000,44867.000000
12549.000000,18054.000000,9268.000000,44890.000000
12527.000000,18001.000000,9278.000000,44861.000000
12525.000000,17984.000000,9244.000000,44835.000000
12519.000000,17989.000000,9254.000000,44850.000000
12504.000000,18024.000000,9233.000000,44836.000000
12488.000000,17978.000000,9219.000000,44834.000000
12456.000000,17937.000000,9204.000000,44803.000000
12439.000000,17971.000000,9158.000000,44807.000000
12414.000000,17907.000000,9175.000000,44774.000000
12401.000000,17921.000000,9132.000000,44809.000000
12420.000000,17900.000000,9134.000000,44784.000000
12382.000000,17905.000000,9099.000000,44781.000000
12389.000000,17890.000000,9093.000000,44774.000000
12382.000000,17868.000000,9089.000000,44775.000000
12290.000000,17843.000000,9030.000000,44733.000000
12288.000000,17823.000000,9048.000000,44724.000000
12294.000000,17824.000000,8969.000000,44721.000000
12260.000000,17787.000000,9014.000000,44711.000000
12297.000000,17787.000000,8977.000000,44682.000000
12257.000000,17803.000000,8966.000000,44713.000000
12247.000000,17761.000000,8974.000000,44723.000000
12191.000000,17753.000000,8926.000000,44702.000000
12214.000000,17709.000000,8922.000000,44691.000000
12159.000000,17732.000000,8863.000000,44659.000000
12160.000000,17699.000000,8881.000000,44658.000000
12192.000000,17690.000000,8862.000000,44666.000000
12143.000000,17680.000000,8858.000000,44639.000000
12144.000000,17648.000000,8800.000000,44612.000000
12091.000000,17616.000000,8799.000000,44589.000000
12080.000000,17594.000000,8743.000000,44605.000000
12056.000000,17610.000000,8736.000000,44608.000000
12026.000000,17606.000000,8714.000000,44595.000000
12021.000000,17580.000000,8711.000000,44575.000000
11983.000000,17526.000000,8717.000000,44595.000000
11982.000000,17552.000000,8685.000000,44559.000000
11953.000000,17518.000000,8645.000000,44527.000000
11890.000000,17465.000000,8595.000000,44527.000000
11934.000000,17475.000000,8555.000000,44516.000000
11861.000000,17465.000000,8571.000000,44536.000000
11861.000000,17422.000000,8521.000000,44466.000000
11775.000000,17407.000000,8475.000000,44471.000000
11765.000000,17377.000000,8437.000000,44435.000000
11721.000000,17327.000000,8392.000000,44412.000000
11700.000000,17338.000000,8384.000000,44443.000000
11710.000000,17309.000000,8386.000000,44415.000000
11685.000000,17305.000000,8342.000000,44422.000000
11642.000000,17271.000000,8341.000000,44403.000000
11606.000000,17240.000000,8280.000000,44353.000000
11585.000000,17203.000000,8259.000000,44349.000000
11594.000000,17188.000000,8268.000000,44337.000000
11612.000000,17207.000000,8258.000000,44370.000000
11570.000000,17235.000000,8239.000000,44358.000000
11559.000000,17171.000000,8210.000000,44319.000000
11552.000000,17163.000000,8219.000000,44337.000000
11568.000000,17163.000000,8214.000000,44347.000000
11579.000000,17156.000000,8186.000000,44338.000000
11518.000000,17121.000000,8203.000000,44337.000000
11566.000000,17143.000000,8220.000000,44354.000000
11543.000000,17175.000000,8218.000000,44329.000000
11523.000000,17140.000000,8197.000000,44369.000000
11554.000000,17153.000000,8213.000000,44359.000000
11575.000000,17148.000000,8218.000000,44370.000000
11573.000000,17188.000000,8243.000000,44375.000000
11577.000000,17167.000000,8222.000000,44396.000000
11610.000000,17172.000000,8247.000000,44384.000000
11609.000000,17217.000000,8288.000000,44399.000000
11612.000000,17231.000000,8266.000000,44377.000000
11658.000000,17231.000000,8312.000000,44393.000000
11687.000000,17241.000000,8341.000000,44388.000000
11687.000000,17219.000000,8347.000000,44461.000000
11713.000000,17279.000000,8379.000000,44454.000000
11752.000000,17276.000000,8408.000000,44454.000000
11795.000000,17337.000000,8443.000000,44483.000000
11814.000000,17352.000000,8473.000000,44487.000000
11827.000000,17373.000000,8472.000000,44523.000000
11914.000000,17437.000000,8552.000000,44517.000000
11963.000000,17466.000000,8581.000000,44558.000000
12006.000000,17472.000000,8649.000000,44563.000000
12044.000000,17546.000000,8715.000000,44587.000000
12148.000000,17547.000000,8785.000000,44665.000000
12156.000000,17611.000000,8846.000000,44664.000000
12260.000000,17675.000000,8902.000000,44712.000000
12398.000000,17752.000000,8974.000000,44766.000000
12457.000000,17787.000000,9052.000000,44800.000000
12468.000000,17870.000000,9106.000000,44817.000000
12564.000000,17915.000000,9203.000000,44863.000000
12657.000000,18035.000000,9301.000000,44911.000000
12759.000000,18078.000000,9377.000000,44936.000000
12855.000000,18146.000000,9497.000000,45013.000000
12916.000000,18171.000000,9509.000000,45029.000000
12921.000000,18241.000000,9575.000000,45034.000000
12997.000000,18317.000000,9623.000000,45075.000000
13047.000000,18316.000000,9664.000000,45089.000000
13068.000000,18336.000000,9675.000000,45108.000000
13103.000000,18356.000000,9680.000000,45095.000000
13062.000000,18335.000000,9703.000000,45084.000000
13078.000000,18367.000000,9706.000000,45099.000000
13110.000000,18341.000000,9709.000000,45101.000000
13126.000000,18350.000000,9707.000000,45074.000000
13131.000000,18357.000000,9725.000000,45115.000000
13133.000000,18375.000000,9707.000000,45089.000000
13145.000000,18363.000000,9711.000000,45135.000000
13147.000000,18369.000000,9710.000000,45110.000000
13126.000000,18366.000000,9710.000000,45106.000000
13136.000000,18355.000000,9690.000000,45090.000000
13127.000000,18349.000000,9676.000000,45088.000000
13102.000000,18332.000000,9680.000000,45064.000000
13104.000000,18361.000000,9696.000000,45094.000000
13107.000000,18369.000000,9690.000000,45112.000000
13101.000000,18374.000000,9696.000000,45082.000000
13099.000000,18340.000000,9675.000000,45098.000000
13100.000000,18333.000000,9650.000000,45059.000000
13077.000000,18346.000000,9640.000000,45086.000000
13057.000000,18335.000000,9655.000000,45075.000000
13101.000000,18329.000000,9658.000000,45062.000000
13087.000000,18347.000000,9712.000000,45081.000000
13079.000000,18300.000000,9654.000000,45074.000000
13062.000000,18300.000000,9640.000000,45026.000000
13072.000000,18339.000000,9639.000000,45056.000000
13044.000000,18343.000000,9645.000000,45087.000000
13042.000000,18331.000000,9642.000000,45091.000000
13030.000000,18290.000000,9640.000000,45049.000000
13081.000000,18327.000000,9604.000000,45078.000000
13058.000000,18326.000000,9618.000000,45058.000000
13041.000000,18297.000000,9611.000000,45047.000000
13047.000000,18281.000000,9622.000000,45065.000000
13042.000000,18335.000000,9600.000000,45072.000000
13072.000000,18277.000000,9632.000000,45065.000000
13043.000000,18287.000000,9599.000000,45062.000000
13033.000000,18297.000000,9600.000000,45060.000000
13036.000000,18295.000000,9588.000000,45060.000000
13040.000000,18275.000000,9553.000000,45095.000000
13043.000000,18231.000000,9605.000000,45030.000000
13051.000000,18295.000000,9585.000000,45019.000000
13057.000000,18303.000000,9584.000000,45025.000000
13045.000000,18275.000000,9564.000000,45071.000000
13032.000000,18271.000000,9588.000000,45046.000000
13030.000000,18263.000000,9580.000000,45053.000000
13002.000000,18255.000000,9527.000000,45013.000000
13000.000000,18252.000000,9571.000000,45022.000000
13030.000000,18241.000000,9546.000000,45051.000000
13017.000000,18241.000000,9537.000000,45023.000000
13011.000000,18254.000000,9530.000000,45029.000000
13082.000000,18247.000000,9560.000000,45028.000000
12970.000000,18221.000000,9545.000000,45007.000000
12990.000000,18235.000000,9526.000000,45010.000000
12986.000000,18198.000000,9518.000000,45034.000000
12959.000000,18205.000000,9488.000000,44999.000000
12978.000000,18239.000000,9492.000000,44989.000000
12959.000000,18221.000000,9499.000000,44988.000000
13011.000000,18185.000000,9495.000000,45019.000000
12960.000000,18215.000000,9468.000000,44999.000000
12906.000000,18204.000000,9456.000000,44980.000000
12948.000000,18177.000000,9475.000000,44976.000000
12952.000000,18213.000000,9455.000000,44967.000000
12951.000000,18149.000000,9439.000000,45000.000000
12896.000000,18179.000000,9408.000000,44959.000000
12926.000000,18151.000000,9424.000000,44962.000000
12932.000000,18127.000000,9390.000000,44977.000000
12898.000000,18126.000000,9392.000000,44978.000000
12873.000000,18091.000000,9351.000000,44951.000000
12852.000000,18074.000000,9366.000000,44940.000000
12857.000000,18086.000000,9331.000000,44932.000000
12821.000000,18058.000000,9350.000000,44920.000000
12820.000000,18048.000000,9298.000000,44932.000000
12829.000000,18088.000000,9276.000000,44921.000000
12803.000000,18033.000000,9271.000000,44895.000000
12754.000000,18033.000000,9265.000000,44889.000000
12759.000000,18019.000000,9270.000000,44872.000000
12754.000000,18034.000000,9202.000000,44902.000000
12769.000000,18024.000000,9209.000000,44881.000000
12741.000000,17996.000000,9185.000000,44892.000000
12751.000000,17989.000000,9184.000000,44870.000000
12699.000000,17992.000000,9150.000000,44872.000000
12711.000000,17983.000000,9168.000000,44879.000000
12695.000000,17942.000000,9140.000000,44840.000000
12655.000000,17926.000000,9109.000000,44829.000000
12658.000000,17907.000000,9084.000000,44835.000000
12621.000000,17942.000000,9144.000000,44857.000000
12653.000000,17891.000000,9105.000000,44812.000000
12610.000000,17896.000000,9096.000000,44782.000000
12585.000000,17871.000000,9041.000000,44840.000000
12570.000000,17834.000000,9044.000000,44787.000000
12556.000000,17826.000000,9005.000000,44811.000000
12520.000000,17845.000000,8996.000000,44788.000000
12528.000000,17839.000000,9014.000000,44761.000000
12522.000000,17819.000000,8986.000000,44766.000000
12497.000000,17788.000000,8951.000000,44731.000000
12470.000000,17782.000000,8958.000000,44732.000000
12478.000000,17763.000000,8921.000000,44739.000000
12480.000000,17782.000000,8916.000000,44752.000000
12483.000000,17764.000000,8919.000000,44730.000000
12416.000000,17760.000000,8849.000000,44694.000000
12396.000000,17748.000000,8869.000000,44702.000000
12379.000000,17696.000000,8828.000000,44684.000000
12358.000000,17719.000000,8809.000000,44665.000000
12343.000000,17651.000000,8762.000000,44666.000000
12344.000000,17629.000000,8749.000000,44629.000000
12293.000000,17636.000000,8738.000000,44657.000000
12258.000000,17619.000000,8697.000000,44642.000000
12242.000000,17554.000000,8684.000000,44634.000000
12218.000000,17569.000000,8662.000000,44621.000000
12205.000000,17523.000000,8623.000000,44583.000000
12137.000000,17482.000000,8608.000000,44578.000000
12134.000000,17504.000000,8554.000000,44563.000000
12087.000000,17460.000000,8538.000000,44535.000000
12075.000000,17493.000000,8521.000000,44558.000000
12058.000000,17401.000000,8511.000000,44535.000000
11971.000000,17390.000000,8448.000000,44525.000000
11951.000000,17355.000000,8425.000000,44493.000000
11946.000000,17323.000000,8413.000000,44474.000000
11937.000000,17313.000000,8372.000000,44452.000000
11942.000000,17311.000000,8353.000000,44464.000000
11904.000000,17287.000000,8359.000000,44437.000000
11881.000000,17304.000000,8314.000000,44473.000000
11880.000000,17288.000000,8332.000000,44438.000000
11854.000000,17267.000000,8342.000000,44439.000000
11874.000000,17253.000000,8319.000000,44455.000000
11879.000000,17265.000000,8327.000000,44432.000000
11875.000000,17308.000000,8347.000000,44415.000000
11858.000000,17249.000000,8320.000000,44468.000000
11880.000000,17253.000000,8307.000000,44444.000000
11861.000000,17262.000000,8300.000000,44458.000000
11887.000000,17263.000000,8325.000000,44444.000000
11875.000000,17232.000000,8327.000000,44468.000000
11875.000000,17294.000000,8353.000000,44477.000000
11899.000000,17268.000000,8327.000000,44476.000000
11914.000000,17267.000000,8353.000000,44442.000000
11940.000000,17284.000000,8357.000000,44473.000000
11925.000000,17317.000000,8372.000000,44501.000000
11968.000000,17342.000000,8420.000000,44484.000000
11982.000000,17327.000000,8400.000000,44484.000000
11983.000000,17355.000000,8388.000000,44490.000000
12011.000000,17359.000000,8448.000000,44512.000000
12053.000000,17352.000000,8467.000000,44551.000000
12104.000000,17413.000000,8538.000000,44571.000000
12130.000000,17431.000000,8539.000000,44592.000000
12149.000000,17463.000000,8602.000000,44616.000000
12193.000000,17468.000000,8625.000000,44596.000000
12222.000000,17509.000000,8645.000000,44642.000000
12287.000000,17563.000000,8690.000000,44612.000000
12337.000000,17617.000000,8756.000000,44663.000000
12368.000000,17634.000000,8818.000000,44647.000000
12427.000000,17678.000000,8865.000000,44741.000000
12480.000000,17687.000000,8886.000000,44737.000000
12534.000000,17781.000000,8972.000000,44823.000000
12604.000000,17832.000000,9041.000000,44805.000000
12688.000000,17901.000000,9068.000000,44835.000000
12731.000000,17955.000000,9186.000000,44891.000000
12873.000000,18009.000000,9260.000000,44923.000000
12940.000000,18112.000000,9383.000000,44964.000000
12991.000000,18147.000000,9433.000000,44983.000000
13290.000000,18193.000000,9499.000000,45038.000000
13121.000000,18208.000000,9509.000000,45046.000000
13152.000000,18263.000000,9572.000000,45057.000000
13150.000000,18305.000000,9572.000000,45107.000000
13201.000000,18307.000000,9603.000000,45088.000000
13221.000000,18332.000000,9615.000000,45091.000000
13216.000000,18356.000000,9636.000000,45113.000000
13241.000000,18342.000000,9635.000000,45112.000000
13261.000000,18326.000000,9640.000000,45120.000000
13248.000000,18311.000000,9628.000000,45106.000000
13294.000000,18359.000000,9622.000000,45085.000000
13279.000000,18369.000000,9632.000000,45077.000000
13312.000000,18346.000000,9633.000000,45089.000000
13302.000000,18353.000000,9633.000000,45097.000000
13277.000000,18334.000000,9617.000000,45080.000000
13271.000000,18340.000000,9651.000000,45070.000000
13256.000000,18284.000000,9587.000000,45067.000000
13257.000000,18327.000000,9637.000000,45095.000000
13301.000000,18314.000000,9614.000000,45140.000000
13267.000000,18372.000000,9587.000000,45080.000000
13272.000000,18340.000000,9607.000000,45100.000000
13268.000000,18335.000000,9617.000000,45095.000000
13256.000000,18317.000000,9591.000000,45086.000000
13283.000000,18287.000000,9614.000000,45085.000000
13265.000000,18323.000000,9595.000000,45083.000000
13256.000000,18304.000000,9572.000000,45099.000000
13262.000000,18278.000000,9599.000000,45060.000000
13226.000000,18321.000000,9561.000000,45064.000000
13281.000000,18303.000000,9605.000000,45100.000000
13277.000000,18309.000000,9607.000000,45062.000000
13270.000000,18303.000000,9586.000000,45075.000000
13280.000000,18323.000000,9577.000000,45103.000000
13260.000000,18299.000000,9553.000000,45059.000000
13256.000000,18269.000000,9539.000000,45064.000000
13254.000000,18292.000000,9547.000000,45071.000000
13289.000000,18291.000000,9560.000000,45086.000000
13238.000000,18314.000000,9538.000000,45047.000000
13217.000000,18263.000000,9520.000000,45068.000000
13200.000000,18261.000000,9552.000000,45014.000000
13237.000000,18285.000000,9510.000000,45062.000000
13220.000000,18248.000000,9555.000000,45032.000000
13219.000000,18239.000000,9523.000000,45029.000000
13187.000000,18235.000000,9488.000000,45031.000000
13177.000000,18231.000000,9513.000000,45030.000000
13211.000000,18236.000000,9493.000000,45037.000000
13194.000000,18263.000000,9497.000000,45018.000000
13179.000000,18215.000000,9519.000000,45055.000000
13180.000000,18229.000000,9475.000000,45011.000000
13199.000000,18205.000000,9480.000000,45012.000000
13169.000000,18241.000000,9458.000000,45031.000000
13205.000000,18239.000000,9428.000000,45055.000000
13191.000000,18232.000000,9455.000000,45016.000000
13190.000000,18197.000000,9422.000000,45013.000000
13157.000000,18217.000000,9423.000000,44991.000000
13149.000000,18199.000000,9460.000000,45005.000000
13188.000000,18209.000000,9421.000000,45013.000000
13170.000000,18217.000000,9417.000000,45005.000000
13179.000000,18188.000000,9429.000000,45000.000000
13141.000000,18150.000000,9408.000000,45021.000000
13144.000000,18162.000000,9406.000000,44998.000000
13129.000000,18161.000000,9375.000000,44952.000000
13138.000000,18165.000000,9402.000000,44989.000000
13116.000000,18158.000000,9394.000000,44983.000000
13110.000000,18126.000000,9369.000000,44979.000000
13073.000000,18116.000000,9341.000000,44941.000000
13060.000000,18141.000000,9350.000000,44937.000000
13071.000000,18113.000000,9304.000000,44964.000000
13043.000000,18097.000000,9334.000000,44973.000000
13046.000000,18107.000000,9297.000000,44960.000000
13020.000000,18086.000000,9286.000000,44912.000000
12996.000000,18088.000000,9289.000000,44928.000000
12986.000000,18089.000000,9308.000000,44925.000000
12972.000000,18050.000000,9233.000000,44936.000000
12974.000000,18015.000000,9204.000000,44881.000000
12944.000000,18015.000000,9202.000000,44879.000000
12949.000000,17988.000000,9193.000000,44898.000000
12923.000000,18018.000000,9191.000000,44892.000000
12900.000000,17998.000000,9205.000000,44863.000000
12898.000000,17982.000000,9146.000000,44860.000000
12890.000000,17963.000000,9135.000000,44872.000000
12877.000000,18183.000000,9115.000000,44824.000000
12824.000000,17919.000000,9097.000000,44847.000000
12813.000000,17911.000000,9091.000000,44841.000000
12804.000000,17910.000000,9090.000000,44867.000000
12781.000000,17861.000000,9029.000000,44826.000000
12787.000000,17911.000000,9059.000000,44821.000000
12753.000000,17877.000000,9016.000000,44801.000000
12774.000000,17879.000000,9010.000000,44813.000000
12769.000000,17854.000000,8992.000000,44793.000000
12729.000000,17835.000000,8961.000000,44796.000000
12711.000000,17807.000000,8956.000000,44771.000000
12700.000000,17815.000000,8946.000000,44761.000000
12715.000000,17824.000000,8943.000000,44780.000000
12661.000000,17824.000000,8930.000000,44776.000000
12683.000000,17801.000000,8921.000000,44793.000000
12633.000000,17785.000000,8926.000000,44725.000000
12657.000000,17739.000000,8883.000000,44715.000000
12644.000000,17753.000000,8886.000000,44770.000000
12616.000000,17767.000000,8891.000000,44752.000000
12600.000000,17756.000000,8864.000000,44726.000000
12594.000000,17737.000000,8816.000000,44723.000000
12610.000000,17699.000000,8838.000000,44705.000000
12559.000000,17703.000000,8814.000000,44701.000000
12552.000000,17721.000000,8792.000000,44690.000000
12498.000000,17672.000000,8810.000000,44689.000000
12561.000000,17651.000000,8802.000000,44653.000000
12507.000000,17648.000000,8747.000000,44663.000000
12397.000000,17611.000000,8712.000000,44670.000000
12395.000000,17578.000000,8652.000000,44634.000000
12365.000000,17559.000000,8620.000000,44590.000000
12333.000000,17540.000000,8606.000000,44582.000000
12308.000000,17522.000000,8587.000000,44587.000000
12249.000000,17426.000000,8524.000000,44575.000000
12220.000000,17449.000000,8492.000000,44539.000000
12200.000000,17391.000000,8489.000000,44519.000000
12180.000000,17409.000000,8450.000000,44495.000000
12127.000000,17357.000000,8468.000000,44507.000000
12140.000000,17363.000000,8372.000000,44511.000000
12081.000000,17355.000000,8376.000000,44449.000000
12097.000000,17336.000000,8339.000000,44455.000000
12089.000000,17288.000000,8314.000000,44441.000000
12044.000000,17275.000000,8286.000000,44454.000000
12025.000000,17259.000000,8287.000000,44433.000000
11982.000000,17257.000000,8245.000000,44421.000000
12000.000000,17267.000000,8256.000000,44444.000000
12001.000000,17240.000000,8246.000000,44434.000000
12002.000000,17238.000000,8251.000000,44394.000000
11956.000000,17229.000000,8249.000000,44377.000000
11925.000000,17189.000000,8223.000000,44420.000000
11949.000000,17204.000000,8220.000000,44403.000000
11959.000000,17219.000000,8217.000000,44406.000000
11933.000000,17184.000000,8233.000000,44412.000000
11942.000000,17184.000000,8214.000000,44399.000000
11963.000000,17219.000000,8223.000000,44385.000000
11992.000000,17219.000000,8244.000000,44412.000000
11952.000000,17217.000000,8227.000000,44426.000000
11991.000000,17220.000000,8262.000000,44417.000000
11979.000000,17239.000000,8260.000000,44431.000000
12055.000000,17234.000000,8274.000000,44418.000000
12028.000000,17285.000000,8308.000000,44424.000000
12053.000000,17296.000000,8320.000000,44480.000000
12088.000000,17304.000000,8356.000000,44468.000000
12138.000000,17313.000000,8402.000000,44488.000000
12158.000000,17343.000000,8396.000000,44506.000000
12217.000000,17374.000000,8462.000000,44553.000000
12261.000000,17436.000000,8510.000000,44524.000000
12329.000000,17503.000000,8551.000000,44603.000000
12360.000000,17480.000000,8604.000000,44617.000000
12419.000000,17550.000000,8637.000000,44612.000000
12439.000000,17597.000000,8698.000000,44659.000000
12528.000000,17623.000000,8754.000000,44641.000000
12597.000000,17647.000000,8817.000000,44703.000000
12657.000000,17691.000000,8874.000000,44745.000000
12704.000000,17779.000000,8899.000000,44779.000000
12772.000000,17808.000000,8958.000000,44819.000000
12886.000000,17913.000000,9067.000000,44819.000000
12974.000000,17945.000000,9138.000000,44855.000000
13031.000000,18052.000000,9205.000000,44928.000000
13109.000000,18067.000000,9266.000000,44928.000000
13163.000000,18078.000000,9270.000000,44970.000000
13202.000000,18145.000000,9351.000000,44958.000000
13259.000000,18166.000000,9368.000000,45006.000000
13303.000000,18222.000000,9410.000000,45004.000000
13305.000000,18193.000000,9416.000000,45014.000000
13304.000000,18213.000000,9427.000000,45004.000000
13278.000000,18205.000000,9421.000000,44991.000000
13329.000000,18201.000000,9454.000000,45005.000000
13305.000000,18231.000000,9472.000000,44991.000000
13334.000000,18248.000000,9444.000000,45036.000000
13305.000000,18243.000000,9385.000000,45014.000000
13341.000000,18195.000000,9434.000000,45029.000000
13332.000000,18259.000000,9432.000000,45010.000000
13366.000000,18195.000000,9415.000000,45015.000000
13359.000000,18242.000000,9419.000000,44999.000000
13341.000000,18256.000000,9432.000000,45015.000000
13337.000000,18232.000000,9422.000000,45038.000000
13340.000000,18261.000000,9412.000000,45027.000000
13366.000000,18215.000000,9452.000000,45001.000000
13353.000000,18239.000000,9424.000000,44988.000000
13362.000000,18237.000000,9419.000000,45046.000000
13385.000000,18260.000000,9436.000000,45013.000000
13350.000000,18200.000000,9394.000000,44980.000000
13360.000000,18251.000000,9410.000000,44994.000000
13316.000000,18255.000000,9408.000000,45019.000000
13372.000000,18237.000000,9413.000000,44987.000000
13351.000000,18231.000000,9385.000000,44983.000000
13333.000000,18225.000000,9378.000000,44995.000000
13360.000000,18205.000000,9430.000000,45006.000000
13344.000000,18217.000000,9370.000000,44983.000000
13335.000000,18155.000000,9371.000000,44975.000000
13327.000000,18201.000000,9394.000000,44958.000000
13327.000000,18223.000000,9406.000000,44993.000000
13322.000000,18245.000000,9397.000000,44998.000000
13309.000000,18201.000000,9366.000000,44950.000000
13308.000000,18219.000000,9388.000000,45004.000000
13345.000000,18204.000000,9363.000000,44964.000000
13334.000000,18251.000000,9374.000000,44979.000000
13330.000000,18207.000000,9354.000000,44990.000000
13315.000000,18189.000000,9345.000000,44944.000000
13314.000000,18183.000000,9380.000000,44959.000000
13328.000000,18208.000000,9382.000000,44964.000000
13325.000000,18199.000000,9315.000000,44964.000000
13318.000000,18200.000000,9363.000000,44967.000000
13308.000000,18171.000000,9343.000000,44966.000000
13329.000000,18168.000000,9326.000000,44957.000000
13299.000000,18160.000000,9320.000000,44973.000000
13332.000000,18149.000000,9326.000000,44986.000000
13349.000000,18199.000000,9327.000000,44973.000000
13291.000000,18195.000000,9349.000000,44986.000000
13301.000000,18160.000000,9341.000000,44942.000000
13291.000000,18165.000000,9298.000000,44944.000000
13330.000000,18150.000000,9288.000000,44971.000000
13319.000000,18146.000000,9300.000000,44968.000000
13284.000000,18144.000000,9346.000000,44958.000000
13279.000000,18134.000000,9266.000000,44948.000000
13314.000000,18155.000000,9288.000000,44951.000000
13319.000000,18110.000000,9297.000000,44952.000000
13308.000000,18099.000000,9252.000000,44908.000000
13285.000000,18146.000000,9287.000000,44916.000000
13316.000000,18152.000000,9299.000000,44958.000000
13323.000000,18158.000000,9285.000000,44923.000000
13296.000000,18149.000000,9282.000000,44937.000000
13260.000000,18136.000000,9273.000000,44955.000000
13293.000000,18075.000000,9264.000000,44942.000000
13277.000000,18114.000000,9263.000000,44911.000000
13256.000000,18121.000000,9259.000000,44935.000000
13257.000000,18124.000000,9258.000000,44902.000000
13240.000000,18114.000000,9251.000000,44923.000000
13254.000000,18091.000000,9243.000000,44916.000000
13237.000000,18085.000000,9214.000000,44903.000000
13264.000000,18104.000000,9218.000000,44905.000000
13231.000000,18077.000000,9214.000000,44914.000000
13251.000000,18094.000000,9218.000000,44922.000000
13254.000000,18084.000000,9196.000000,44907.000000
13242.000000,18067.000000,9207.000000,44899.000000
13210.000000,18079.000000,9185.000000,44888.000000
13222.000000,18087.000000,9200.000000,44880.000000
13217.000000,18056.000000,9184.000000,44922.000000
13205.000000,18072.000000,9157.000000,44879.000000
13186.000000,18016.000000,9140.000000,44872.000000
13203.000000,18025.000000,9144.000000,44895.000000
13194.000000,18023.000000,9147.000000,44871.000000
13188.000000,18021.000000,9103.000000,44863.000000
13158.000000,18006.000000,9108.000000,44877.000000
13148.000000,18010.000000,9116.000000,44865.000000
13153.000000,18017.000000,9111.000000,44888.000000
13140.000000,17971.000000,9074.000000,44841.000000
