660nm,730nm,850nm,940nm
22724.000000,15236.000000,22963.000000,59212.000000
22719.000000,15210.000000,22970.000000,59205.000000
22733.000000,15208.000000,22967.000000,59190.000000
22702.000000,15232.000000,22926.000000,59179.000000
22708.000000,15232.000000,22972.000000,59183.000000
22724.000000,15200.000000,22920.000000,59145.000000
22656.000000,15160.000000,22906.000000,59191.000000
22680.000000,15199.000000,22920.000000,59154.000000
22675.000000,15181.000000,22894.000000,59154.000000
22651.000000,15187.000000,22849.000000,59163.000000
22641.000000,15182.000000,22866.000000,59124.000000
22665.000000,15141.000000,22827.000000,59109.000000
22577.000000,15145.000000,22826.000000,59142.000000
22611.000000,15159.000000,22824.000000,59102.000000
22567.000000,15135.000000,22833.000000,59097.000000
22574.000000,15117.000000,22782.000000,59067.000000
22560.000000,15119.000000,22782.000000,59058.000000
22554.000000,15071.000000,22732.000000,59091.000000
22532.000000,15112.000000,22719.000000,59053.000000
22510.000000,15088.000000,22703.000000,59012.000000
22486.000000,15057.000000,22676.000000,59039.000000
22473.000000,15048.000000,22647.000000,58992.000000
22435.000000,15046.000000,22667.000000,59002.000000
22430.000000,15025.000000,22627.000000,59000.000000
22424.000000,15027.000000,22594.000000,58957.000000
22409.000000,15009.000000,22614.000000,59009.000000
22411.000000,15008.000000,22651.000000,59017.000000
22434.000000,14992.000000,22681.000000,59014.000000
22441.000000,15032.000000,22656.000000,58988.000000
22426.000000,15028.000000,22659.000000,59030.000000
22474.000000,15043.000000,22687.000000,59015.000000
22459.000000,15053.000000,22691.000000,59033.000000
22461.000000,15037.000000,22691.000000,59065.000000
22484.000000,15051.000000,22745.000000,59059.000000
22516.000000,15070.000000,22741.000000,59067.000000
22515.000000,15048.000000,22750.000000,59087.000000
22532.000000,15100.000000,22777.000000,59101.000000
22560.000000,15107.000000,22795.000000,59102.000000
22585.000000,15142.000000,22813.000000,59115.000000
22574.000000,15104.000000,22860.000000,59113.000000
22605.000000,15144.000000,22873.000000,59122.000000
22613.000000,15137.000000,22877.000000,59141.000000
22650.000000,15206.000000,22900.000000,59177.000000
22683.000000,15208.000000,22903.000000,59161.000000
22687.000000,15214.000000,22980.000000,59198.000000
22683.000000,15224.000000,22986.000000,59207.000000
22713.000000,15228.000000,23021.000000,59246.000000
22752.000000,15259.000000,23045.000000,59265.000000
22729.000000,15307.000000,23087.000000,59270.000000
22788.000000,15289.000000,23077.000000,59289.000000
22800.000000,15301.000000,23128.000000,59294.000000
22836.000000,15325.000000,23160.000000,59329.000000
22842.000000,15350.000000,23210.000000,59350.000000
22915.000000,15344.000000,23267.000000,59384.000000
22931.000000,15427.000000,23307.000000,59397.000000
22954.000000,15455.000000,23330.000000,59429.000000
22988.000000,15455.000000,23374.000000,59449.000000
23045.000000,15493.000000,23412.000000,59452.000000
23047.000000,15507.000000,23430.000000,59509.000000
23086.000000,15520.000000,23477.000000,59512.000000
23116.000000,15551.000000,23497.000000,59527.000000
23105.000000,15566.000000,23561.000000,59542.000000
23145.000000,15592.000000,23530.000000,59536.000000
23160.000000,15573.000000,23554.000000,59538.000000
23167.000000,15571.000000,23560.000000,59551.000000
23151.000000,15579.000000,23555.000000,59552.000000
23125.000000,15560.000000,23549.000000,59546.000000
23157.000000,15545.000000,23492.000000,59527.000000
23129.000000,15555.000000,23490.000000,59534.000000
23095.000000,15529.000000,23514.000000,59513.000000
23092.000000,15535.000000,23479.000000,59528.000000
23085.000000,15543.000000,23474.000000,59492.000000
23084.000000,15501.000000,23448.000000,59478.000000
23032.000000,15516.000000,23456.000000,59487.000000
23008.000000,15505.000000,23446.000000,59463.000000
23033.000000,15508.000000,23412.000000,59455.000000
23000.000000,15477.000000,23437.000000,59455.000000
23014.000000,15457.000000,23400.000000,59444.000000
22975.000000,15451.000000,23408.000000,59437.000000
22983.000000,15475.000000,23387.000000,59449.000000
22984.000000,15412.000000,23391.000000,59429.000000
22993.000000,15462.000000,23377.000000,59444.000000
22942.000000,15429.000000,23360.000000,59432.000000
22959.000000,15417.000000,23343.000000,59412.000000
22945.000000,15403.000000,23306.000000,59394.000000
22915.000000,15405.000000,23323.000000,59407.000000
22960.000000,15449.000000,23320.000000,59367.000000
22959.000000,15391.000000,23303.000000,59369.000000
22884.000000,15416.000000,23302.000000,59390.000000
22919.000000,15410.000000,23286.000000,59372.000000
22889.000000,15356.000000,23274.000000,59381.000000
22906.000000,15404.000000,23267.000000,59344.000000
22840.000000,15331.000000,23237.000000,59382.000000
22887.000000,15326.000000,23242.000000,59358.000000
22854.000000,15318.000000,23218.000000,59324.000000
22857.000000,15323.000000,23204.000000,59367.000000
22847.000000,15352.000000,23199.000000,59342.000000
22840.000000,15341.000000,23169.000000,59335.000000
22789.000000,15340.000000,23142.000000,59312.000000
22812.000000,15320.000000,23140.000000,59312.000000
22801.000000,15268.000000,23138.000000,59330.000000
22757.000000,15295.000000,23113.000000,59258.000000
22757.000000,15274.000000,23072.000000,59271.000000
22730.000000,15226.000000,23057.000000,59262.000000
22728.000000,15262.000000,23071.000000,59236.000000
22726.000000,15239.000000,23057.000000,59240.000000
22693.000000,15231.000000,23032.000000,59232.000000
22709.000000,15241.000000,23027.000000,59204.000000
22687.000000,15205.000000,23015.000000,59211.000000
22698.000000,15228.000000,23012.000000,59202.000000
22654.000000,15208.000000,22960.000000,59198.000000
22666.000000,15196.000000,22990.000000,59169.000000
22612.000000,15157.000000,22932.000000,59136.000000
22622.000000,15149.000000,22886.000000,59151.000000
22573.000000,15155.000000,22862.000000,59155.000000
22566.000000,15147.000000,22850.000000,59117.000000
22543.000000,15124.000000,22861.000000,59133.000000
22574.000000,15170.000000,22830.000000,59089.000000
22537.000000,15109.000000,22803.000000,59117.000000
22521.000000,15102.000000,22800.000000,59101.000000
22499.000000,15091.000000,22794.000000,59075.000000
22472.000000,15089.000000,22760.000000,59058.000000
22483.000000,15070.000000,22723.000000,59063.000000
22432.000000,15037.000000,22699.000000,59058.000000
22441.000000,15034.000000,22720.000000,59035.000000
22413.000000,15056.000000,22679.000000,58988.000000
22413.000000,15040.000000,22665.000000,59015.000000
22377.000000,14978.000000,22605.000000,58972.000000
22350.000000,14995.000000,22607.000000,58989.000000
22352.000000,14952.000000,22602.000000,58983.000000
22342.000000,14983.000000,22575.000000,58982.000000
22335.000000,14977.000000,22541.000000,58960.000000
22337.000000,14967.000000,22569.000000,58950.000000
22353.000000,14978.000000,22569.000000,58964.000000
22335.000000,14943.000000,22543.000000,58967.000000
22324.000000,14975.000000,22570.000000,58966.000000
22343.000000,14985.000000,22563.000000,58965.000000
22344.000000,14999.000000,22596.000000,58974.000000
22374.000000,14987.000000,22596.000000,58987.000000
22378.000000,14995.000000,22604.000000,58961.000000
22376.000000,14966.000000,22657.000000,59013.000000
22367.000000,15004.000000,22636.000000,58999.000000
22457.000000,15038.000000,22698.000000,59034.000000
22395.000000,15022.000000,22719.000000,59051.000000
22432.000000,15036.000000,22704.000000,59027.000000
22453.000000,15038.000000,22743.000000,59010.000000
22471.000000,15040.000000,22727.000000,59072.000000
22495.000000,15066.000000,22749.000000,59070.000000
22498.000000,15069.000000,22797.000000,59095.000000
22491.000000,15085.000000,22801.000000,59087.000000
22543.000000,15129.000000,22827.000000,59144.000000
22525.000000,15120.000000,22842.000000,59110.000000
22564.000000,15139.000000,22914.000000,59152.000000
22590.000000,15153.000000,22958.000000,59167.000000
22607.000000,15154.000000,22961.000000,59220.000000
22646.000000,15218.000000,22961.000000,59201.000000
22655.000000,15189.000000,22975.000000,59257.000000
22708.000000,15171.000000,23055.000000,59255.000000
22720.000000,15207.000000,23077.000000,59267.000000
22743.000000,15271.000000,23066.000000,59284.000000
22780.000000,15305.000000,23165.000000,59301.000000
22792.000000,15345.000000,23154.000000,59307.000000
22844.000000,15337.000000,23202.000000,59352.000000
22876.000000,15368.000000,23245.000000,59368.000000
22892.000000,15445.000000,23327.000000,59384.000000
22924.000000,15442.000000,23364.000000,59418.000000
22970.000000,15439.000000,23384.000000,59419.000000
22989.000000,15432.000000,23389.000000,59439.000000
23029.000000,15488.000000,23453.000000,59496.000000
23040.000000,15504.000000,23493.000000,59518.000000
23063.000000,15509.000000,23510.000000,59550.000000
23064.000000,15562.000000,23475.000000,59515.000000
23103.000000,15543.000000,23526.000000,59493.000000
23081.000000,15498.000000,23520.000000,59517.000000
23077.000000,15513.000000,23511.000000,59532.000000
23052.000000,15533.000000,23517.000000,59538.000000
23046.000000,15499.000000,23510.000000,59535.000000
23071.000000,15522.000000,23517.000000,59517.000000
23064.000000,15521.000000,23469.000000,59496.000000
23005.000000,15540.000000,23489.000000,59499.000000
23034.000000,15509.000000,23456.000000,59493.000000
23015.000000,15480.000000,23446.000000,59520.000000
23058.000000,15499.000000,23442.000000,59480.000000
23039.000000,15508.000000,23447.000000,59487.000000
22975.000000,15465.000000,23419.000000,59475.000000
22982.000000,15508.000000,23394.000000,59443.000000
23007.000000,15467.000000,23383.000000,59466.000000
22963.000000,15468.000000,23411.000000,59455.000000
22938.000000,15503.000000,23398.000000,59440.000000
22948.000000,15416.000000,23357.000000,59404.000000
22968.000000,15421.000000,23357.000000,59397.000000
22916.000000,15436.000000,23350.000000,59418.000000
22924.000000,15446.000000,23330.000000,59397.000000
22922.000000,15397.000000,23334.000000,59404.000000
22911.000000,15409.000000,23323.000000,59420.000000
22918.000000,15389.000000,23313.000000,59379.000000
22878.000000,15401.000000,23281.000000,59387.000000
22892.000000,15368.000000,23269.000000,59396.000000
22918.000000,15408.000000,23283.000000,59375.000000
22855.000000,15404.000000,23234.000000,59357.000000
22899.000000,15374.000000,23273.000000,59341.000000
22852.000000,15349.000000,23231.000000,59369.000000
22838.000000,15330.000000,23237.000000,59362.000000
22836.000000,15356.000000,23196.000000,59326.000000
22816.000000,15342.000000,23198.000000,59342.000000
22799.000000,15327.000000,23194.000000,59331.000000
22756.000000,15317.000000,23160.000000,59316.000000
22765.000000,15280.000000,23177.000000,59315.000000
22753.000000,15296.000000,23159.000000,59312.000000
22756.000000,15299.000000,23125.000000,59276.000000
22710.000000,15269.000000,23128.000000,59305.000000
22736.000000,15273.000000,23109.000000,59286.000000
22713.000000,15268.000000,23105.000000,59269.000000
22694.000000,15247.000000,23120.000000,59272.000000
22697.000000,15258.000000,23097.000000,59278.000000
22695.000000,15249.000000,23043.000000,59250.000000
22662.000000,15218.000000,23075.000000,59259.000000
22656.000000,15244.000000,23039.000000,59233.000000
22625.000000,15222.000000,23043.000000,59243.000000
22642.000000,15199.000000,23035.000000,59236.000000
22627.000000,15209.000000,23013.000000,59225.000000
22629.000000,15188.000000,22994.000000,59197.000000
22620.000000,15178.000000,22999.000000,59209.000000
22593.000000,15180.000000,22957.000000,59199.000000
22598.000000,15187.000000,22967.000000,59214.000000
22608.000000,15185.000000,22958.000000,59190.000000
22579.000000,15206.000000,22920.000000,59176.000000
22562.000000,15169.000000,22940.000000,59148.000000
22571.000000,15129.000000,22929.000000,59142.000000
22540.000000,15132.000000,22929.000000,59155.000000
22543.000000,15118.000000,22899.000000,59156.000000
22534.000000,15132.000000,22870.000000,59156.000000
22542.000000,15122.000000,22872.000000,59132.000000
22495.000000,15077.000000,22843.000000,59079.000000
22496.000000,15085.000000,22839.000000,59084.000000
22482.000000,15076.000000,22833.000000,59108.000000
22440.000000,15103.000000,22797.000000,59097.000000
22424.000000,15081.000000,22764.000000,59088.000000
22395.000000,15019.000000,22744.000000,59047.000000
22386.000000,15052.000000,22752.000000,59050.000000
22377.000000,15033.000000,22702.000000,59035.000000
22350.000000,15019.000000,22684.000000,59021.000000
22318.000000,15009.000000,22676.000000,58994.000000
22319.000000,14983.000000,22634.000000,58990.000000
22326.000000,14977.000000,22671.000000,58984.000000
22289.000000,14991.000000,22627.000000,58996.000000
22293.000000,14997.000000,22631.000000,58978.000000
22273.000000,14973.000000,22646.000000,58979.000000
22319.000000,14972.000000,22607.000000,58973.000000
22294.000000,14976.000000,22627.000000,58985.000000
22327.000000,14988.000000,22626.000000,58979.000000
22306.000000,14976.000000,22616.000000,58997.000000
22308.000000,14982.000000,22639.000000,58989.000000
22344.000000,14988.000000,22632.000000,59002.000000
22316.000000,15000.000000,22664.000000,59020.000000
22376.000000,14987.000000,22691.000000,59018.000000
22352.000000,15044.000000,22690.000000,59043.000000
22401.000000,15022.000000,22730.000000,59071.000000
22393.000000,15045.000000,22743.000000,59060.000000
22413.000000,15034.000000,22763.000000,59058.000000
22434.000000,15034.000000,22777.000000,59106.000000
22458.000000,15075.000000,22784.000000,59118.000000
22506.000000,15094.000000,22813.000000,59114.000000
22466.000000,15090.000000,22854.000000,59128.000000
22516.000000,15113.000000,22850.000000,59094.000000
22514.000000,15130.000000,22902.000000,59156.000000
22513.000000,15140.000000,22910.000000,59178.000000
22566.000000,15170.000000,22953.000000,59205.000000
22600.000000,15165.000000,22951.000000,59198.000000
22579.000000,15205.000000,22993.000000,59227.000000
22626.000000,15221.000000,23022.000000,59237.000000
22646.000000,15218.000000,23072.000000,59268.000000
22659.000000,15209.000000,23084.000000,59286.000000
22705.000000,15266.000000,23117.000000,59286.000000
22704.000000,15273.000000,23155.000000,59283.000000
22729.000000,15316.000000,23182.000000,59304.000000
22754.000000,15270.000000,23213.000000,59336.000000
22799.000000,15334.000000,23258.000000,59366.000000
22808.000000,15359.000000,23284.000000,59413.000000
22838.000000,15388.000000,23335.000000,59421.000000
22908.000000,15409.000000,23404.000000,59456.000000
22933.000000,15455.000000,23413.000000,59435.000000
22980.000000,15485.000000,23426.000000,59472.000000
22992.000000,15508.000000,23483.000000,59534.000000
22993.000000,15519.000000,23491.000000,59538.000000
23038.000000,15532.000000,23549.000000,59571.000000
23055.000000,15543.000000,23525.000000,59558.000000
23047.000000,15540.000000,23574.000000,59557.000000
23076.000000,15560.000000,23558.000000,59565.000000
23049.000000,15566.000000,23566.000000,59563.000000
23039.000000,15519.000000,23561.000000,59555.000000
23050.000000,15543.000000,23552.000000,59577.000000
23031.000000,15504.000000,23519.000000,59532.000000
22996.000000,15516.000000,23482.000000,59511.000000
23041.000000,15521.000000,23489.000000,59509.000000
22988.000000,15493.000000,23457.000000,59486.000000
22989.000000,15513.000000,23490.000000,59490.000000
22967.000000,15468.000000,23477.000000,59482.000000
22961.000000,15476.000000,23435.000000,59467.000000
22936.000000,15493.000000,23460.000000,59464.000000
22937.000000,15439.000000,23402.000000,59455.000000
22916.000000,15440.000000,23413.000000,59446.000000
22891.000000,15435.000000,23439.000000,59484.000000
22883.000000,15443.000000,23402.000000,59446.000000
22894.000000,15440.000000,23417.000000,59447.000000
22900.000000,15441.000000,23373.000000,59443.000000
22868.000000,15397.000000,23366.000000,59421.000000
22861.000000,15404.000000,23357.000000,59422.000000
22865.000000,15435.000000,23375.000000,59425.000000
22873.000000,15394.000000,23319.000000,59408.000000
22857.000000,15405.000000,23349.000000,59400.000000
22835.000000,15403.000000,23340.000000,59415.000000
22811.000000,15376.000000,23271.000000,59385.000000
22837.000000,15380.000000,23315.000000,59400.000000
22816.000000,15370.000000,23269.000000,59348.000000
22816.000000,15392.000000,23266.000000,59383.000000
22813.000000,15386.000000,23267.000000,59363.000000
22770.000000,15353.000000,23236.000000,59352.000000
22811.000000,15321.000000,23244.000000,59346.000000
22781.000000,15336.000000,23207.000000,59357.000000
22779.000000,15324.000000,23194.000000,59334.000000
22771.000000,15353.000000,23189.000000,59309.000000
22727.000000,15293.000000,23168.000000,59305.000000
22718.000000,15293.000000,23149.000000,59292.000000
22717.000000,15292.000000,23177.000000,59310.000000
22694.000000,15281.000000,23164.000000,59298.000000
22688.000000,15268.000000,23102.000000,59256.000000
22675.000000,15249.000000,23116.000000,59285.000000
22639.000000,15193.000000,23106.000000,59266.000000
22687.000000,15216.000000,23073.000000,59265.000000
22661.000000,15231.000000,23063.000000,59262.000000
22644.000000,15228.000000,23031.000000,59263.000000
22645.000000,15235.000000,23054.000000,59232.000000
22590.000000,15228.000000,22987.000000,59236.000000
22606.000000,15211.000000,23017.000000,59223.000000
22600.000000,15219.000000,23022.000000,59210.000000
22594.000000,15163.000000,23003.000000,59208.000000
22607.000000,15160.000000,22987.000000,59179.000000
22575.000000,15170.000000,22938.000000,59168.000000
22535.000000,15142.000000,22941.000000,59167.000000
22549.000000,15181.000000,22935.000000,59147.000000
22545.000000,15152.000000,22941.000000,59172.000000
22521.000000,15151.000000,22947.000000,59185.000000
22530.000000,15115.000000,22930.000000,59186.000000
22536.000000,15140.000000,22845.000000,59143.000000
22478.000000,15129.000000,22928.000000,59139.000000
22490.000000,15126.000000,22841.000000,59115.000000
22482.000000,15078.000000,22833.000000,59133.000000
22461.000000,15099.000000,22844.000000,59140.000000
22429.000000,15061.000000,22819.000000,59136.000000
22442.000000,15081.000000,22784.000000,59093.000000
22410.000000,15080.000000,22813.000000,59058.000000
22374.000000,15035.000000,22756.000000,59063.000000
22348.000000,15014.000000,22742.000000,59043.000000
22342.000000,15019.000000,22703.000000,59075.000000
22320.000000,15021.000000,22678.000000,59028.000000
22296.000000,15002.000000,22677.000000,59020.000000
22261.000000,14981.000000,22657.000000,58978.000000
22270.000000,14994.000000,22644.000000,58981.000000
22248.000000,14949.000000,22628.000000,58995.000000
22241.000000,14958.000000,22609.000000,58948.000000
22221.000000,14925.000000,22559.000000,58961.000000
22243.000000,14944.000000,22593.000000,58951.000000
22235.000000,14923.000000,22586.000000,58963.000000
22244.000000,14958.000000,22605.000000,58993.000000
22256.000000,14951.000000,22619.000000,58990.000000
22254.000000,14962.000000,22659.000000,58996.000000
22268.000000,15001.000000,22647.000000,59015.000000
22288.000000,14968.000000,22658.000000,59026.000000
22317.000000,14997.000000,22672.000000,59047.000000
22324.000000,14986.000000,22704.000000,59046.000000
22336.000000,15014.000000,22690.000000,59030.000000
22358.000000,15019.000000,22714.000000,59060.000000
22359.000000,15021.000000,22749.000000,59062.000000
22373.000000,15015.000000,22768.000000,59064.000000
22390.000000,15034.000000,22812.000000,59122.000000
22423.000000,15073.000000,22826.000000,59138.000000
22442.000000,15075.000000,22794.000000,59105.000000
22441.000000,15092.000000,22846.000000,59154.000000
22465.000000,15120.000000,22881.000000,59158.000000
22496.000000,15106.000000,22892.000000,59142.000000
22490.000000,15147.000000,22939.000000,59229.000000
22573.000000,15166.000000,22955.000000,59193.000000
22559.000000,15134.000000,23009.000000,59217.000000
22585.000000,15207.000000,23035.000000,59229.000000
22612.000000,15187.000000,23046.000000,59262.000000
22624.000000,15185.000000,23077.000000,59260.000000
22671.000000,15245.000000,23159.000000,59290.000000
22686.000000,15244.000000,23132.000000,59299.000000
22690.000000,15275.000000,23188.000000,59333.000000
22734.000000,15327.000000,23247.000000,59342.000000
22801.000000,15319.000000,23281.000000,59363.000000
22786.000000,15357.000000,23312.000000,59421.000000
22851.000000,15377.000000,23394.000000,59428.000000
22916.000000,15438.000000,23386.000000,59462.000000
22906.000000,15431.000000,23436.000000,59476.000000
22953.000000,15475.000000,23458.000000,59484.000000
22976.000000,15481.000000,23482.000000,59527.000000
23000.000000,15503.000000,23530.000000,59547.000000
23048.000000,15541.000000,23542.000000,59564.000000
23017.000000,15565.000000,23566.000000,59548.000000
23030.000000,15568.000000,23538.000000,59551.000000
22999.000000,15538.000000,23530.000000,59519.000000
23055.000000,15535.000000,23534.000000,59522.000000
22997.000000,15524.000000,23548.000000,59559.000000
23046.000000,15535.000000,23522.000000,59532.000000
23041.000000,15520.000000,23528.000000,59526.000000
23016.000000,15522.000000,23522.000000,59493.000000
22997.000000,15509.000000,23483.000000,59504.000000
23001.000000,15526.000000,23442.000000,59508.000000
22990.000000,15506.000000,23463.000000,59516.000000
22987.000000,15492.000000,23467.000000,59473.000000
22975.000000,15508.000000,23438.000000,59501.000000
22979.000000,15483.000000,23426.000000,59467.000000
22976.000000,15466.000000,23432.000000,59492.000000
23008.000000,15493.000000,23436.000000,59504.000000
23007.000000,15465.000000,23411.000000,59488.000000
22985.000000,15493.000000,23389.000000,59468.000000
22951.000000,15491.000000,23383.000000,59472.000000
22982.000000,15494.000000,23365.000000,59453.000000
22951.000000,15444.000000,23389.000000,59448.000000
22949.000000,15449.000000,23387.000000,59465.000000
22941.000000,15463.000000,23393.000000,59434.000000
22942.000000,15414.000000,23325.000000,59434.000000
22942.000000,15426.000000,23339.000000,59427.000000
22938.000000,15436.000000,23363.000000,59404.000000
22943.000000,15429.000000,23307.000000,59440.000000
22876.000000,15420.000000,23334.000000,59441.000000
22887.000000,15376.000000,23320.000000,59415.000000
22861.000000,15401.000000,23289.000000,59425.000000
22847.000000,15388.000000,23309.000000,59411.000000
22851.000000,15411.000000,23284.000000,59365.000000
22869.000000,15395.000000,23279.000000,59394.000000
22794.000000,15358.000000,23280.000000,59347.000000
22837.000000,15367.000000,23273.000000,59359.000000
22821.000000,15384.000000,23212.000000,59375.000000
22803.000000,15346.000000,23220.000000,59343.000000
22802.000000,15315.000000,23204.000000,59348.000000
22770.000000,15319.000000,23164.000000,59338.000000
22751.000000,15305.000000,23175.000000,59335.000000
22747.000000,15303.000000,23150.000000,59311.000000
22721.000000,15286.000000,23112.000000,59315.000000
22684.000000,15298.000000,23133.000000,59273.000000
22706.000000,15272.000000,23101.000000,59265.000000
22673.000000,15251.000000,23089.000000,59258.000000
22668.000000,15228.000000,23075.000000,59269.000000
22671.000000,15257.000000,23041.000000,59251.000000
22647.000000,15231.000000,23070.000000,59259.000000
22645.000000,15205.000000,23061.000000,59236.000000
22641.000000,15207.000000,23029.000000,59250.000000
22598.000000,15183.000000,23039.000000,59266.000000
22618.000000,15226.000000,23017.000000,59223.000000
22630.000000,15200.000000,22972.000000,59215.000000
22629.000000,15181.000000,23020.000000,59205.000000
22595.000000,15189.000000,22993.000000,59204.000000
22589.000000,15161.000000,22993.000000,59202.000000
22584.000000,15167.000000,22990.000000,59192.000000
22584.000000,15159.000000,22990.000000,59213.000000
22555.000000,15174.000000,22949.000000,59203.000000
22537.000000,15170.000000,22945.000000,59191.000000
22547.000000,15171.000000,22899.000000,59188.000000
22540.000000,15186.000000,22905.000000,59157.000000
22520.000000,15138.000000,22879.000000,59166.000000
22542.000000,15140.000000,22905.000000,59167.000000
22518.000000,15143.000000,22896.000000,59156.000000
22516.000000,15133.000000,22836.000000,59137.000000
22479.000000,15070.000000,22842.000000,59140.000000
22488.000000,15102.000000,22803.000000,59120.000000
22461.000000,15087.000000,22762.000000,59097.000000
22425.000000,15052.000000,22754.000000,59120.000000
22413.000000,15039.000000,22753.000000,59088.000000
22421.000000,15027.000000,22709.000000,59055.000000
22392.000000,15059.000000,22681.000000,59077.000000
22374.000000,15065.000000,22695.000000,59053.000000
22345.000000,15011.000000,22690.000000,59043.000000
22357.000000,15007.000000,22652.000000,59034.000000
22354.000000,14983.000000,22688.000000,59037.000000
22350.000000,15027.000000,22673.000000,59029.000000
22359.000000,15012.000000,22675.000000,59021.000000
22360.000000,15002.000000,22641.000000,59024.000000
22374.000000,15009.000000,22690.000000,59045.000000
22370.000000,15043.000000,22717.000000,59052.000000
22397.000000,15012.000000,22718.000000,59052.000000
22378.000000,15030.000000,22722.000000,59073.000000
22405.000000,15037.000000,22743.000000,59088.000000
22449.000000,15082.000000,22776.000000,59103.000000
22427.000000,15070.000000,22789.000000,59100.000000
22495.000000,15066.000000,22807.000000,59114.000000
22457.000000,15091.000000,22814.000000,59103.000000
22484.000000,15092.000000,22859.000000,59141.000000
22498.000000,15114.000000,22868.000000,59164.000000
22531.000000,15151.000000,22866.000000,59162.000000
22537.000000,15149.000000,22874.000000,59173.000000
22585.000000,15158.000000,22930.000000,59202.000000
22582.000000,15181.000000,22978.000000,59196.000000
22602.000000,15187.000000,23008.000000,59215.000000
22613.000000,15217.000000,23008.000000,59254.000000
22616.000000,15214.000000,23011.000000,59259.000000
22638.000000,15252.000000,23073.000000,59252.000000
22684.000000,15216.000000,23095.000000,59296.000000
22705.000000,15281.000000,23103.000000,59336.000000
22727.000000,15292.000000,23128.000000,59316.000000
22721.000000,15312.000000,23184.000000,59371.000000
22800.000000,15328.000000,23251.000000,59382.000000
22831.000000,15366.000000,23268.000000,59389.000000
22838.000000,15364.000000,23287.000000,59388.000000
22870.000000,15400.000000,23347.000000,59410.000000
22922.000000,15454.000000,23372.000000,59483.000000
22935.000000,15483.000000,23429.000000,59510.000000
22982.000000,15506.000000,23460.000000,59535.000000
23025.000000,15529.000000,23511.000000,59521.000000
23075.000000,15561.000000,23559.000000,59545.000000
23122.000000,15556.000000,23557.000000,59577.000000
23138.000000,15540.000000,23575.000000,59597.000000
23131.000000,15595.000000,23613.000000,59626.000000
23127.000000,15607.000000,23641.000000,59596.000000
23150.000000,15585.000000,23604.000000,59585.000000
23124.000000,15591.000000,23628.000000,59628.000000
23113.000000,15578.000000,23596.000000,59583.000000
23110.000000,15569.000000,23611.000000,59580.000000
23088.000000,15562.000000,23575.000000,59600.000000
23095.000000,15560.000000,23581.000000,59552.000000
23105.000000,15568.000000,23565.000000,59554.000000
23099.000000,15552.000000,23537.000000,59561.000000
23079.000000,15511.000000,23536.000000,59569.000000
23071.000000,15556.000000,23530.000000,59557.000000
23074.000000,15530.000000,23531.000000,59555.000000
23025.000000,15542.000000,23508.000000,59548.000000
23047.000000,15544.000000,23495.000000,59526.000000
23017.000000,15517.000000,23490.000000,59525.000000
23000.000000,15522.000000,23478.000000,59548.000000
23037.000000,15485.000000,23457.000000,59517.000000
23026.000000,15491.000000,23443.000000,59508.000000
22982.000000,15489.000000,23444.000000,59502.000000
22988.000000,15519.000000,23424.000000,59483.000000
22935.000000,15466.000000,23415.000000,59461.000000
22941.000000,15444.000000,23392.000000,59476.000000
22967.000000,15477.000000,23389.000000,59465.000000
22924.000000,15436.000000,23384.000000,59469.000000
22910.000000,15446.000000,23383.000000,59456.000000
22932.000000,15436.000000,23361.000000,59453.000000
22891.000000,15427.000000,23370.000000,59442.000000
22886.000000,15400.000000,23366.000000,59440.000000
22901.000000,15444.000000,23349.000000,59426.000000
22876.000000,15412.000000,23327.000000,59434.000000
22848.000000,15420.000000,23303.000000,59412.000000
22872.000000,15371.000000,23289.000000,59363.000000
22875.000000,15342.000000,23273.000000,59405.000000
22808.000000,15382.000000,23288.000000,59392.000000
22821.000000,15380.000000,23285.000000,59394.000000
22831.000000,15397.000000,23236.000000,59370.000000
22799.000000,15380.000000,23225.000000,59365.000000
22777.000000,15344.000000,23226.000000,59372.000000
22778.000000,15294.000000,23211.000000,59371.000000
22730.000000,15314.000000,23168.000000,59355.000000
22747.000000,15307.000000,23161.000000,59345.000000
22740.000000,15318.000000,23159.000000,59349.000000
22739.000000,15316.000000,23183.000000,59312.000000
22709.000000,15269.000000,23145.000000,59318.000000
22737.000000,15276.000000,23109.000000,59301.000000
22695.000000,15301.000000,23152.000000,59307.000000
22704.000000,15248.000000,23114.000000,59284.000000
22675.000000,15229.000000,23072.000000,59270.000000
22687.000000,15252.000000,23068.000000,59280.000000
22677.000000,15237.000000,23068.000000,59269.000000
22651.000000,15222.000000,23051.000000,59256.000000
22668.000000,15218.000000,23068.000000,59263.000000
22621.000000,15228.000000,23060.000000,59244.000000
22615.000000,15234.000000,23022.000000,59231.000000
22604.000000,15223.000000,23006.000000,59207.000000
22599.000000,15186.000000,23022.000000,59228.000000
22608.000000,15194.000000,22989.000000,59211.000000
22595.000000,15170.000000,22966.000000,59231.000000
22563.000000,15180.000000,22959.000000,59203.000000
22559.000000,15182.000000,22951.000000,59197.000000
22574.000000,15155.000000,22928.000000,59158.000000
22558.000000,15151.000000,22920.000000,59184.000000
22512.000000,15156.000000,22929.000000,59193.000000
22528.000000,15163.000000,22890.000000,59181.000000
22492.000000,15098.000000,22851.000000,59135.000000
22459.000000,15108.000000,22853.000000,59138.000000
22458.000000,15092.000000,22815.000000,59146.000000
22446.000000,15095.000000,22815.000000,59105.000000
22410.000000,15085.000000,22790.000000,59078.000000
22412.000000,15065.000000,22750.000000,59079.000000
22417.000000,15044.000000,22750.000000,59087.000000
22394.000000,15054.000000,22753.000000,59053.000000
22348.000000,15036.000000,22732.000000,59078.000000
22377.000000,15040.000000,22714.000000,59024.000000
22336.000000,15026.000000,22673.000000,59024.000000
22354.000000,15015.000000,22720.000000,59059.000000
22347.000000,15033.000000,22710.000000,59070.000000
22332.000000,15021.000000,22678.000000,59064.000000
22388.000000,15036.000000,22721.000000,59073.000000
22409.000000,15034.000000,22734.000000,59096.000000
22391.000000,15028.000000,22759.000000,59080.000000
22444.000000,15071.000000,22752.000000,59094.000000
22451.000000,15085.000000,22767.000000,59087.000000
22451.000000,15063.000000,22773.000000,59121.000000
22428.000000,15107.000000,22801.000000,59120.000000
22520.000000,15102.000000,22841.000000,59145.000000
22510.000000,15098.000000,22887.000000,59161.000000
22534.000000,15115.000000,22934.000000,59200.000000
22524.000000,15150.000000,22912.000000,59178.000000
22568.000000,15172.000000,22923.000000,59184.000000
22581.000000,15156.000000,22935.000000,59206.000000
22603.000000,15196.000000,22970.000000,59208.000000
22609.000000,15222.000000,23016.000000,59257.000000
22661.000000,15199.000000,23050.000000,59272.000000
22635.000000,15232.000000,23084.000000,59312.000000
22682.000000,15267.000000,23136.000000,59310.000000
22682.000000,15259.000000,23134.000000,59334.000000
22723.000000,15290.000000,23181.000000,59323.000000
22723.000000,15292.000000,23188.000000,59329.000000
22734.000000,15298.000000,23230.000000,59390.000000
22767.000000,15320.000000,23298.000000,59395.000000
22814.000000,15345.000000,23320.000000,59412.000000
22881.000000,15378.000000,23321.000000,59400.000000
22846.000000,15408.000000,23362.000000,59458.000000
22881.000000,15431.000000,23419.000000,59492.000000
22983.000000,15458.000000,23431.000000,59499.000000
23008.000000,15450.000000,23484.000000,59525.000000
22983.000000,15540.000000,23520.000000,59551.000000
23043.000000,15560.000000,23572.000000,59583.000000
23121.000000,15568.000000,23619.000000,59602.000000
23116.000000,15581.000000,23625.000000,59605.000000
23160.000000,15587.000000,23674.000000,59614.000000
23158.000000,15609.000000,23685.000000,59640.000000
23149.000000,15608.000000,23701.000000,59646.000000
23130.000000,15622.000000,23676.000000,59645.000000
23165.000000,15583.000000,23727.000000,59634.000000
23117.000000,15618.000000,23704.000000,59657.000000
23123.000000,15569.000000,23648.000000,59622.000000
23122.000000,15578.000000,23645.000000,59599.000000
23115.000000,15572.000000,23649.000000,59614.000000
23104.000000,15605.000000,23657.000000,59600.000000
23099.000000,15551.000000,23604.000000,59627.000000
23096.000000,15562.000000,23593.000000,59586.000000
23093.000000,15553.000000,23591.000000,59579.000000
23060.000000,15540.000000,23580.000000,59576.000000
23063.000000,15560.000000,23585.000000,59587.000000
23057.000000,15552.000000,23539.000000,59555.000000
23040.000000,15572.000000,23562.000000,59575.000000
23041.000000,15527.000000,23514.000000,59588.000000
23013.000000,15530.000000,23517.000000,59547.000000
23003.000000,15521.000000,23512.000000,59553.000000
22992.000000,15526.000000,23507.000000,59531.000000
23014.000000,15504.000000,23501.000000,59539.000000
22924.000000,15482.000000,23466.000000,59497.000000
22943.000000,15451.000000,23441.000000,59501.000000
22911.000000,15459.000000,23435.000000,59494.000000
22901.000000,15462.000000,23447.000000,59496.000000
22890.000000,15456.000000,23394.000000,59470.000000
22861.000000,15418.000000,23423.000000,59431.000000
22884.000000,15423.000000,23388.000000,59455.000000
22854.000000,15407.000000,23385.000000,59449.000000
22832.000000,15403.000000,23397.000000,59453.000000
22848.000000,15406.000000,23365.000000,59446.000000
22828.000000,15356.000000,23336.000000,59406.000000
22823.000000,15388.000000,23353.000000,59389.000000
22814.000000,15379.000000,23307.000000,59385.000000
22765.000000,15363.000000,23323.000000,59423.000000
22776.000000,15372.000000,23321.000000,59423.000000
22783.000000,15363.000000,23265.000000,59373.000000
22775.000000,15333.000000,23248.000000,59383.000000
22762.000000,15350.000000,23251.000000,59354.000000
22762.000000,15329.000000,23286.000000,59348.000000
22734.000000,15306.000000,23205.000000,59357.000000
22717.000000,15317.000000,23203.000000,59371.000000
22743.000000,15310.000000,23179.000000,59355.000000
22688.000000,15291.000000,23201.000000,59340.000000
22687.000000,15272.000000,23182.000000,59300.000000
22685.000000,15294.000000,23144.000000,59307.000000
22697.000000,15261.000000,23152.000000,59318.000000
22691.000000,15247.000000,23118.000000,59325.000000
22651.000000,15259.000000,23135.000000,59310.000000
22649.000000,15256.000000,23117.000000,59287.000000
22655.000000,15203.000000,23076.000000,59290.000000
22640.000000,15238.000000,23106.000000,59294.000000
22658.000000,15200.000000,23084.000000,59266.000000
22658.000000,15236.000000,23077.000000,59251.000000
22571.000000,15223.000000,23025.000000,59249.000000
22589.000000,15210.000000,23047.000000,59264.000000
22605.000000,15201.000000,23022.000000,59230.000000
22585.000000,15215.000000,23027.000000,59225.000000
22572.000000,15186.000000,23029.000000,59201.000000
22565.000000,15160.000000,22982.000000,59208.000000
22543.000000,15135.000000,22976.000000,59233.000000
22543.000000,15145.000000,22978.000000,59216.000000
22542.000000,15186.000000,22974.000000,59171.000000
22513.000000,15123.000000,22870.000000,59194.000000
22474.000000,15118.000000,22897.000000,59171.000000
22484.000000,15079.000000,22893.000000,59154.000000
22443.000000,15079.000000,22871.000000,59144.000000
22438.000000,15079.000000,22830.000000,59141.000000
22370.000000,15069.000000,22791.000000,59099.000000
22377.000000,15043.000000,22800.000000,59120.000000
22376.000000,15024.000000,22781.000000,59118.000000
22408.000000,15049.000000,22781.000000,59103.000000
22360.000000,15056.000000,22814.000000,59116.000000
22388.000000,15058.000000,22800.000000,59097.000000
22415.000000,15028.000000,22817.000000,59129.000000
22432.000000,15043.000000,22850.000000,59164.000000
22474.000000,15119.000000,22872.000000,59135.000000
22423.000000,15096.000000,22874.000000,59174.000000
22457.000000,15119.000000,22924.000000,59151.000000
22472.000000,15101.000000,22920.000000,59206.000000
22494.000000,15155.000000,22933.000000,59200.000000
22507.000000,15161.000000,22972.000000,59194.000000
22551.000000,15149.000000,22994.000000,59218.000000
22534.000000,15171.000000,23004.000000,59226.000000
22560.000000,15183.000000,23018.000000,59235.000000
22553.000000,15207.000000,23058.000000,59272.000000
22620.000000,15242.000000,23131.000000,59326.000000
22658.000000,15272.000000,23128.000000,59301.000000
22685.000000,15284.000000,23166.000000,59348.000000
22746.000000,15314.000000,23224.000000,59354.000000
22724.000000,15296.000000,23223.000000,59360.000000
22794.000000,15336.000000,23281.000000,59400.000000
22782.000000,15347.000000,23330.000000,59450.000000
22822.000000,15387.000000,23339.000000,59454.000000
22876.000000,15415.000000,23412.000000,59467.000000
22907.000000,15453.000000,23413.000000,59498.000000
23039.000000,15506.000000,23519.000000,59559.000000
23059.000000,15528.000000,23550.000000,59594.000000
23074.000000,15571.000000,23600.000000,59580.000000
23115.000000,15568.000000,23623.000000,59596.000000
23127.000000,15549.000000,23666.000000,59626.000000
23170.000000,15612.000000,23706.000000,59655.000000
23160.000000,15630.000000,23739.000000,59667.000000
23197.000000,15608.000000,23694.000000,59668.000000
23167.000000,15597.000000,23706.000000,59639.000000
23155.000000,15596.000000,23729.000000,59644.000000
23158.000000,15581.000000,23706.000000,59664.000000
23150.000000,15617.000000,23665.000000,59613.000000
23095.000000,15592.000000,23672.000000,59627.000000
23119.000000,15580.000000,23692.000000,59621.000000
23123.000000,15566.000000,23634.000000,59609.000000
23097.000000,15538.000000,23609.000000,59595.000000
23090.000000,15562.000000,23612.000000,59583.000000
23055.000000,15559.000000,23580.000000,59592.000000
23065.000000,15546.000000,23575.000000,59575.000000
23083.000000,15545.000000,23558.000000,59605.000000
23046.000000,15535.000000,23604.000000,59586.000000
23028.000000,15558.000000,23565.000000,59595.000000
23030.000000,15524.000000,23521.000000,59571.000000
23000.000000,15515.000000,23505.000000,59553.000000
23005.000000,15536.000000,23513.000000,59535.000000
23001.000000,15489.000000,23531.000000,59519.000000
22951.000000,15489.000000,23494.000000,59560.000000
22941.000000,15496.000000,23479.000000,59491.000000
22926.000000,15453.000000,23420.000000,59490.000000
22956.000000,15429.000000,23426.000000,59494.000000
22919.000000,15455.000000,23429.000000,59503.000000
22887.000000,15414.000000,23411.000000,59473.000000
22874.000000,15374.000000,23397.000000,59453.000000
22865.000000,15419.000000,23412.000000,59490.000000
22864.000000,15392.000000,23408.000000,59493.000000
22866.000000,15382.000000,23375.000000,59458.000000
22839.000000,15384.000000,23358.000000,59416.000000
22804.000000,15370.000000,23340.000000,59443.000000
22803.000000,15347.000000,23314.000000,59410.000000
22810.000000,15329.000000,23299.000000,59384.000000
22790.000000,15370.000000,23318.000000,59428.000000
22779.000000,15363.000000,23291.000000,59403.000000
22780.000000,15311.000000,23289.000000,59354.000000
22762.000000,15365.000000,23292.000000,59358.000000
22740.000000,15283.000000,23269.000000,59368.000000
22740.000000,15317.000000,23238.000000,59361.000000
22741.000000,15282.000000,23231.000000,59366.000000
22715.000000,15302.000000,23232.000000,59348.000000
22739.000000,15293.000000,23220.000000,59350.000000
22721.000000,15282.000000,23199.000000,59337.000000
22688.000000,15280.000000,23204.000000,59356.000000
22696.000000,15289.000000,23200.000000,59324.000000
22684.000000,15303.000000,23155.000000,59322.000000
22663.000000,15248.000000,23162.000000,59346.000000
22699.000000,15240.000000,23153.000000,59329.000000
22683.000000,15259.000000,23137.000000,59326.000000
22691.000000,15241.000000,23157.000000,59295.000000
22659.000000,15221.000000,23129.000000,59301.000000
22671.000000,15218.000000,23109.000000,59306.000000
22632.000000,15226.000000,23100.000000,59333.000000
22641.000000,15216.000000,23114.000000,59330.000000
22633.000000,15217.000000,23084.000000,59267.000000
22608.000000,15214.000000,23044.000000,59260.000000
22592.000000,15199.000000,23048.000000,59236.000000
22551.000000,15178.000000,23019.000000,59243.000000
22568.000000,15190.000000,23008.000000,59215.000000
22505.000000,15144.000000,23000.000000,59226.000000
22510.000000,15138.000000,23001.000000,59234.000000
22483.000000,15109.000000,22959.000000,59208.000000
22498.000000,15087.000000,22925.000000,59178.000000
22447.000000,15106.000000,22914.000000,59168.000000
22443.000000,15088.000000,22878.000000,59162.000000
22442.000000,15069.000000,22920.000000,59158.000000
22442.000000,15094.000000,22889.000000,59147.000000
22418.000000,15049.000000,22854.000000,59152.000000
22444.000000,15115.000000,22837.000000,59123.000000
22428.000000,15080.000000,22868.000000,59140.000000
22437.000000,15057.000000,22862.000000,59160.000000
22424.000000,15063.000000,22881.000000,59163.000000
22442.000000,15070.000000,22888.000000,59175.000000
22441.000000,15085.000000,22896.000000,59149.000000
22479.000000,15103.000000,22897.000000,59169.000000
22463.000000,15096.000000,22921.000000,59202.000000
22483.000000,15145.000000,22913.000000,59203.000000
22492.000000,15133.000000,22975.000000,59248.000000
22567.000000,15153.000000,22964.000000,59226.000000
22539.000000,15138.000000,23003.000000,59227.000000
22551.000000,15145.000000,23036.000000,59240.000000
22585.000000,15168.000000,23043.000000,59244.000000
22585.000000,15184.000000,23055.000000,59284.000000
22577.000000,15170.000000,23081.000000,59315.000000
22660.000000,15221.000000,23108.000000,59284.000000
22649.000000,15220.000000,23106.000000,59319.000000
22679.000000,15256.000000,23136.000000,59342.000000
22668.000000,15254.000000,23174.000000,59326.000000
22717.000000,15273.000000,23182.000000,59370.000000
22702.000000,15270.000000,23240.000000,59416.000000
22772.000000,15306.000000,23263.000000,59402.000000
22757.000000,15312.000000,23297.000000,59404.000000
22842.000000,15362.000000,23350.000000,59417.000000
22844.000000,15330.000000,23323.000000,59431.000000
22870.000000,15368.000000,23384.000000,59431.000000
22892.000000,15433.000000,23400.000000,59501.000000
22924.000000,15438.000000,23459.000000,59539.000000
22983.000000,15498.000000,23476.000000,59568.000000
22985.000000,15508.000000,23504.000000,59576.000000
23053.000000,15539.000000,23566.000000,59573.000000
23040.000000,15529.000000,23578.000000,59606.000000
23114.000000,15566.000000,23659.000000,59641.000000
23138.000000,15585.000000,23705.000000,59664.000000
23154.000000,15620.000000,23733.000000,59658.000000
23210.000000,15623.000000,23755.000000,59695.000000
23218.000000,15662.000000,23825.000000,59706.000000
23236.000000,15652.000000,23814.000000,59729.000000
23236.000000,15628.000000,23858.000000,59739.000000
23248.000000,15656.000000,23885.000000,59748.000000
23255.000000,15685.000000,23824.000000,59759.000000
23240.000000,15689.000000,23857.000000,59752.000000
23230.000000,15652.000000,23809.000000,59744.000000
23226.000000,15655.000000,23845.000000,59702.000000
23209.000000,15668.000000,23791.000000,59721.000000
23210.000000,15628.000000,23817.000000,59690.000000
23172.000000,15598.000000,23786.000000,59695.000000
23189.000000,15624.000000,23802.000000,59699.000000
23195.000000,15612.000000,23760.000000,59682.000000
23158.000000,15642.000000,23756.000000,59684.000000
23155.000000,15586.000000,23743.000000,59653.000000
23149.000000,15589.000000,23723.000000,59678.000000
23128.000000,15610.000000,23719.000000,59664.000000
23119.000000,15586.000000,23730.000000,59670.000000
23108.000000,15560.000000,23702.000000,59638.000000
23119.000000,15572.000000,23697.000000,59643.000000
23114.000000,15564.000000,23661.000000,59622.000000
23087.000000,15561.000000,23689.000000,59631.000000
23073.000000,15541.000000,23654.000000,59625.000000
23053.000000,15528.000000,23694.000000,59625.000000
23057.000000,15519.000000,23644.000000,59609.000000
23041.000000,15551.000000,23621.000000,59588.000000
23050.000000,15544.000000,23625.000000,59596.000000
23020.000000,15550.000000,23608.000000,59589.000000
23040.000000,15543.000000,23583.000000,59576.000000
23002.000000,15502.000000,23593.000000,59584.000000
22989.000000,15510.000000,23579.000000,59604.000000
22988.000000,15537.000000,23564.000000,59568.000000
23017.000000,15492.000000,23557.000000,59530.000000
22962.000000,15524.000000,23546.000000,59563.000000
22967.000000,15483.000000,23513.000000,59538.000000
22943.000000,15486.000000,23540.000000,59547.000000
22944.000000,15498.000000,23507.000000,59524.000000
22894.000000,15432.000000,23476.000000,59511.000000
22920.000000,15430.000000,23497.000000,59507.000000
22902.000000,15469.000000,23435.000000,59518.000000
22902.000000,15431.000000,23462.000000,59514.000000
22848.000000,15397.000000,23456.000000,59519.000000
22856.000000,15446.000000,23454.000000,59505.000000
22824.000000,15379.000000,23455.000000,59474.000000
22849.000000,15385.000000,23407.000000,59446.000000
22845.000000,15399.000000,23405.000000,59488.000000
22824.000000,15371.000000,23383.000000,59483.000000
22812.000000,15369.000000,23382.000000,59489.000000
22783.000000,15356.000000,23349.000000,59469.000000
22764.000000,15321.000000,23301.000000,59433.000000
22764.000000,15299.000000,23324.000000,59419.000000
22746.000000,15310.000000,23287.000000,59385.000000
22766.000000,15344.000000,23302.000000,59379.000000
22733.000000,15288.000000,23274.000000,59396.000000
22725.000000,15286.000000,23270.000000,59387.000000
22685.000000,15272.000000,23252.000000,59408.000000
22730.000000,15289.000000,23240.000000,59368.000000
22689.000000,15245.000000,23200.000000,59359.000000
22638.000000,15229.000000,23201.000000,59361.000000
22650.000000,15255.000000,23180.000000,59347.000000
22628.000000,15223.000000,23161.000000,59325.000000
22600.000000,15218.000000,23135.000000,59303.000000
22591.000000,15179.000000,23107.000000,59321.000000
22573.000000,15190.000000,23104.000000,59254.000000
22577.000000,15161.000000,23075.000000,59279.000000
22551.000000,15153.000000,23078.000000,59283.000000
22508.000000,15166.000000,23056.000000,59246.000000
22506.000000,15156.000000,23014.000000,59242.000000
22499.000000,15125.000000,22997.000000,59248.000000
22497.000000,15173.000000,23003.000000,59245.000000
22509.000000,15113.000000,23012.000000,59238.000000
22507.000000,15124.000000,22985.000000,59250.000000
22489.000000,15115.000000,23022.000000,59240.000000
22518.000000,15130.000000,22997.000000,59234.000000
22500.000000,15121.000000,23026.000000,59236.000000
22544.000000,15161.000000,23021.000000,59245.000000
22517.000000,15116.000000,23034.000000,59249.000000
22535.000000,15138.000000,23009.000000,59241.000000
22560.000000,15140.000000,23067.000000,59267.000000
22542.000000,15159.000000,23068.000000,59284.000000
22569.000000,15193.000000,23097.000000,59279.000000
22589.000000,15175.000000,23103.000000,59306.000000
22585.000000,15189.000000,23122.000000,59324.000000
22623.000000,15215.000000,23156.000000,59332.000000
22658.000000,15235.000000,23149.000000,59335.000000
22619.000000,15222.000000,23192.000000,59336.000000
22642.000000,15252.000000,23159.000000,59343.000000
22656.000000,15248.000000,23225.000000,59355.000000
22720.000000,15277.000000,23241.000000,59377.000000
22710.000000,15290.000000,23266.000000,59396.000000
22738.000000,15305.000000,23267.000000,59406.000000
22747.000000,15319.000000,23319.000000,59435.000000
22807.000000,15329.000000,23353.000000,59427.000000
22788.000000,15352.000000,23364.000000,59463.000000
22808.000000,15395.000000,23355.000000,59469.000000
22838.000000,15400.000000,23406.000000,59524.000000
22869.000000,15412.000000,23454.000000,59525.000000
22916.000000,15436.000000,23477.000000,59536.000000
22962.000000,15463.000000,23487.000000,59556.000000
22957.000000,15447.000000,23552.000000,59565.000000
22978.000000,15477.000000,23568.000000,59602.000000
23067.000000,15542.000000,23603.000000,59610.000000
23127.000000,15571.000000,23680.000000,59642.000000
23106.000000,15566.000000,23717.000000,59671.000000
23145.000000,15578.000000,23733.000000,59715.000000
23183.000000,15622.000000,23800.000000,59704.000000
23244.000000,15648.000000,23809.000000,59711.000000
23252.000000,15699.000000,23866.000000,59755.000000
23311.000000,15664.000000,23888.000000,59769.000000
23302.000000,15708.000000,23915.000000,59775.000000
23299.000000,15695.000000,23901.000000,59782.000000
23300.000000,15716.000000,23930.000000,59792.000000
23296.000000,15696.000000,23935.000000,59806.000000
23291.000000,15687.000000,23882.000000,59761.000000
23270.000000,15650.000000,23873.000000,59778.000000
23244.000000,15687.000000,23887.000000,59748.000000
23283.000000,15680.000000,23872.000000,59737.000000
23261.000000,15656.000000,23863.000000,59727.000000
23221.000000,15645.000000,23866.000000,59734.000000
23234.000000,15651.000000,23864.000000,59733.000000
23214.000000,15642.000000,23820.000000,59725.000000
23225.000000,15639.000000,23808.000000,59713.000000
23212.000000,15627.000000,23846.000000,59727.000000
23198.000000,15630.000000,23805.000000,59704.000000
23195.000000,15618.000000,23791.000000,59710.000000
23181.000000,15593.000000,23801.000000,59693.000000
23163.000000,15601.000000,23777.000000,59686.000000
23193.000000,15597.000000,23749.000000,59662.000000
23127.000000,15636.000000,23748.000000,59693.000000
23158.000000,15609.000000,23773.000000,59647.000000
23141.000000,15595.000000,23719.000000,59658.000000
23148.000000,15571.000000,23740.000000,59671.000000
23126.000000,15551.000000,23738.000000,59684.000000
23115.000000,15585.000000,23756.000000,59647.000000
23094.000000,15576.000000,23709.000000,59641.000000
23090.000000,15587.000000,23693.000000,59651.000000
23079.000000,15594.000000,23690.000000,59648.000000
23051.000000,15553.000000,23675.000000,59625.000000
23057.000000,15532.000000,23661.000000,59632.000000
23050.000000,15524.000000,23695.000000,59634.000000
23053.000000,15526.000000,23648.000000,59609.000000
23026.000000,15495.000000,23596.000000,59582.000000
23024.000000,15534.000000,23609.000000,59596.000000
22999.000000,15497.000000,23603.000000,59589.000000
23009.000000,15505.000000,23556.000000,59587.000000
22959.000000,15491.000000,23557.000000,59553.000000
22927.000000,15484.000000,23552.000000,59583.000000
22951.000000,15492.000000,23542.000000,59554.000000
22933.000000,15439.000000,23538.000000,59555.000000
22925.000000,15462.000000,23525.000000,59579.000000
22876.000000,15422.000000,23484.000000,59573.000000
22891.000000,15428.000000,23453.000000,59562.000000
22866.000000,15434.000000,23444.000000,59508.000000
22876.000000,15406.000000,23463.000000,59511.000000
22885.000000,15408.000000,23467.000000,59486.000000
22884.000000,15414.000000,23442.000000,59505.000000
22844.000000,15399.000000,23441.000000,59483.000000
22827.000000,15394.000000,23448.000000,59478.000000
22817.000000,15393.000000,23445.000000,59498.000000
22813.000000,15418.000000,23406.000000,59488.000000
22816.000000,15392.000000,23404.000000,59460.000000
22774.000000,15359.000000,23429.000000,59482.000000
22816.000000,15366.000000,23391.000000,59447.000000
22786.000000,15335.000000,23389.000000,59480.000000
22789.000000,15318.000000,23369.000000,59477.000000
22768.000000,15350.000000,23389.000000,59468.000000
22726.000000,15341.000000,23362.000000,59458.000000
22728.000000,15319.000000,23321.000000,59427.000000
22740.000000,15331.000000,23354.000000,59413.000000
22729.000000,15308.000000,23343.000000,59395.000000
22697.000000,15314.000000,23297.000000,59399.000000
22663.000000,15263.000000,23273.000000,59408.000000
22673.000000,15291.000000,23248.000000,59386.000000
22682.000000,15284.000000,23288.000000,59385.000000
22656.000000,15245.000000,23228.000000,59368.000000
22622.000000,15225.000000,23180.000000,59351.000000
22621.000000,15205.000000,23191.000000,59350.000000
22602.000000,15205.000000,23170.000000,59357.000000
22603.000000,15201.000000,23201.000000,59332.000000
22567.000000,15180.000000,23147.000000,59342.000000
22563.000000,15176.000000,23147.000000,59351.000000
22597.000000,15192.000000,23174.000000,59331.000000
22601.000000,15172.000000,23149.000000,59338.000000
22575.000000,15203.000000,23171.000000,59355.000000
22615.000000,15196.000000,23197.000000,59331.000000
22626.000000,15230.000000,23193.000000,59346.000000
22648.000000,15220.000000,23202.000000,59329.000000
22656.000000,15225.000000,23216.000000,59355.000000
22652.000000,15210.000000,23226.000000,59386.000000
22659.000000,15254.000000,23253.000000,59382.000000
22683.000000,15258.000000,23253.000000,59383.000000
22707.000000,15266.000000,23284.000000,59409.000000
22682.000000,15289.000000,23276.000000,59426.000000
22715.000000,15283.000000,23307.000000,59417.000000
22756.000000,15307.000000,23316.000000,59412.000000
22738.000000,15313.000000,23364.000000,59455.000000
22785.000000,15283.000000,23390.000000,59481.000000
22776.000000,15361.000000,23401.000000,59489.000000
22796.000000,15372.000000,23416.000000,59478.000000
22803.000000,15355.000000,23410.000000,59512.000000
22820.000000,15390.000000,23483.000000,59487.000000
22832.000000,15382.000000,23466.000000,59529.000000
22849.000000,15414.000000,23491.000000,59572.000000
22896.000000,15416.000000,23519.000000,59527.000000
22877.000000,15482.000000,23554.000000,59567.000000
22956.000000,15459.000000,23591.000000,59604.000000
22944.000000,15475.000000,23593.000000,59610.000000
23010.000000,15521.000000,23626.000000,59613.000000
23047.000000,15535.000000,23698.000000,59659.000000
23050.000000,15547.000000,23747.000000,59671.000000
23074.000000,15573.000000,23777.000000,59680.000000
23126.000000,15587.000000,23834.000000,59725.000000
23177.000000,15592.000000,23863.000000,59752.000000
23187.000000,15649.000000,23884.000000,59752.000000
23247.000000,15684.000000,23946.000000,59824.000000
23265.000000,15683.000000,23973.000000,59816.000000
23309.000000,15722.000000,24041.000000,59860.000000
23368.000000,15752.000000,24034.000000,59858.000000
23359.000000,15738.000000,24080.000000,59868.000000
23377.000000,15746.000000,24100.000000,59870.000000
23399.000000,15722.000000,24094.000000,59860.000000
23356.000000,15751.000000,24096.000000,59874.000000
23355.000000,15717.000000,24099.000000,59877.000000
23343.000000,15767.000000,24087.000000,59886.000000
23351.000000,15760.000000,24037.000000,59852.000000
23319.000000,15752.000000,24056.000000,59859.000000
23319.000000,15704.000000,24029.000000,59852.000000
23276.000000,15726.000000,24009.000000,59829.000000
23283.000000,15698.000000,23994.000000,59843.000000
23265.000000,15698.000000,23971.000000,59836.000000
23232.000000,15671.000000,23995.000000,59825.000000
23244.000000,15681.000000,23952.000000,59794.000000
23264.000000,15686.000000,23956.000000,59791.000000
23247.000000,15700.000000,23920.000000,59796.000000
23244.000000,15641.000000,23930.000000,59810.000000
23222.000000,15636.000000,23926.000000,59787.000000
23211.000000,15648.000000,23906.000000,59776.000000
23216.000000,15623.000000,23873.000000,59767.000000
23202.000000,15678.000000,23851.000000,59763.000000
23195.000000,15643.000000,23917.000000,59726.000000
23187.000000,15628.000000,23854.000000,59729.000000
23178.000000,15613.000000,23825.000000,59723.000000
23114.000000,15577.000000,23845.000000,59736.000000
23143.000000,15606.000000,23811.000000,59718.000000
23106.000000,15595.000000,23809.000000,59693.000000
23102.000000,15596.000000,23804.000000,59675.000000
23099.000000,15528.000000,23771.000000,59662.000000
23085.000000,15584.000000,23754.000000,59669.000000
23091.000000,15566.000000,23725.000000,59684.000000
23087.000000,15554.000000,23747.000000,59693.000000
23079.000000,15582.000000,23731.000000,59666.000000
23040.000000,15568.000000,23721.000000,59660.000000
23037.000000,15530.000000,23726.000000,59654.000000
23031.000000,15526.000000,23703.000000,59636.000000
23057.000000,15491.000000,23680.000000,59636.000000
23003.000000,15491.000000,23659.000000,59601.000000
22957.000000,15515.000000,23607.000000,59596.000000
22964.000000,15486.000000,23619.000000,59596.000000
22915.000000,15512.000000,23606.000000,59555.000000
22953.000000,15479.000000,23579.000000,59597.000000
22898.000000,15467.000000,23563.000000,59580.000000
22853.000000,15446.000000,23568.000000,59577.000000
22877.000000,15418.000000,23559.000000,59577.000000
22897.000000,15465.000000,23541.000000,59562.000000
22831.000000,15407.000000,23532.000000,59565.000000
22853.000000,15412.000000,23503.000000,59525.000000
22841.000000,15396.000000,23479.000000,59548.000000
22830.000000,15371.000000,23504.000000,59532.000000
22803.000000,15355.000000,23488.000000,59538.000000
22822.000000,15401.000000,23456.000000,59511.000000
22829.000000,15386.000000,23463.000000,59528.000000
22788.000000,15369.000000,23473.000000,59490.000000
22785.000000,15348.000000,23437.000000,59475.000000
22766.000000,15346.000000,23416.000000,59487.000000
22752.000000,15307.000000,23418.000000,59483.000000
22775.000000,15363.000000,23418.000000,59470.000000
22769.000000,15337.000000,23414.000000,59457.000000
22752.000000,15368.000000,23394.000000,59459.000000
22721.000000,15313.000000,23370.000000,59436.000000
22729.000000,15311.000000,23371.000000,59438.000000
22736.000000,15328.000000,23369.000000,59453.000000
22711.000000,15319.000000,23336.000000,59399.000000
22722.000000,15314.000000,23336.000000,59419.000000
22683.000000,15277.000000,23321.000000,59391.000000
22664.000000,15250.000000,23281.000000,59386.000000
22659.000000,15214.000000,23270.000000,59410.000000
22633.000000,15213.000000,23232.000000,59365.000000
22632.000000,15220.000000,23207.000000,59345.000000
22603.000000,15215.000000,23211.000000,59342.000000
22610.000000,15179.000000,23191.000000,59344.000000
22589.000000,15187.000000,23174.000000,59343.000000
22571.000000,15203.000000,23197.000000,59358.000000
22556.000000,15174.000000,23172.000000,59325.000000
22599.000000,15191.000000,23154.000000,59324.000000
22552.000000,15161.000000,23151.000000,59305.000000
22606.000000,15210.000000,23169.000000,59347.000000
22568.000000,15193.000000,23166.000000,59357.000000
22593.000000,15225.000000,23201.000000,59364.000000
22629.000000,15228.000000,23229.000000,59358.000000
22641.000000,15225.000000,23264.000000,59375.000000
22629.000000,15237.000000,23278.000000,59408.000000
22632.000000,15258.000000,23308.000000,59416.000000
22702.000000,15290.000000,23311.000000,59427.000000
22707.000000,15257.000000,23323.000000,59401.000000
22698.000000,15296.000000,23346.000000,59439.000000
22727.000000,15308.000000,23358.000000,59415.000000
22739.000000,15289.000000,23350.000000,59451.000000
22766.000000,15270.000000,23388.000000,59451.000000
22808.000000,15348.000000,23491.000000,59537.000000
22819.000000,15394.000000,23460.000000,59528.000000
22834.000000,15408.000000,23503.000000,59574.000000
22856.000000,15421.000000,23545.000000,59586.000000
22882.000000,15438.000000,23566.000000,59575.000000
22924.000000,15461.000000,23572.000000,59602.000000
22899.000000,15490.000000,23600.000000,59629.000000
22979.000000,15511.000000,23641.000000,59620.000000
22992.000000,15512.000000,23665.000000,59657.000000
23037.000000,15528.000000,23723.000000,59667.000000
23055.000000,15555.000000,23781.000000,59690.000000
23114.000000,15583.000000,23815.000000,59731.000000
23134.000000,15584.000000,23856.000000,59729.000000
23129.000000,15582.000000,23881.000000,59782.000000
23213.000000,15624.000000,23922.000000,59756.000000
23227.000000,15639.000000,23946.000000,59806.000000
23263.000000,15678.000000,23980.000000,59835.000000
23290.000000,15682.000000,24043.000000,59832.000000
23322.000000,15694.000000,24035.000000,59859.000000
23344.000000,15723.000000,24077.000000,59865.000000
23309.000000,15708.000000,24053.000000,59835.000000
23319.000000,15701.000000,24015.000000,59860.000000
23332.000000,15740.000000,24046.000000,59867.000000
23330.000000,15718.000000,24010.000000,59852.000000
23305.000000,15703.000000,23950.000000,59829.000000
23270.000000,15679.000000,23967.000000,59840.000000
23277.000000,15679.000000,23968.000000,59800.000000
23262.000000,15651.000000,23963.000000,59775.000000
23247.000000,15688.000000,23922.000000,59784.000000
23235.000000,15662.000000,23919.000000,59753.000000
23220.000000,15643.000000,23918.000000,59784.000000
23226.000000,15614.000000,23894.000000,59784.000000
23256.000000,15639.000000,23899.000000,59776.000000
23201.000000,15655.000000,23891.000000,59768.000000
23170.000000,15603.000000,23834.000000,59713.000000
23148.000000,15580.000000,23808.000000,59733.000000
23115.000000,15567.000000,23805.000000,59727.000000
23139.000000,15621.000000,23804.000000,59716.000000
23128.000000,15558.000000,23781.000000,59699.000000
23106.000000,15597.000000,23795.000000,59708.000000
23107.000000,15579.000000,23767.000000,59673.000000
23070.000000,15535.000000,23751.000000,59696.000000
23066.000000,15547.000000,23774.000000,59686.000000
23074.000000,15550.000000,23731.000000,59669.000000
23046.000000,15517.000000,23689.000000,59658.000000
23062.000000,15532.000000,23698.000000,59634.000000
23017.000000,15526.000000,23727.000000,59664.000000
23030.000000,15507.000000,23666.000000,59636.000000
22996.000000,15516.000000,23685.000000,59630.000000
22980.000000,15518.000000,23644.000000,59607.000000
22982.000000,15492.000000,23604.000000,59608.000000
22958.000000,15488.000000,23622.000000,59622.000000
22968.000000,15460.000000,23597.000000,59591.000000
22952.000000,15450.000000,23572.000000,59597.000000
22955.000000,15486.000000,23575.000000,59579.000000
22974.000000,15479.000000,23561.000000,59583.000000
22903.000000,15414.000000,23555.000000,59565.000000
22935.000000,15447.000000,23541.000000,59581.000000
22915.000000,15439.000000,23498.000000,59549.000000
22871.000000,15415.000000,23501.000000,59553.000000
22871.000000,15456.000000,23480.000000,59529.000000
22874.000000,15424.000000,23466.000000,59539.000000
22855.000000,15362.000000,23454.000000,59524.000000
22839.000000,15368.000000,23468.000000,59512.000000
22830.000000,15372.000000,23461.000000,59500.000000
22812.000000,15341.000000,23433.000000,59528.000000
22762.000000,15338.000000,23463.000000,59493.000000
22802.000000,15347.000000,23422.000000,59511.000000
22780.000000,15340.000000,23405.000000,59476.000000
22780.000000,15342.000000,23392.000000,59451.000000
22774.000000,15307.000000,23376.000000,59490.000000
22752.000000,15321.000000,23377.000000,59460.000000
22748.000000,15311.000000,23361.000000,59438.000000
22772.000000,15312.000000,23368.000000,59438.000000
22740.000000,15320.000000,23336.000000,59427.000000
22720.000000,15306.000000,23371.000000,59419.000000
22724.000000,15261.000000,23347.000000,59412.000000
22721.000000,15309.000000,23294.000000,59429.000000
22711.000000,15266.000000,23335.000000,59426.000000
22697.000000,15243.000000,23278.000000,59402.000000
22671.000000,15288.000000,23257.000000,59406.000000
22654.000000,15242.000000,23248.000000,59358.000000
22644.000000,15219.000000,23223.000000,59371.000000
22639.000000,15232.000000,23206.000000,59374.000000
22631.000000,15225.000000,23187.000000,59319.000000
22620.000000,15197.000000,23170.000000,59332.000000
22551.000000,15194.000000,23112.000000,59287.000000
22567.000000,15167.000000,23138.000000,59301.000000
22589.000000,15176.000000,23102.000000,59302.000000
22543.000000,15184.000000,23103.000000,59306.000000
22549.000000,15168.000000,23126.000000,59319.000000
22536.000000,15154.000000,23095.000000,59306.000000
22532.000000,15164.000000,23108.000000,59311.000000
22587.000000,15174.000000,23116.000000,59284.000000
22580.000000,15124.000000,23100.000000,59300.000000
22575.000000,15151.000000,23119.000000,59348.000000
22565.000000,15171.000000,23157.000000,59311.000000
22600.000000,15187.000000,23173.000000,59348.000000
22611.000000,15205.000000,23150.000000,59357.000000
22620.000000,15218.000000,23167.000000,59338.000000
22618.000000,15249.000000,23213.000000,59358.000000
22655.000000,15227.000000,23210.000000,59366.000000
22670.000000,15255.000000,23248.000000,59381.000000
22683.000000,15237.000000,23243.000000,59374.000000
22690.000000,15286.000000,23295.000000,59392.000000
22733.000000,15256.000000,23295.000000,59397.000000
22742.000000,15288.000000,23311.000000,59421.000000
22764.000000,15297.000000,23332.000000,59411.000000
22760.000000,15289.000000,23340.000000,59452.000000
22808.000000,15305.000000,23378.000000,59477.000000
22809.000000,15348.000000,23441.000000,59497.000000
22846.000000,15328.000000,23420.000000,59517.000000
22888.000000,15383.000000,23447.000000,59534.000000
22914.000000,15405.000000,23456.000000,59540.000000
22942.000000,15424.000000,23493.000000,59549.000000
22923.000000,15471.000000,23520.000000,59587.000000
22978.000000,15458.000000,23544.000000,59570.000000
23018.000000,15480.000000,23555.000000,59584.000000
23053.000000,15500.000000,23580.000000,59635.000000
23075.000000,15544.000000,23680.000000,59652.000000
23081.000000,15523.000000,23727.000000,59665.000000
23143.000000,15530.000000,23734.000000,59700.000000
23166.000000,15564.000000,23713.000000,59695.000000
23190.000000,15609.000000,23815.000000,59743.000000
23234.000000,15600.000000,23839.000000,59753.000000
23260.000000,15627.000000,23901.000000,59783.000000
23266.000000,15654.000000,23921.000000,59806.000000
23339.000000,15709.000000,23944.000000,59827.000000
23306.000000,15718.000000,23998.000000,59851.000000
23379.000000,15717.000000,24016.000000,59839.000000
23389.000000,15716.000000,24033.000000,59827.000000
23366.000000,15720.000000,24020.000000,59839.000000
23382.000000,15731.000000,24026.000000,59855.000000
23378.000000,15723.000000,24028.000000,59845.000000
23347.000000,15729.000000,23985.000000,59859.000000
23345.000000,15681.000000,23977.000000,59830.000000
23347.000000,15699.000000,23979.000000,59830.000000
23332.000000,15682.000000,23949.000000,59827.000000
23329.000000,15673.000000,23966.000000,59828.000000
23311.000000,15692.000000,23952.000000,59843.000000
23312.000000,15679.000000,23939.000000,59789.000000
23308.000000,15689.000000,23916.000000,59766.000000
23311.000000,15642.000000,23910.000000,59772.000000
23306.000000,15664.000000,23915.000000,59778.000000
23288.000000,15639.000000,23864.000000,59783.000000
23262.000000,15651.000000,23884.000000,59769.000000
23246.000000,15600.000000,23881.000000,59789.000000
23225.000000,15612.000000,23847.000000,59768.000000
23254.000000,15637.000000,23844.000000,59706.000000
23226.000000,15624.000000,23830.000000,59733.000000
23201.000000,15601.000000,23844.000000,59744.000000
23197.000000,15622.000000,23838.000000,59723.000000
23208.000000,15604.000000,23828.000000,59738.000000
23180.000000,15611.000000,23796.000000,59712.000000
23198.000000,15609.000000,23808.000000,59718.000000
23163.000000,15604.000000,23780.000000,59688.000000
23148.000000,15572.000000,23794.000000,59697.000000
23125.000000,15568.000000,23733.000000,59689.000000
23113.000000,15594.000000,23726.000000,59665.000000
23094.000000,15550.000000,23718.000000,59677.000000
23102.000000,15548.000000,23713.000000,59668.000000
23088.000000,15551.000000,23709.000000,59646.000000
23064.000000,15529.000000,23681.000000,59637.000000
23051.000000,15524.000000,23677.000000,59666.000000
23008.000000,15541.000000,23641.000000,59641.000000
23032.000000,15528.000000,23657.000000,59610.000000
23035.000000,15516.000000,23605.000000,59611.000000
22972.000000,15472.000000,23629.000000,59610.000000
22998.000000,15482.000000,23585.000000,59592.000000
22972.000000,15425.000000,23567.000000,59572.000000
22977.000000,15474.000000,23548.000000,59595.000000
22959.000000,15460.000000,23565.000000,59593.000000
22941.000000,15471.000000,23574.000000,59563.000000
22951.000000,15459.000000,23521.000000,59570.000000
22947.000000,15422.000000,23521.000000,59569.000000
22909.000000,15431.000000,23535.000000,59576.000000
22924.000000,15441.000000,23507.000000,59568.000000
22905.000000,15468.000000,23526.000000,59546.000000
22886.000000,15396.000000,23489.000000,59505.000000
22891.000000,15401.000000,23504.000000,59560.000000
22932.000000,15380.000000,23461.000000,59538.000000
22853.000000,15382.000000,23489.000000,59526.000000
22851.000000,15402.000000,23473.000000,59536.000000
22873.000000,15383.000000,23455.000000,59505.000000
22856.000000,15369.000000,23427.000000,59504.000000
22830.000000,15359.000000,23412.000000,59485.000000
22865.000000,15381.000000,23389.000000,59492.000000
22821.000000,15351.000000,23406.000000,59490.000000
22827.000000,15328.000000,23410.000000,59489.000000
22834.000000,15358.000000,23421.000000,59505.000000
22813.000000,15378.000000,23395.000000,59503.000000
22765.000000,15323.000000,23389.000000,59471.000000
22790.000000,15344.000000,23390.000000,59465.000000
22764.000000,15303.000000,23370.000000,59466.000000
22746.000000,15284.000000,23317.000000,59459.000000
22773.000000,15266.000000,23329.000000,59424.000000
22722.000000,15259.000000,23326.000000,59453.000000
22705.000000,15279.000000,23282.000000,59396.000000
22682.000000,15257.000000,23239.000000,59380.000000
22697.000000,15228.000000,23261.000000,59399.000000
22653.000000,15224.000000,23244.000000,59393.000000
22652.000000,15259.000000,23223.000000,59379.000000
22640.000000,15231.000000,23247.000000,59352.000000
22655.000000,15249.000000,23209.000000,59349.000000
22651.000000,15203.000000,23193.000000,59394.000000
22613.000000,15211.000000,23175.000000,59385.000000
22644.000000,15214.000000,23227.000000,59379.000000
22642.000000,15204.000000,23200.000000,59353.000000
22646.000000,15194.000000,23194.000000,59394.000000
22692.000000,15196.000000,23212.000000,59399.000000
22666.000000,15225.000000,23217.000000,59395.000000
22672.000000,15227.000000,23254.000000,59396.000000
22709.000000,15251.000000,23255.000000,59400.000000
22704.000000,15262.000000,23294.000000,59417.000000
22733.000000,15313.000000,23307.000000,59433.000000
22737.000000,15286.000000,23341.000000,59443.000000
22780.000000,15282.000000,23336.000000,59457.000000
22788.000000,15314.000000,23369.000000,59470.000000
22794.000000,15327.000000,23371.000000,59465.000000
22821.000000,15330.000000,23401.000000,59467.000000
22811.000000,15336.000000,23403.000000,59501.000000
22835.000000,15395.000000,23431.000000,59501.000000
22863.000000,15396.000000,23463.000000,59543.000000
22866.000000,15364.000000,23496.000000,59529.000000
22902.000000,15389.000000,23515.000000,59544.000000
22910.000000,15388.000000,23526.000000,59559.000000
22904.000000,15440.000000,23536.000000,59590.000000
22963.000000,15446.000000,23555.000000,59589.000000
22987.000000,15468.000000,23566.000000,59583.000000
22956.000000,15536.000000,23611.000000,59611.000000
23025.000000,15498.000000,23680.000000,59598.000000
23028.000000,15507.000000,23644.000000,59664.000000
23064.000000,15520.000000,23691.000000,59688.000000
23081.000000,15548.000000,23733.000000,59691.000000
23117.000000,15572.000000,23796.000000,59699.000000
23178.000000,15580.000000,23832.000000,59706.000000
23221.000000,15594.000000,23837.000000,59736.000000
23220.000000,15632.000000,23890.000000,59781.000000
23278.000000,15656.000000,23920.000000,59831.000000
23290.000000,15685.000000,23953.000000,59815.000000
23322.000000,15710.000000,23996.000000,59866.000000
23355.000000,15740.000000,24030.000000,59864.000000
23352.000000,15712.000000,24076.000000,59851.000000
23399.000000,15746.000000,24099.000000,59908.000000
23420.000000,15747.000000,24110.000000,59919.000000
23426.000000,15761.000000,24095.000000,59894.000000
23421.000000,15748.000000,24092.000000,59871.000000
23405.000000,15737.000000,24088.000000,59897.000000
23400.000000,15734.000000,24052.000000,59850.000000
23395.000000,15750.000000,24054.000000,59874.000000
23387.000000,15705.000000,24014.000000,59861.000000
23366.000000,15697.000000,24016.000000,59864.000000
23361.000000,15677.000000,24002.000000,59867.000000
23353.000000,15697.000000,24027.000000,59841.000000
23332.000000,15710.000000,23978.000000,59800.000000
23314.000000,15671.000000,23966.000000,59813.000000
23312.000000,15661.000000,23955.000000,59801.000000
23288.000000,15673.000000,23954.000000,59839.000000
23303.000000,15678.000000,23946.000000,59807.000000
23276.000000,15669.000000,23943.000000,59771.000000
23271.000000,15654.000000,23923.000000,59776.000000
23270.000000,15656.000000,23911.000000,59775.000000
23257.000000,15639.000000,23872.000000,59758.000000
23253.000000,15628.000000,23857.000000,59793.000000
23208.000000,15630.000000,23880.000000,59761.000000
23228.000000,15621.000000,23843.000000,59773.000000
23233.000000,15611.000000,23855.000000,59760.000000
23222.000000,15632.000000,23863.000000,59730.000000
23212.000000,15606.000000,23844.000000,59716.000000
23201.000000,15604.000000,23831.000000,59759.000000
23188.000000,15607.000000,23812.000000,59726.000000
23215.000000,15585.000000,23802.000000,59704.000000
23195.000000,15599.000000,23783.000000,59727.000000
23178.000000,15575.000000,23767.000000,59726.000000
23159.000000,15603.000000,23780.000000,59696.000000
23145.000000,15573.000000,23781.000000,59721.000000
23133.000000,15563.000000,23740.000000,59712.000000
23131.000000,15553.000000,23731.000000,59667.000000
23129.000000,15546.000000,23722.000000,59675.000000
23112.000000,15547.000000,23713.000000,59692.000000
23115.000000,15534.000000,23671.000000,59641.000000
23089.000000,15537.000000,23677.000000,59645.000000
23096.000000,15524.000000,23680.000000,59636.000000
23092.000000,15503.000000,23647.000000,59604.000000
23027.000000,15512.000000,23652.000000,59622.000000
23070.000000,15506.000000,23632.000000,59640.000000
23042.000000,15525.000000,23639.000000,59622.000000
23007.000000,15494.000000,23593.000000,59615.000000
23038.000000,15512.000000,23615.000000,59598.000000
23007.000000,15487.000000,23570.000000,59583.000000
22992.000000,15445.000000,23547.000000,59605.000000
22959.000000,15480.000000,23562.000000,59563.000000
22986.000000,15500.000000,23534.000000,59582.000000
22939.000000,15458.000000,23546.000000,59578.000000
22991.000000,15461.000000,23524.000000,59550.000000
22972.000000,15431.000000,23553.000000,59556.000000
22967.000000,15453.000000,23498.000000,59571.000000
22950.000000,15442.000000,23513.000000,59584.000000
22941.000000,15421.000000,23492.000000,59553.000000
22933.000000,15437.000000,23508.000000,59544.000000
22915.000000,15399.000000,23468.000000,59563.000000
22933.000000,15447.000000,23471.000000,59513.000000
22925.000000,15394.000000,23474.000000,59528.000000
22888.000000,15382.000000,23442.000000,59538.000000
22907.000000,15378.000000,23434.000000,59519.000000
22904.000000,15395.000000,23455.000000,59511.000000
22864.000000,15322.000000,23403.000000,59502.000000
22846.000000,15385.000000,23405.000000,59478.000000
22814.000000,15333.000000,23386.000000,59473.000000
22825.000000,15336.000000,23377.000000,59483.000000
22780.000000,15346.000000,23381.000000,59456.000000
22779.000000,15320.000000,23350.000000,59449.000000
22771.000000,15326.000000,23343.000000,59404.000000
22744.000000,15274.000000,23324.000000,59446.000000
22715.000000,15295.000000,23335.000000,59418.000000
22751.000000,15276.000000,23257.000000,59398.000000
22724.000000,15271.000000,23280.000000,59415.000000
22723.000000,15276.000000,23270.000000,59381.000000
22704.000000,15249.000000,23234.000000,59387.000000
22701.000000,15210.000000,23279.000000,59397.000000
22723.000000,15288.000000,23293.000000,59406.000000
22731.000000,15270.000000,23300.000000,59386.000000
22730.000000,15273.000000,23269.000000,59401.000000
22764.000000,15305.000000,23307.000000,59422.000000
22743.000000,15256.000000,23313.000000,59423.000000
22748.000000,15278.000000,23331.000000,59459.000000
22769.000000,15267.000000,23355.000000,59438.000000
22799.000000,15318.000000,23375.000000,59425.000000
22811.000000,15297.000000,23342.000000,59471.000000
22815.000000,15312.000000,23375.000000,59454.000000
22818.000000,15352.000000,23404.000000,59519.000000
22870.000000,15367.000000,23435.000000,59516.000000
22871.000000,15372.000000,23449.000000,59508.000000
22893.000000,15416.000000,23455.000000,59549.000000
22920.000000,15372.000000,23437.000000,59573.000000
22899.000000,15401.000000,23499.000000,59565.000000
22930.000000,15456.000000,23500.000000,59602.000000
22984.000000,15451.000000,23512.000000,59599.000000
22994.000000,15426.000000,23528.000000,59581.000000
22992.000000,15453.000000,23566.000000,59593.000000
23061.000000,15463.000000,23597.000000,59625.000000
23042.000000,15525.000000,23598.000000,59637.000000
23052.000000,15500.000000,23629.000000,59646.000000
23082.000000,15519.000000,23685.000000,59653.000000
23092.000000,15527.000000,23685.000000,59675.000000
23098.000000,15543.000000,23696.000000,59705.000000
23143.000000,15570.000000,23761.000000,59677.000000
23141.000000,15586.000000,23745.000000,59735.000000
23170.000000,15609.000000,23806.000000,59772.000000
23257.000000,15631.000000,23853.000000,59779.000000
23252.000000,15624.000000,23882.000000,59768.000000
23307.000000,15655.000000,23904.000000,59810.000000
23307.000000,15699.000000,23958.000000,59840.000000
23361.000000,15704.000000,24005.000000,59864.000000
23401.000000,15757.000000,24063.000000,59891.000000
23420.000000,15766.000000,24064.000000,59893.000000
23450.000000,15782.000000,24074.000000,59907.000000
23463.000000,15781.000000,24083.000000,59898.000000
23452.000000,15734.000000,24087.000000,59858.000000
23432.000000,15776.000000,24123.000000,59895.000000
23459.000000,15745.000000,24074.000000,59889.000000
23446.000000,15786.000000,24089.000000,59857.000000
23461.000000,15760.000000,24080.000000,59906.000000
23398.000000,15733.000000,24054.000000,59887.000000
23416.000000,15736.000000,24079.000000,59897.000000
23384.000000,15731.000000,24039.000000,59885.000000
23404.000000,15728.000000,24039.000000,59852.000000
23409.000000,15722.000000,24003.000000,59837.000000
23379.000000,15702.000000,24009.000000,59863.000000
23364.000000,15715.000000,23984.000000,59857.000000
23351.000000,15703.000000,23963.000000,59835.000000
23346.000000,15689.000000,23971.000000,59797.000000
23315.000000,15704.000000,23949.000000,59836.000000
23320.000000,15662.000000,23924.000000,59815.000000
23298.000000,15660.000000,23910.000000,59790.000000
23314.000000,15673.000000,23895.000000,59778.000000
23295.000000,15644.000000,23918.000000,59794.000000
23300.000000,15623.000000,23871.000000,59784.000000
23252.000000,15639.000000,23892.000000,59770.000000
23242.000000,15640.000000,23862.000000,59800.000000
23230.000000,15620.000000,23871.000000,59768.000000
23229.000000,15655.000000,23867.000000,59735.000000
23236.000000,15622.000000,23835.000000,59729.000000
23218.000000,15597.000000,23830.000000,59724.000000
23231.000000,15598.000000,23847.000000,59715.000000
23198.000000,15606.000000,23756.000000,59712.000000
23182.000000,15600.000000,23775.000000,59704.000000
23215.000000,15579.000000,23805.000000,59707.000000
23150.000000,15594.000000,23782.000000,59702.000000
23163.000000,15583.000000,23755.000000,59703.000000
23162.000000,15583.000000,23746.000000,59677.000000
23138.000000,15525.000000,23720.000000,59682.000000
23108.000000,15552.000000,23712.000000,59681.000000
23123.000000,15556.000000,23721.000000,59671.000000
23135.000000,15528.000000,23672.000000,59682.000000
23147.000000,15550.000000,23723.000000,59650.000000
23069.000000,15558.000000,23688.000000,59640.000000
23108.000000,15523.000000,23662.000000,59636.000000
23111.000000,15534.000000,23666.000000,59666.000000
23074.000000,15511.000000,23644.000000,59625.000000
23107.000000,15522.000000,23628.000000,59639.000000
23076.000000,15540.000000,23616.000000,59599.000000
23063.000000,15489.000000,23614.000000,59641.000000
23061.000000,15502.000000,23587.000000,59611.000000
23068.000000,15485.000000,23579.000000,59591.000000
23027.000000,15505.000000,23576.000000,59571.000000
23028.000000,15446.000000,23539.000000,59596.000000
23004.000000,15475.000000,23539.000000,59624.000000
22998.000000,15441.000000,23508.000000,59565.000000
23001.000000,15445.000000,23506.000000,59553.000000
22992.000000,15488.000000,23525.000000,59571.000000
22935.000000,15427.000000,23502.000000,59548.000000
22965.000000,15424.000000,23516.000000,59548.000000
22941.000000,15419.000000,23512.000000,59566.000000
22962.000000,15434.000000,23467.000000,59537.000000
22909.000000,15425.000000,23503.000000,59542.000000
22911.000000,15390.000000,23477.000000,59529.000000
22906.000000,15405.000000,23457.000000,59518.000000
22898.000000,15399.000000,23444.000000,59499.000000
22886.000000,15340.000000,23439.000000,59517.000000
22855.000000,15368.000000,23414.000000,59495.000000
22847.000000,15383.000000,23428.000000,59500.000000
22839.000000,15394.000000,23372.000000,59473.000000
22815.000000,15316.000000,23391.000000,59506.000000
22794.000000,15335.000000,23368.000000,59448.000000
22800.000000,15301.000000,23337.000000,59462.000000
22825.000000,15271.000000,23330.000000,59428.000000
22738.000000,15294.000000,23339.000000,59427.000000
22763.000000,15257.000000,23303.000000,59417.000000
22757.000000,15259.000000,23264.000000,59418.000000
22740.000000,15254.000000,23266.000000,59435.000000
22747.000000,15279.000000,23279.000000,59427.000000
22755.000000,15232.000000,23274.000000,59384.000000
22797.000000,15268.000000,23251.000000,59400.000000
22743.000000,15263.000000,23265.000000,59406.000000
22774.000000,15257.000000,23275.000000,59447.000000
22748.000000,15245.000000,23288.000000,59435.000000
22778.000000,15276.000000,23296.000000,59431.000000
22763.000000,15278.000000,23306.000000,59441.000000
22783.000000,15285.000000,23299.000000,59481.000000
22810.000000,15315.000000,23333.000000,59413.000000
22796.000000,15317.000000,23356.000000,59469.000000
22833.000000,15302.000000,23361.000000,59467.000000
22823.000000,15297.000000,23372.000000,59511.000000
22860.000000,15343.000000,23393.000000,59538.000000
22873.000000,15368.000000,23427.000000,59505.000000
22885.000000,15391.000000,23446.000000,59523.000000
22904.000000,15359.000000,23403.000000,59514.000000
22890.000000,15350.000000,23449.000000,59565.000000
22917.000000,15379.000000,23484.000000,59560.000000
22952.000000,15394.000000,23473.000000,59567.000000
22930.000000,15434.000000,23518.000000,59582.000000
22965.000000,15422.000000,23511.000000,59570.000000
23013.000000,15458.000000,23532.000000,59593.000000
22994.000000,15463.000000,23575.000000,59575.000000
23022.000000,15509.000000,23578.000000,59606.000000
23018.000000,15501.000000,23627.000000,59617.000000
23051.000000,15486.000000,23626.000000,59655.000000
23097.000000,15515.000000,23657.000000,59641.000000
23097.000000,15546.000000,23719.000000,59656.000000
23135.000000,15564.000000,23741.000000,59709.000000
23146.000000,15554.000000,23769.000000,59721.000000
23223.000000,15588.000000,23812.000000,59708.000000
23242.000000,15606.000000,23825.000000,59743.000000
23267.000000,15631.000000,23888.000000,59773.000000
23255.000000,15623.000000,23901.000000,59781.000000
23314.000000,15688.000000,23952.000000,59811.000000
23393.000000,15712.000000,24009.000000,59844.000000
23408.000000,15728.000000,24022.000000,59825.000000
23402.000000,15726.000000,24063.000000,59863.000000
23428.000000,15713.000000,24068.000000,59889.000000
23444.000000,15724.000000,24096.000000,59856.000000
23452.000000,15776.000000,24076.000000,59867.000000
23461.000000,15740.000000,24101.000000,59889.000000
23447.000000,15786.000000,24073.000000,59861.000000
23438.000000,15723.000000,24028.000000,59868.000000
23419.000000,15725.000000,24002.000000,59864.000000
23405.000000,15741.000000,24035.000000,59868.000000
23442.000000,15708.000000,23980.000000,59810.000000
23420.000000,15727.000000,23992.000000,59859.000000
23373.000000,15703.000000,23989.000000,59814.000000
23350.000000,15696.000000,23951.000000,59802.000000
23343.000000,15691.000000,23932.000000,59804.000000
23315.000000,15671.000000,23960.000000,59829.000000
23312.000000,15670.000000,23951.000000,59795.000000
23336.000000,15663.000000,23917.000000,59784.000000
23317.000000,15653.000000,23889.000000,59787.000000
23300.000000,15673.000000,23903.000000,59761.000000
23299.000000,15648.000000,23891.000000,59789.000000
23268.000000,15629.000000,23882.000000,59787.000000
23288.000000,15633.000000,23886.000000,59755.000000
23263.000000,15644.000000,23860.000000,59740.000000
23238.000000,15605.000000,23831.000000,59725.000000
23266.000000,15619.000000,23836.000000,59727.000000
23224.000000,15598.000000,23833.000000,59718.000000
23253.000000,15573.000000,23831.000000,59735.000000
23195.000000,15578.000000,23788.000000,59722.000000
23210.000000,15593.000000,23783.000000,59707.000000
23226.000000,15593.000000,23786.000000,59694.000000
23179.000000,15593.000000,23795.000000,59715.000000
23187.000000,15555.000000,23753.000000,59705.000000
23177.000000,15580.000000,23745.000000,59705.000000
23163.000000,15562.000000,23768.000000,59715.000000
23134.000000,15561.000000,23764.000000,59672.000000
23154.000000,15574.000000,23717.000000,59659.000000
23110.000000,15536.000000,23703.000000,59675.000000
23135.000000,15537.000000,23745.000000,59663.000000
23143.000000,15534.000000,23703.000000,59645.000000
23074.000000,15515.000000,23681.000000,59649.000000
23103.000000,15498.000000,23674.000000,59627.000000
23055.000000,15538.000000,23644.000000,59613.000000
23094.000000,15506.000000,23623.000000,59606.000000
23043.000000,15498.000000,23619.000000,59619.000000
23029.000000,15508.000000,23612.000000,59598.000000
23001.000000,15447.000000,23576.000000,59583.000000
23012.000000,15450.000000,23586.000000,59587.000000
22951.000000,15475.000000,23560.000000,59585.000000
22988.000000,15452.000000,23520.000000,59571.000000
22948.000000,15460.000000,23526.000000,59561.000000
22928.000000,15439.000000,23531.000000,59536.000000
22915.000000,15388.000000,23497.000000,59529.000000
22916.000000,15383.000000,23460.000000,59546.000000
22890.000000,15419.000000,23484.000000,59547.000000
22918.000000,15379.000000,23453.000000,59488.000000
22924.000000,15345.000000,23440.000000,59487.000000
22876.000000,15323.000000,23406.000000,59500.000000
22903.000000,15383.000000,23420.000000,59532.000000
22883.000000,15373.000000,23412.000000,59478.000000
22869.000000,15352.000000,23420.000000,59465.000000
22859.000000,15339.000000,23410.000000,59472.000000
22859.000000,15309.000000,23376.000000,59476.000000
22831.000000,15333.000000,23361.000000,59492.000000
22831.000000,15282.000000,23337.000000,59435.000000
22796.000000,15278.000000,23336.000000,59447.000000
22809.000000,15296.000000,23316.000000,59435.000000
22801.000000,15272.000000,23267.000000,59415.000000
22800.000000,15282.000000,23276.000000,59420.000000
22774.000000,15301.000000,23270.000000,59376.000000
22753.000000,15245.000000,23214.000000,59366.000000
22733.000000,15230.000000,23244.000000,59374.000000
22681.000000,15209.000000,23182.000000,59356.000000
22716.000000,15206.000000,23194.000000,59356.000000
22715.000000,15191.000000,23186.000000,59339.000000
22720.000000,15201.000000,23212.000000,59367.000000
22733.000000,15242.000000,23185.000000,59366.000000
22717.000000,15241.000000,23194.000000,59379.000000
22743.000000,15258.000000,23196.000000,59410.000000
22746.000000,15240.000000,23281.000000,59447.000000
22787.000000,15283.000000,23276.000000,59422.000000
22777.000000,15274.000000,23315.000000,59404.000000
22789.000000,15263.000000,23305.000000,59419.000000
22807.000000,15272.000000,23327.000000,59417.000000
22804.000000,15308.000000,23342.000000,59465.000000
22802.000000,15268.000000,23361.000000,59492.000000
22844.000000,15272.000000,23385.000000,59473.000000
22879.000000,15362.000000,23400.000000,59470.000000
22877.000000,15347.000000,23419.000000,59494.000000
22921.000000,15318.000000,23397.000000,59521.000000
22912.000000,15339.000000,23427.000000,59517.000000
22914.000000,15383.000000,23458.000000,59534.000000
22965.000000,15429.000000,23472.000000,59528.000000
22951.000000,15392.000000,23513.000000,59549.000000
23020.000000,15424.000000,23510.000000,59583.000000
23011.000000,15419.000000,23530.000000,59590.000000
23047.000000,15468.000000,23589.000000,59607.000000
23071.000000,15484.000000,23631.000000,59616.000000
23076.000000,15479.000000,23605.000000,59641.000000
23102.000000,15507.000000,23671.000000,59678.000000
23140.000000,15546.000000,23696.000000,59677.000000
23169.000000,15547.000000,23721.000000,59667.000000
23173.000000,15547.000000,23781.000000,59715.000000
23198.000000,15619.000000,23798.000000,59719.000000
23255.000000,15594.000000,23804.000000,59750.000000
23280.000000,15605.000000,23870.000000,59778.000000
23335.000000,15657.000000,23917.000000,59797.000000
23362.000000,15653.000000,23962.000000,59824.000000
23392.000000,15694.000000,23986.000000,59861.000000
23403.000000,15705.000000,24033.000000,59831.000000
23435.000000,15719.000000,24025.000000,59869.000000
23447.000000,15735.000000,24017.000000,59866.000000
23443.000000,15742.000000,24019.000000,59880.000000
23405.000000,15693.000000,24018.000000,59843.000000
23424.000000,15676.000000,24041.000000,59843.000000
23402.000000,15721.000000,24001.000000,59808.000000
23394.000000,15695.000000,24000.000000,59840.000000
23357.000000,15728.000000,23956.000000,59807.000000
23419.000000,15691.000000,23975.000000,59808.000000
23344.000000,15651.000000,23940.000000,59805.000000
23347.000000,15685.000000,23944.000000,59818.000000
23369.000000,15680.000000,23940.000000,59819.000000
23334.000000,15691.000000,23907.000000,59800.000000
23331.000000,15666.000000,23919.000000,59814.000000
23315.000000,15668.000000,23911.000000,59749.000000
23317.000000,15657.000000,23879.000000,59742.000000
23272.000000,15641.000000,23876.000000,59778.000000
23318.000000,15662.000000,23877.000000,59771.000000
23263.000000,15616.000000,23845.000000,59759.000000
23298.000000,15647.000000,23836.000000,59728.000000
23294.000000,15631.000000,23837.000000,59722.000000
23284.000000,15635.000000,23824.000000,59736.000000
23272.000000,15600.000000,23795.000000,59717.000000
23254.000000,15588.000000,23795.000000,59741.000000
23241.000000,15610.000000,23812.000000,59716.000000
23236.000000,15600.000000,23770.000000,59692.000000
23225.000000,15578.000000,23786.000000,59691.000000
23211.000000,15582.000000,23757.000000,59674.000000
23189.000000,15562.000000,23743.000000,59666.000000
23204.000000,15569.000000,23751.000000,59688.000000
23170.000000,15575.000000,23730.000000,59666.000000
23152.000000,15535.000000,23732.000000,59677.000000
23152.000000,15529.000000,23719.000000,59651.000000
23123.000000,15540.000000,23697.000000,59642.000000
23144.000000,15555.000000,23685.000000,59637.000000
23137.000000,15521.000000,23652.000000,59628.000000
23087.000000,15507.000000,23629.000000,59617.000000
23076.000000,15531.000000,23628.000000,59613.000000
23096.000000,15507.000000,23604.000000,59622.000000
23055.000000,15476.000000,23582.000000,59622.000000
23056.000000,15494.000000,23598.000000,59599.000000
23017.000000,15465.000000,23579.000000,59604.000000
23043.000000,15461.000000,23560.000000,59578.000000
23006.000000,15413.000000,23535.000000,59574.000000
22967.000000,15446.000000,23513.000000,59556.000000
22985.000000,15427.000000,23525.000000,59570.000000
22992.000000,15398.000000,23468.000000,59560.000000
22947.000000,15390.000000,23473.000000,59524.000000
22965.000000,15405.000000,23457.000000,59515.000000
22969.000000,15377.000000,23472.000000,59512.000000
22917.000000,15379.000000,23446.000000,59516.000000
22916.000000,15371.000000,23465.000000,59495.000000
22908.000000,15359.000000,23447.000000,59519.000000
22927.000000,15381.000000,23395.000000,59507.000000
22918.000000,15369.000000,23415.000000,59477.000000
22910.000000,15336.000000,23392.000000,59462.000000
22880.000000,15354.000000,23376.000000,59493.000000
22865.000000,15341.000000,23387.000000,59496.000000
22914.000000,15372.000000,23371.000000,59499.000000
22862.000000,15322.000000,23380.000000,59441.000000
22856.000000,15325.000000,23363.000000,59463.000000
22840.000000,15338.000000,23339.000000,59464.000000
22830.000000,15348.000000,23334.000000,59456.000000
22843.000000,15332.000000,23323.000000,59424.000000
22841.000000,15307.000000,23296.000000,59444.000000
22806.000000,15316.000000,23293.000000,59434.000000
22798.000000,15257.000000,23223.000000,59404.000000
22761.000000,15248.000000,23194.000000,59412.000000
22784.000000,15268.000000,23214.000000,59376.000000
22762.000000,15252.000000,23151.000000,59343.000000
22747.000000,15266.000000,23170.000000,59340.000000
22743.000000,15216.000000,23151.000000,59335.000000
22705.000000,15226.000000,23154.000000,59334.000000
22739.000000,15202.000000,23113.000000,59326.000000
22710.000000,15199.000000,23108.000000,59312.000000
22700.000000,15181.000000,23104.000000,59328.000000
22727.000000,15177.000000,23116.000000,59334.000000
22684.000000,15177.000000,23069.000000,59291.000000
22694.000000,15178.000000,23060.000000,59346.000000
22694.000000,15174.000000,23105.000000,59302.000000
22715.000000,15195.000000,23073.000000,59340.000000
22727.000000,15201.000000,23103.000000,59298.000000
22736.000000,15215.000000,23124.000000,59328.000000
22743.000000,15222.000000,23114.000000,59353.000000
22753.000000,15197.000000,23121.000000,59336.000000
22785.000000,15201.000000,23168.000000,59361.000000
22808.000000,15250.000000,23148.000000,59369.000000
22806.000000,15231.000000,23189.000000,59387.000000
22824.000000,15255.000000,23195.000000,59369.000000
22845.000000,15295.000000,23184.000000,59390.000000
22875.000000,15312.000000,23239.000000,59390.000000
22918.000000,15319.000000,23220.000000,59402.000000
22894.000000,15299.000000,23267.000000,59405.000000
22900.000000,15376.000000,23310.000000,59448.000000
22950.000000,15341.000000,23332.000000,59455.000000
22957.000000,15326.000000,23313.000000,59445.000000
22953.000000,15359.000000,23332.000000,59519.000000
22999.000000,15379.000000,23367.000000,59506.000000
23001.000000,15389.000000,23387.000000,59521.000000
23023.000000,15430.000000,23359.000000,59529.000000
23048.000000,15401.000000,23406.000000,59507.000000
23062.000000,15446.000000,23430.000000,59560.000000
23113.000000,15458.000000,23460.000000,59585.000000
23113.000000,15478.000000,23481.000000,59605.000000
23152.000000,15551.000000,23530.000000,59588.000000
23187.000000,15500.000000,23529.000000,59597.000000
23192.000000,15515.000000,23547.000000,59630.000000
23234.000000,15560.000000,23641.000000,59656.000000
23290.000000,15574.000000,23626.000000,59658.000000
23306.000000,15587.000000,23694.000000,59697.000000
23328.000000,15607.000000,23729.000000,59705.000000
23392.000000,15635.000000,23762.000000,59725.000000
23397.000000,15666.000000,23777.000000,59783.000000
23430.000000,15667.000000,23841.000000,59771.000000
23473.000000,15710.000000,23852.000000,59770.000000
23442.000000,15696.000000,23855.000000,59788.000000
23436.000000,15710.000000,23888.000000,59792.000000
23467.000000,15681.000000,23882.000000,59790.000000
23477.000000,15699.000000,23877.000000,59760.000000
23487.000000,15704.000000,23875.000000,59769.000000
23444.000000,15700.000000,23829.000000,59768.000000
23428.000000,15684.000000,23819.000000,59795.000000
23416.000000,15674.000000,23832.000000,59748.000000
23388.000000,15696.000000,23818.000000,59762.000000
23414.000000,15643.000000,23807.000000,59742.000000
23377.000000,15659.000000,23761.000000,59764.000000
23406.000000,15672.000000,23780.000000,59712.000000
23363.000000,15624.000000,23778.000000,59724.000000
23361.000000,15620.000000,23740.000000,59731.000000
23306.000000,15630.000000,23736.000000,59732.000000
23323.000000,15613.000000,23712.000000,59671.000000
23335.000000,15600.000000,23673.000000,59675.000000
23308.000000,15632.000000,23692.000000,59673.000000
23287.000000,15604.000000,23679.000000,59679.000000
23299.000000,15590.000000,23681.000000,59673.000000
23298.000000,15595.000000,23650.000000,59680.000000
23295.000000,15580.000000,23672.000000,59630.000000
23308.000000,15612.000000,23618.000000,59635.000000
23281.000000,15573.000000,23626.000000,59643.000000
23264.000000,15581.000000,23585.000000,59627.000000
23267.000000,15550.000000,23570.000000,59627.000000
23237.000000,15565.000000,23569.000000,59612.000000
23231.000000,15551.000000,23553.000000,59626.000000
23215.000000,15534.000000,23558.000000,59602.000000
23212.000000,15525.000000,23514.000000,59608.000000
23230.000000,15525.000000,23534.000000,59598.000000
23201.000000,15514.000000,23491.000000,59606.000000
23203.000000,15540.000000,23526.000000,59573.000000
23214.000000,15530.000000,23491.000000,59551.000000
23195.000000,15504.000000,23485.000000,59620.000000
23193.000000,15513.000000,23515.000000,59550.000000
23167.000000,15509.000000,23465.000000,59536.000000
23163.000000,15457.000000,23456.000000,59503.000000
23148.000000,15452.000000,23453.000000,59558.000000
23126.000000,15463.000000,23415.000000,59547.000000
23108.000000,15453.000000,23413.000000,59525.000000
23098.000000,15455.000000,23395.000000,59521.000000
23081.000000,15383.000000,23349.000000,59495.000000
23050.000000,15385.000000,23346.000000,59507.000000
23025.000000,15382.000000,23330.000000,59478.000000
23040.000000,15416.000000,23328.000000,59467.000000
23000.000000,15388.000000,23311.000000,59448.000000
23003.000000,15312.000000,23264.000000,59457.000000
22941.000000,15335.000000,23284.000000,59438.000000
22953.000000,15328.000000,23231.000000,59419.000000
22938.000000,15353.000000,23255.000000,59413.000000
22903.000000,15324.000000,23208.000000,59435.000000
22919.000000,15337.000000,23190.000000,59388.000000
22909.000000,15281.000000,23201.000000,59389.000000
22895.000000,15305.000000,23182.000000,59367.000000
22908.000000,15323.000000,23174.000000,59368.000000
22901.000000,15306.000000,23168.000000,59372.000000
22890.000000,15267.000000,23169.000000,59357.000000
22883.000000,15227.000000,23131.000000,59341.000000
22847.000000,15233.000000,23114.000000,59334.000000
22858.000000,15253.000000,23102.000000,59333.000000
22830.000000,15236.000000,23084.000000,59339.000000
22819.000000,15250.000000,23063.000000,59326.000000
22784.000000,15222.000000,23065.000000,59288.000000
22756.000000,15186.000000,23016.000000,59279.000000
22737.000000,15175.000000,22950.000000,59269.000000
22733.000000,15168.000000,22965.000000,59237.000000
22714.000000,15197.000000,22941.000000,59237.000000
22680.000000,15133.000000,22922.000000,59235.000000
22695.000000,15138.000000,22938.000000,59232.000000
22694.000000,15118.000000,22926.000000,59230.000000
22688.000000,15117.000000,22926.000000,59194.000000
22712.000000,15113.000000,22911.000000,59228.000000
22684.000000,15130.000000,22942.000000,59274.000000
22717.000000,15127.000000,22942.000000,59270.000000
22724.000000,15140.000000,22979.000000,59240.000000
22724.000000,15151.000000,22987.000000,59273.000000
22736.000000,15164.000000,23012.000000,59277.000000
22732.000000,15184.000000,22997.000000,59286.000000
22752.000000,15172.000000,23009.000000,59302.000000
22792.000000,15215.000000,23021.000000,59325.000000
22783.000000,15213.000000,23062.000000,59309.000000
22832.000000,15263.000000,23116.000000,59320.000000
22813.000000,15222.000000,23087.000000,59326.000000
22863.000000,15262.000000,23106.000000,59344.000000
22859.000000,15254.000000,23111.000000,59355.000000
22878.000000,15261.000000,23152.000000,59377.000000
22905.000000,15291.000000,23178.000000,59384.000000
22958.000000,15279.000000,23172.000000,59389.000000
22925.000000,15312.000000,23189.000000,59400.000000
22956.000000,15283.000000,23188.000000,59421.000000
22994.000000,15311.000000,23265.000000,59452.000000
22980.000000,15322.000000,23301.000000,59470.000000
23034.000000,15379.000000,23288.000000,59468.000000
23009.000000,15378.000000,23331.000000,59492.000000
23074.000000,15378.000000,23367.000000,59503.000000
23079.000000,15411.000000,23393.000000,59527.000000
23136.000000,15425.000000,23395.000000,59538.000000
23125.000000,15477.000000,23454.000000,59557.000000
23155.000000,15519.000000,23479.000000,59559.000000
23193.000000,15486.000000,23506.000000,59580.000000
23240.000000,15570.000000,23544.000000,59621.000000
23234.000000,15541.000000,23563.000000,59644.000000
23267.000000,15579.000000,23613.000000,59665.000000
23352.000000,15630.000000,23731.000000,59716.000000
23380.000000,15655.000000,23767.000000,59720.000000
23470.000000,15700.000000,23825.000000,59773.000000
23442.000000,15669.000000,23816.000000,59742.000000
23428.000000,15676.000000,23824.000000,59780.000000
23422.000000,15653.000000,23791.000000,59736.000000
23422.000000,15656.000000,23793.000000,59741.000000
23397.000000,15645.000000,23757.000000,59769.000000
23397.000000,15643.000000,23784.000000,59731.000000
23432.000000,15668.000000,23758.000000,59727.000000
23369.000000,15654.000000,23766.000000,59680.000000
23397.000000,15619.000000,23754.000000,59687.000000
23349.000000,15641.000000,23715.000000,59706.000000
23366.000000,15590.000000,23688.000000,59714.000000
23346.000000,15624.000000,23735.000000,59703.000000
23348.000000,15606.000000,23701.000000,59696.000000
23327.000000,15622.000000,23634.000000,59675.000000
23344.000000,15592.000000,23652.000000,59665.000000
23331.000000,15586.000000,23619.000000,59680.000000
23289.000000,15576.000000,23664.000000,59628.000000
23293.000000,15588.000000,23621.000000,59678.000000
23282.000000,15577.000000,23627.000000,59672.000000
23287.000000,15563.000000,23605.000000,59649.000000
23268.000000,15560.000000,23585.000000,59641.000000
23279.000000,15568.000000,23578.000000,59625.000000
23232.000000,15551.000000,23555.000000,59616.000000
23248.000000,15573.000000,23531.000000,59581.000000
23251.000000,15523.000000,23536.000000,59609.000000
23231.000000,15536.000000,23541.000000,59604.000000
23230.000000,15515.000000,23506.000000,59592.000000
23197.000000,15524.000000,23509.000000,59566.000000
23196.000000,15510.000000,23488.000000,59587.000000
23189.000000,15484.000000,23482.000000,59564.000000
23169.000000,15472.000000,23467.000000,59563.000000
23158.000000,15490.000000,23467.000000,59563.000000
23166.000000,15466.000000,23432.000000,59527.000000
23126.000000,15465.000000,23418.000000,59538.000000
23113.000000,15435.000000,23415.000000,59531.000000
23114.000000,15423.000000,23394.000000,59501.000000
23104.000000,15434.000000,23376.000000,59517.000000
23122.000000,15443.000000,23382.000000,59528.000000
23076.000000,15426.000000,23383.000000,59500.000000
23049.000000,15408.000000,23337.000000,59454.000000
23072.000000,15375.000000,23340.000000,59457.000000
23043.000000,15372.000000,23325.000000,59496.000000
23018.000000,15397.000000,23312.000000,59477.000000
23011.000000,15325.000000,23320.000000,59443.000000
23034.000000,15368.000000,23296.000000,59438.000000
23012.000000,15375.000000,23280.000000,59442.000000
22985.000000,15345.000000,23274.000000,59444.000000
22991.000000,15316.000000,23236.000000,59424.000000
22944.000000,15330.000000,23232.000000,59399.000000
22947.000000,15350.000000,23209.000000,59386.000000
22908.000000,15303.000000,23219.000000,59386.000000
22925.000000,15286.000000,23206.000000,59405.000000
22918.000000,15279.000000,23152.000000,59376.000000
22911.000000,15285.000000,23158.000000,59422.000000
22903.000000,15271.000000,23129.000000,59390.000000
22871.000000,15248.000000,23123.000000,59356.000000
22855.000000,15264.000000,23165.000000,59376.000000
22831.000000,15229.000000,23116.000000,59341.000000
22829.000000,15247.000000,23115.000000,59343.000000
22826.000000,15247.000000,23082.000000,59307.000000
22795.000000,15222.000000,23059.000000,59302.000000
22783.000000,15196.000000,23045.000000,59289.000000
22763.000000,15186.000000,23022.000000,59279.000000
22782.000000,15216.000000,23032.000000,59289.000000
22749.000000,15225.000000,23007.000000,59285.000000
22757.000000,15158.000000,22915.000000,59249.000000
22716.000000,15162.000000,22969.000000,59262.000000
22702.000000,15134.000000,22950.000000,59237.000000
22706.000000,15115.000000,22902.000000,59231.000000
22703.000000,15129.000000,22888.000000,59228.000000
22705.000000,15108.000000,22899.000000,59207.000000
22693.000000,15111.000000,22839.000000,59196.000000
22674.000000,15092.000000,22896.000000,59172.000000
22691.000000,15110.000000,22835.000000,59166.000000
22650.000000,15113.000000,22851.000000,59199.000000
22674.000000,15092.000000,22853.000000,59194.000000
22674.000000,15074.000000,22842.000000,59181.000000
22678.000000,15123.000000,22855.000000,59216.000000
22671.000000,15135.000000,22886.000000,59211.000000
22714.000000,15114.000000,22858.000000,59219.000000
22719.000000,15103.000000,22889.000000,59245.000000
22766.000000,15159.000000,22912.000000,59242.000000
22790.000000,15161.000000,22905.000000,59261.000000
22754.000000,15185.000000,22957.000000,59270.000000
22780.000000,15181.000000,23006.000000,59289.000000
22798.000000,15182.000000,22961.000000,59269.000000
22826.000000,15224.000000,22999.000000,59307.000000
22818.000000,15236.000000,23076.000000,59283.000000
22869.000000,15194.000000,23057.000000,59308.000000
22868.000000,15235.000000,23084.000000,59340.000000
22894.000000,15255.000000,23117.000000,59357.000000
22923.000000,15286.000000,23126.000000,59362.000000
22935.000000,15248.000000,23119.000000,59394.000000
22933.000000,15291.000000,23166.000000,59373.000000
22943.000000,15297.000000,23195.000000,59384.000000
22990.000000,15321.000000,23188.000000,59406.000000
22986.000000,15343.000000,23238.000000,59416.000000
23051.000000,15326.000000,23228.000000,59427.000000
23023.000000,15338.000000,23274.000000,59467.000000
23053.000000,15361.000000,23293.000000,59484.000000
23081.000000,15413.000000,23338.000000,59510.000000
23093.000000,15432.000000,23366.000000,59504.000000
23138.000000,15442.000000,23383.000000,59509.000000
23151.000000,15467.000000,23411.000000,59543.000000
23213.000000,15445.000000,23420.000000,59567.000000
23195.000000,15492.000000,23498.000000,59597.000000
23216.000000,15535.000000,23519.000000,59584.000000
23295.000000,15539.000000,23530.000000,59629.000000
23314.000000,15569.000000,23600.000000,59653.000000
23332.000000,15578.000000,23611.000000,59654.000000
23398.000000,15600.000000,23662.000000,59684.000000
23399.000000,15597.000000,23698.000000,59700.000000
23429.000000,15615.000000,23704.000000,59724.000000
23420.000000,15615.000000,23733.000000,59710.000000
23427.000000,15630.000000,23763.000000,59719.000000
23437.000000,15639.000000,23783.000000,59720.000000
23407.000000,15617.000000,23727.000000,59709.000000
23400.000000,15601.000000,23726.000000,59714.000000
23391.000000,15615.000000,23701.000000,59690.000000
23390.000000,15595.000000,23715.000000,59669.000000
23386.000000,15605.000000,23701.000000,59679.000000
23360.000000,15602.000000,23667.000000,59690.000000
23343.000000,15603.000000,23689.000000,59658.000000
23352.000000,15629.000000,23631.000000,59658.000000
23362.000000,15577.000000,23625.000000,59645.000000
23298.000000,15594.000000,23637.000000,59657.000000
23320.000000,15593.000000,23625.000000,59653.000000
23295.000000,15579.000000,23627.000000,59646.000000
23289.000000,15569.000000,23567.000000,59631.000000
23308.000000,15551.000000,23564.000000,59630.000000
23269.000000,15564.000000,23547.000000,59620.000000
23279.000000,15532.000000,23574.000000,59642.000000
23268.000000,15568.000000,23535.000000,59593.000000
23269.000000,15518.000000,23519.000000,59617.000000
23261.000000,15507.000000,23527.000000,59577.000000
23241.000000,15509.000000,23500.000000,59603.000000
23260.000000,15503.000000,23504.000000,59569.000000
23225.000000,15508.000000,23482.000000,59567.000000
23206.000000,15494.000000,23458.000000,59566.000000
23160.000000,15469.000000,23454.000000,59570.000000
23165.000000,15486.000000,23460.000000,59547.000000
23189.000000,15461.000000,23440.000000,59574.000000
23172.000000,15445.000000,23412.000000,59532.000000
23138.000000,15451.000000,23435.000000,59493.000000
23167.000000,15443.000000,23411.000000,59514.000000
23123.000000,15386.000000,23387.000000,59488.000000
23109.000000,15435.000000,23380.000000,59526.000000
23102.000000,15379.000000,23345.000000,59479.000000
23076.000000,15367.000000,23350.000000,59464.000000
23087.000000,15394.000000,23327.000000,59486.000000
23076.000000,15378.000000,23349.000000,59457.000000
23043.000000,15366.000000,23278.000000,59449.000000
23047.000000,15348.000000,23271.000000,59448.000000
23033.000000,15351.000000,23274.000000,59434.000000
23028.000000,15348.000000,23276.000000,59458.000000
22993.000000,15354.000000,23235.000000,59423.000000
23002.000000,15342.000000,23201.000000,59453.000000
22956.000000,15318.000000,23248.000000,59404.000000
23002.000000,15291.000000,23205.000000,59415.000000
22958.000000,15329.000000,23208.000000,59376.000000
22969.000000,15273.000000,23203.000000,59391.000000
22941.000000,15300.000000,23179.000000,59395.000000
22910.000000,15284.000000,23152.000000,59389.000000
22949.000000,15293.000000,23155.000000,59383.000000
22936.000000,15264.000000,23130.000000,59380.000000
22921.000000,15251.000000,23135.000000,59366.000000
22890.000000,15291.000000,23146.000000,59356.000000
22917.000000,15255.000000,23130.000000,59355.000000
22873.000000,15232.000000,23101.000000,59369.000000
22846.000000,15239.000000,23090.000000,59324.000000
22854.000000,15221.000000,23066.000000,59321.000000
22833.000000,15236.000000,23093.000000,59301.000000
22829.000000,15195.000000,23049.000000,59322.000000
22845.000000,15233.000000,23031.000000,59300.000000
22797.000000,15166.000000,23034.000000,59285.000000
22767.000000,15187.000000,23007.000000,59273.000000
22792.000000,15146.000000,22991.000000,59280.000000
22759.000000,15137.000000,22961.000000,59254.000000
22742.000000,15156.000000,22988.000000,59280.000000
22708.000000,15133.000000,22921.000000,59215.000000
22703.000000,15131.000000,22914.000000,59254.000000
22690.000000,15107.000000,22905.000000,59194.000000
22662.000000,15093.000000,22860.000000,59183.000000
22672.000000,15072.000000,22849.000000,59216.000000
22643.000000,15066.000000,22859.000000,59178.000000
22631.000000,15080.000000,22831.000000,59220.000000
22629.000000,15078.000000,22822.000000,59202.000000
22620.000000,15068.000000,22821.000000,59172.000000
22643.000000,15083.000000,22807.000000,59175.000000
22634.000000,15027.000000,22847.000000,59143.000000
22656.000000,15049.000000,22851.000000,59208.000000
22643.000000,15103.000000,22858.000000,59222.000000
22665.000000,15080.000000,22877.000000,59230.000000
22675.000000,15109.000000,22862.000000,59198.000000
22658.000000,15131.000000,22885.000000,59247.000000
22680.000000,15089.000000,22908.000000,59231.000000
22715.000000,15110.000000,22917.000000,59224.000000
22715.000000,15114.000000,22956.000000,59261.000000
22706.000000,15169.000000,22969.000000,59281.000000
22727.000000,15124.000000,22999.000000,59284.000000
22750.000000,15158.000000,22974.000000,59288.000000
22771.000000,15173.000000,23036.000000,59278.000000
22770.000000,15157.000000,23046.000000,59296.000000
22790.000000,15193.000000,23047.000000,59301.000000
22793.000000,15206.000000,23108.000000,59345.000000
22809.000000,15232.000000,23108.000000,59370.000000
22837.000000,15235.000000,23103.000000,59346.000000
22847.000000,15240.000000,23144.000000,59386.000000
22870.000000,15238.000000,23176.000000,59368.000000
22903.000000,15231.000000,23159.000000,59417.000000
22938.000000,15301.000000,23188.000000,59442.000000
22958.000000,15291.000000,23263.000000,59424.000000
22940.000000,15320.000000,23244.000000,59461.000000
22992.000000,15346.000000,23307.000000,59452.000000
23032.000000,15345.000000,23297.000000,59465.000000
23058.000000,15362.000000,23346.000000,59503.000000
23088.000000,15394.000000,23380.000000,59510.000000
23110.000000,15422.000000,23424.000000,59551.000000
23134.000000,15426.000000,23435.000000,59553.000000
23143.000000,15455.000000,23483.000000,59573.000000
23173.000000,15471.000000,23492.000000,59591.000000
23198.000000,15501.000000,23566.000000,59640.000000
23261.000000,15561.000000,23572.000000,59664.000000
23324.000000,15521.000000,23630.000000,59673.000000
23301.000000,15566.000000,23655.000000,59666.000000
23330.000000,15581.000000,23714.000000,59686.000000
23361.000000,15605.000000,23696.000000,59685.000000
23340.000000,15599.000000,23726.000000,59712.000000
23315.000000,15572.000000,23689.000000,59682.000000
23321.000000,15586.000000,23692.000000,59678.000000
23341.000000,15602.000000,23671.000000,59673.000000
23326.000000,15559.000000,23669.000000,59688.000000
23312.000000,15581.000000,23639.000000,59677.000000
23324.000000,15600.000000,23637.000000,59651.000000
23297.000000,15545.000000,23609.000000,59629.000000
23316.000000,15547.000000,23603.000000,59639.000000
23294.000000,15515.000000,23594.000000,59647.000000
23279.000000,15545.000000,23552.000000,59629.000000
23255.000000,15515.000000,23585.000000,59621.000000
23233.000000,15528.000000,23546.000000,59644.000000
23201.000000,15520.000000,23582.000000,59611.000000
23243.000000,15511.000000,23550.000000,59601.000000
23227.000000,15519.000000,23514.000000,59583.000000
23218.000000,15518.000000,23514.000000,59620.000000
23228.000000,15509.000000,23522.000000,59595.000000
23215.000000,15481.000000,23486.000000,59601.000000
23233.000000,15484.000000,23481.000000,59604.000000
23219.000000,15528.000000,23483.000000,59611.000000
23210.000000,15472.000000,23442.000000,59574.000000
23185.000000,15523.000000,23449.000000,59564.000000
23129.000000,15437.000000,23434.000000,59547.000000
23148.000000,15437.000000,23417.000000,59552.000000
23132.000000,15419.000000,23414.000000,59524.000000
23123.000000,15433.000000,23388.000000,59527.000000
23099.000000,15398.000000,23393.000000,59540.000000
23103.000000,15411.000000,23361.000000,59514.000000
23091.000000,15383.000000,23376.000000,59501.000000
23086.000000,15393.000000,23339.000000,59463.000000
23029.000000,15352.000000,23295.000000,59485.000000
23050.000000,15355.000000,23274.000000,59440.000000
23039.000000,15323.000000,23270.000000,59458.000000
23001.000000,15348.000000,23241.000000,59454.000000
22988.000000,15317.000000,23251.000000,59434.000000
22993.000000,15291.000000,23233.000000,59420.000000
22999.000000,15301.000000,23216.000000,59397.000000
22982.000000,15330.000000,23188.000000,59401.000000
22960.000000,15310.000000,23196.000000,59396.000000
22958.000000,15266.000000,23175.000000,59390.000000
22940.000000,15255.000000,23142.000000,59402.000000
22915.000000,15242.000000,23154.000000,59386.000000
22889.000000,15254.000000,23140.000000,59375.000000
22848.000000,15247.000000,23104.000000,59355.000000
22880.000000,15219.000000,23108.000000,59336.000000
22880.000000,15256.000000,23087.000000,59328.000000
22824.000000,15200.000000,23089.000000,59327.000000
22880.000000,15178.000000,23064.000000,59324.000000
22816.000000,15177.000000,23072.000000,59304.000000
22824.000000,15181.000000,23034.000000,59317.000000
22805.000000,15187.000000,23059.000000,59315.000000
22807.000000,15207.000000,23021.000000,59278.000000
22801.000000,15184.000000,23009.000000,59304.000000
22802.000000,15180.000000,23015.000000,59274.000000
22782.000000,15179.000000,22995.000000,59292.000000
22802.000000,15167.000000,22985.000000,59264.000000
22772.000000,15164.000000,22985.000000,59288.000000
22750.000000,15130.000000,22965.000000,59254.000000
22774.000000,15163.000000,22906.000000,59231.000000
22720.000000,15120.000000,22930.000000,59235.000000
22705.000000,15114.000000,22897.000000,59235.000000
22711.000000,15072.000000,22882.000000,59241.000000
22720.000000,15096.000000,22888.000000,59215.000000
22681.000000,15095.000000,22827.000000,59191.000000
22659.000000,15076.000000,22830.000000,59154.000000
22639.000000,15053.000000,22815.000000,59171.000000
22606.000000,15022.000000,22760.000000,59146.000000
22594.000000,15021.000000,22754.000000,59190.000000
22594.000000,15020.000000,22696.000000,59129.000000
22569.000000,15006.000000,22724.000000,59123.000000
22524.000000,15023.000000,22683.000000,59124.000000
22525.000000,15005.000000,22652.000000,59102.000000
22572.000000,14983.000000,22649.000000,59077.000000
22529.000000,14967.000000,22640.000000,59083.000000
22523.000000,14974.000000,22650.000000,59099.000000
22514.000000,14991.000000,22689.000000,59095.000000
22540.000000,15017.000000,22678.000000,59076.000000
22558.000000,14968.000000,22654.000000,59107.000000
22545.000000,15004.000000,22700.000000,59096.000000
22544.000000,14995.000000,22699.000000,59139.000000
22571.000000,15023.000000,22677.000000,59100.000000
22602.000000,14997.000000,22714.000000,59131.000000
22581.000000,15028.000000,22739.000000,59143.000000
22596.000000,15040.000000,22737.000000,59136.000000
22621.000000,15065.000000,22731.000000,59143.000000
22647.000000,15065.000000,22775.000000,59148.000000
22662.000000,15036.000000,22800.000000,59167.000000
22654.000000,15071.000000,22805.000000,59145.000000
22672.000000,15074.000000,22836.000000,59222.000000
22708.000000,15085.000000,22839.000000,59208.000000
22724.000000,15113.000000,22876.000000,59239.000000
22745.000000,15130.000000,22926.000000,59245.000000
22753.000000,15121.000000,22934.000000,59257.000000
22758.000000,15148.000000,22939.000000,59264.000000
22761.000000,15165.000000,22971.000000,59289.000000
22773.000000,15171.000000,23017.000000,59307.000000
22822.000000,15180.000000,23018.000000,59302.000000
22864.000000,15226.000000,23034.000000,59327.000000
22846.000000,15223.000000,23091.000000,59350.000000
22895.000000,15212.000000,23076.000000,59346.000000
22881.000000,15195.000000,23110.000000,59373.000000
22933.000000,15284.000000,23151.000000,59390.000000
22989.000000,15270.000000,23196.000000,59437.000000
23012.000000,15327.000000,23220.000000,59411.000000
23038.000000,15318.000000,23248.000000,59443.000000
23075.000000,15311.000000,23268.000000,59460.000000
23056.000000,15381.000000,23342.000000,59506.000000
23149.000000,15389.000000,23367.000000,59529.000000
23150.000000,15437.000000,23382.000000,59521.000000
23201.000000,15452.000000,23424.000000,59545.000000
23195.000000,15469.000000,23473.000000,59567.000000
23242.000000,15494.000000,23480.000000,59615.000000
23241.000000,15519.000000,23552.000000,59630.000000
23292.000000,15547.000000,23509.000000,59614.000000
23254.000000,15502.000000,23544.000000,59622.000000
23239.000000,15524.000000,23556.000000,59607.000000
23271.000000,15524.000000,23540.000000,59634.000000
23240.000000,15520.000000,23518.000000,59601.000000
23265.000000,15523.000000,23500.000000,59604.000000
23261.000000,15515.000000,23498.000000,59573.000000
23236.000000,15471.000000,23501.000000,59583.000000
23212.000000,15486.000000,23496.000000,59586.000000
23199.000000,15465.000000,23450.000000,59597.000000
23221.000000,15449.000000,23456.000000,59615.000000
23203.000000,15488.000000,23441.000000,59586.000000
23205.000000,15450.000000,23432.000000,59552.000000
23217.000000,15445.000000,23413.000000,59569.000000
23179.000000,15465.000000,23417.000000,59573.000000
23180.000000,15453.000000,23390.000000,59531.000000
23156.000000,15439.000000,23407.000000,59527.000000
23125.000000,15431.000000,23377.000000,59516.000000
23142.000000,15429.000000,23362.000000,59499.000000
23118.000000,15393.000000,23362.000000,59487.000000
23128.000000,15422.000000,23343.000000,59480.000000
23138.000000,15347.000000,23328.000000,59494.000000
23103.000000,15400.000000,23314.000000,59513.000000
