660nm,730nm,850nm,940nm
44047.000000,28879.000000,3359.000000,28529.000000
43987.000000,28816.000000,3324.000000,28421.000000
43943.000000,28758.000000,3302.000000,28317.000000
43918.000000,28698.000000,3307.000000,28215.000000
43923.000000,28644.000000,3350.000000,28118.000000
43961.000000,28600.000000,3432.000000,28024.000000
44027.000000,28563.000000,3560.000000,27929.000000
44110.000000,28519.000000,3749.000000,27827.000000
44211.000000,28466.000000,4012.000000,27718.000000
44333.000000,28415.000000,4349.000000,27615.000000
44476.000000,28367.000000,4761.000000,27521.000000
44638.000000,28312.000000,5247.000000,27427.000000
44821.000000,28251.000000,5798.000000,27328.000000
45022.000000,28196.000000,6401.000000,27235.000000
45227.000000,28145.000000,7048.000000,27152.000000
45424.000000,28093.000000,7733.000000,27064.000000
45618.000000,28042.000000,8439.000000,26976.000000
45814.000000,27995.000000,9150.000000,26896.000000
46008.000000,27949.000000,9854.000000,26823.000000
46197.000000,27901.000000,10535.000000,26742.000000
46387.000000,27856.000000,11175.000000,26654.000000
46572.000000,27826.000000,11753.000000,26575.000000
46740.000000,27812.000000,12264.000000,26512.000000
46891.000000,27804.000000,12712.000000,26456.000000
47035.000000,27801.000000,13095.000000,26406.000000
47175.000000,27800.000000,13413.000000,26362.000000
47306.000000,27789.000000,13671.000000,26313.000000
47426.000000,27769.000000,13882.000000,26247.000000
47540.000000,27746.000000,14050.000000,26171.000000
47652.000000,27725.000000,14182.000000,26096.000000
47759.000000,27701.000000,14293.000000,26027.000000
47866.000000,27673.000000,14393.000000,25958.000000
47976.000000,27645.000000,14476.000000,25891.000000
48083.000000,27615.000000,14541.000000,25824.000000
48181.000000,27575.000000,14596.000000,25751.000000
48276.000000,27528.000000,14646.000000,25669.000000
48376.000000,27481.000000,14686.000000,25581.000000
48482.000000,27439.000000,14716.000000,25497.000000
48587.000000,27402.000000,14746.000000,25428.000000
48693.000000,27379.000000,14785.000000,25384.000000
48802.000000,27383.000000,14840.000000,25379.000000
48913.000000,27411.000000,14912.000000,25413.000000
49027.000000,27460.000000,15001.000000,25484.000000
49146.000000,27537.000000,15103.000000,25596.000000
49270.000000,27657.000000,15210.000000,25760.000000
49389.000000,27820.000000,15323.000000,25970.000000
49496.000000,28014.000000,15445.000000,26215.000000
49596.000000,28233.000000,15574.000000,26503.000000
49692.000000,28479.000000,15712.000000,26843.000000
49780.000000,28749.000000,15860.000000,27230.000000
49857.000000,29033.000000,16015.000000,27644.000000
49926.000000,29325.000000,16169.000000,28082.000000
49985.000000,29630.000000,16309.000000,28556.000000
50027.000000,29948.000000,16435.000000,29060.000000
50048.000000,30270.000000,16554.000000,29572.000000
50053.000000,30594.000000,16658.000000,30086.000000
50045.000000,30918.000000,16732.000000,30604.000000
50023.000000,31234.000000,16774.000000,31118.000000
49992.000000,31533.000000,16786.000000,31612.000000
49960.000000,31822.000000,16763.000000,32089.000000
49926.000000,32102.000000,16703.000000,32553.000000
49889.000000,32368.000000,16613.000000,32990.000000
49848.000000,32615.000000,16506.000000,33394.000000
49810.000000,32848.000000,16380.000000,33769.000000
49781.000000,33064.000000,16232.000000,34113.000000
49757.000000,33255.000000,16068.000000,34414.000000
49737.000000,33420.000000,15900.000000,34670.000000
49723.000000,33566.000000,15729.000000,34893.000000
49707.000000,33698.000000,15561.000000,35103.000000
49684.000000,33810.000000,15410.000000,35297.000000
49658.000000,33896.000000,15288.000000,35465.000000
49639.000000,33966.000000,15199.000000,35609.000000
49628.000000,34026.000000,15134.000000,35739.000000
49615.000000,34072.000000,15090.000000,35851.000000
49597.000000,34108.000000,15066.000000,35940.000000
49585.000000,34150.000000,15051.000000,36014.000000
49576.000000,34201.000000,15041.000000,36082.000000
49569.000000,34250.000000,15037.000000,36138.000000
49572.000000,34294.000000,15037.000000,36181.000000
49590.000000,34342.000000,15030.000000,36222.000000
49614.000000,34397.000000,15014.000000,36267.000000
49634.000000,34453.000000,15001.000000,36312.000000
49649.000000,34510.000000,14998.000000,36366.000000
49662.000000,34576.000000,14997.000000,36443.000000
49670.000000,34648.000000,15002.000000,36545.000000
49669.000000,34715.000000,15023.000000,36657.000000
49663.000000,34775.000000,15058.000000,36763.000000
49657.000000,34836.000000,15091.000000,36866.000000
49643.000000,34897.000000,15111.000000,36970.000000
49619.000000,34951.000000,15121.000000,37064.000000
49593.000000,34995.000000,15115.000000,37146.000000
49568.000000,35031.000000,15091.000000,37224.000000
49540.000000,35057.000000,15054.000000,37296.000000
49503.000000,35072.000000,15004.000000,37347.000000
49464.000000,35086.000000,14940.000000,37373.000000
49425.000000,35105.000000,14863.000000,37390.000000
49381.000000,35124.000000,14778.000000,37402.000000
49332.000000,35134.000000,14694.000000,37403.000000
49282.000000,35138.000000,14608.000000,37393.000000
49237.000000,35146.000000,14513.000000,37369.000000
49198.000000,35160.000000,14412.000000,37330.000000
49161.000000,35171.000000,14318.000000,37288.000000
49132.000000,35178.000000,14230.000000,37252.000000
49110.000000,35186.000000,14143.000000,37232.000000
49089.000000,35191.000000,14059.000000,37225.000000
49067.000000,35186.000000,13978.000000,37221.000000
49044.000000,35179.000000,13898.000000,37224.000000
49018.000000,35175.000000,13816.000000,37235.000000
48987.000000,35169.000000,13735.000000,37244.000000
48953.000000,35161.000000,13655.000000,37241.000000
48922.000000,35163.000000,13563.000000,37235.000000
48895.000000,35177.000000,13457.000000,37239.000000
48872.000000,35195.000000,13349.000000,37251.000000
48850.000000,35208.000000,13248.000000,37263.000000
48834.000000,35221.000000,13150.000000,37266.000000
48821.000000,35234.000000,13052.000000,37256.000000
48802.000000,35239.000000,12958.000000,37238.000000
48774.000000,35235.000000,12872.000000,37223.000000
48744.000000,35225.000000,12793.000000,37210.000000
48719.000000,35212.000000,12725.000000,37193.000000
48693.000000,35188.000000,12666.000000,37169.000000
48663.000000,35151.000000,12615.000000,37142.000000
48633.000000,35112.000000,12562.000000,37109.000000
48603.000000,35075.000000,12513.000000,37064.000000
48570.000000,35033.000000,12477.000000,37003.000000
48535.000000,34981.000000,12454.000000,36939.000000
48496.000000,34929.000000,12436.000000,36878.000000
48451.000000,34878.000000,12421.000000,36814.000000
48394.000000,34817.000000,12400.000000,36728.000000
48327.000000,34747.000000,12366.000000,36621.000000
48256.000000,34676.000000,12316.000000,36505.000000
48181.000000,34609.000000,12252.000000,36384.000000
48099.000000,34541.000000,12184.000000,36254.000000
48017.000000,34471.000000,12111.000000,36130.000000
47944.000000,34400.000000,12028.000000,36013.000000
47877.000000,34325.000000,11934.000000,35892.000000
47815.000000,34247.000000,11837.000000,35756.000000
47765.000000,34169.000000,11742.000000,35610.000000
47731.000000,34094.000000,11654.000000,35474.000000
47707.000000,34018.000000,11585.000000,35352.000000
47681.000000,33937.000000,11539.000000,35234.000000
47655.000000,33850.000000,11508.000000,35114.000000
47628.000000,33760.000000,11489.000000,34998.000000
47597.000000,33667.000000,11484.000000,34879.000000
47563.000000,33570.000000,11489.000000,34746.000000
47532.000000,33474.000000,11488.000000,34603.000000
47503.000000,33386.000000,11472.000000,34470.000000
47472.000000,33301.000000,11441.000000,34343.000000
47438.000000,33212.000000,11401.000000,34214.000000
47409.000000,33124.000000,11346.000000,34089.000000
47383.000000,33044.000000,11269.000000,33972.000000
47349.000000,32965.000000,11168.000000,33848.000000
47306.000000,32885.000000,11049.000000,33709.000000
47264.000000,32804.000000,10913.000000,33567.000000
47225.000000,32724.000000,10765.000000,33433.000000
47178.000000,32640.000000,10620.000000,33305.000000
47128.000000,32553.000000,10488.000000,33180.000000
47084.000000,32473.000000,10374.000000,33064.000000
47048.000000,32397.000000,10281.000000,32948.000000
47018.000000,32320.000000,10213.000000,32826.000000
46997.000000,32239.000000,10166.000000,32699.000000
46984.000000,32162.000000,10130.000000,32574.000000
46972.000000,32090.000000,10101.000000,32457.000000
46958.000000,32019.000000,10081.000000,32344.000000
46944.000000,31952.000000,10065.000000,32233.000000
46932.000000,31890.000000,10039.000000,32133.000000
46915.000000,31829.000000,9995.000000,32041.000000
46883.000000,31768.000000,9941.000000,31949.000000
46840.000000,31710.000000,9878.000000,31857.000000
46792.000000,31654.000000,9801.000000,31762.000000
46740.000000,31595.000000,9712.000000,31660.000000
46684.000000,31532.000000,9621.000000,31554.000000
46628.000000,31474.000000,9530.000000,31455.000000
46571.000000,31421.000000,9439.000000,31365.000000
46511.000000,31370.000000,9355.000000,31273.000000
46449.000000,31312.000000,9287.000000,31170.000000
46397.000000,31247.000000,9235.000000,31062.000000
46359.000000,31184.000000,9192.000000,30953.000000
46331.000000,31119.000000,9162.000000,30835.000000
46303.000000,31050.000000,9149.000000,30714.000000
46277.000000,30982.000000,9142.000000,30600.000000
46252.000000,30921.000000,9137.000000,30503.000000
46216.000000,30862.000000,9134.000000,30420.000000
46169.000000,30797.000000,9131.000000,30336.000000
46117.000000,30729.000000,9119.000000,30240.000000
46056.000000,30665.000000,9091.000000,30137.000000
45984.000000,30600.000000,9050.000000,30031.000000
45905.000000,30530.000000,8998.000000,29931.000000
45830.000000,30462.000000,8931.000000,29845.000000
45764.000000,30401.000000,8849.000000,29766.000000
45700.000000,30342.000000,8765.000000,29677.000000
45629.000000,30278.000000,8689.000000,29569.000000
45556.000000,30214.000000,8621.000000,29455.000000
45484.000000,30154.000000,8561.000000,29344.000000
45412.000000,30090.000000,8512.000000,29224.000000
45337.000000,30016.000000,8474.000000,29096.000000
45265.000000,29940.000000,8442.000000,28970.000000
45203.000000,29862.000000,8416.000000,28848.000000
45148.000000,29780.000000,8399.000000,28721.000000
45097.000000,29695.000000,8385.000000,28591.000000
45050.000000,29619.000000,8363.000000,28469.000000
45000.000000,29553.000000,8333.000000,28353.000000
44938.000000,29496.000000,8295.000000,28242.000000
44873.000000,29440.000000,8249.000000,28134.000000
44808.000000,29385.000000,8189.000000,28033.000000
44739.000000,29325.000000,8123.000000,27934.000000
44665.000000,29255.000000,8056.000000,27822.000000
44586.000000,29175.000000,7987.000000,27701.000000
44506.000000,29101.000000,7903.000000,27584.000000
44430.000000,29034.000000,7802.000000,27472.000000
44357.000000,28968.000000,7697.000000,27363.000000
44292.000000,28904.000000,7592.000000,27257.000000
44237.000000,28848.000000,7486.000000,27164.000000
44188.000000,28798.000000,7384.000000,27080.000000
44137.000000,28745.000000,7292.000000,26989.000000
44092.000000,28690.000000,7207.000000,26884.000000
44054.000000,28631.000000,7126.000000,26773.000000
44010.000000,28566.000000,7053.000000,26651.000000
43958.000000,28492.000000,6995.000000,26524.000000
43902.000000,28414.000000,6943.000000,26401.000000
43845.000000,28333.000000,6885.000000,26275.000000
43784.000000,28245.000000,6822.000000,26143.000000
43719.000000,28147.000000,6758.000000,26005.000000
43655.000000,28048.000000,6689.000000,25861.000000
43597.000000,27956.000000,6611.000000,25714.000000
43542.000000,27867.000000,6524.000000,25566.000000
43488.000000,27776.000000,6436.000000,25420.000000
43439.000000,27689.000000,6346.000000,25284.000000
43399.000000,27606.000000,6250.000000,25161.000000
43365.000000,27521.000000,6156.000000,25043.000000
43337.000000,27433.000000,6070.000000,24923.000000
43316.000000,27351.000000,5989.000000,24805.000000
43304.000000,27283.000000,5912.000000,24693.000000
43304.000000,27223.000000,5842.000000,24581.000000
43325.000000,27159.000000,5782.000000,24463.000000
43376.000000,27092.000000,5731.000000,24344.000000
43459.000000,27025.000000,5683.000000,24226.000000
43564.000000,26950.000000,5641.000000,24101.000000
43684.000000,26864.000000,5608.000000,23965.000000
43824.000000,26774.000000,5576.000000,23830.000000
43989.000000,26688.000000,5539.000000,23699.000000
44174.000000,26600.000000,5503.000000,23565.000000
44377.000000,26511.000000,5470.000000,23429.000000
44598.000000,26421.000000,5437.000000,23299.000000
44835.000000,26324.000000,5404.000000,23173.000000
45083.000000,26220.000000,5375.000000,23037.000000
45338.000000,26119.000000,5352.000000,22886.000000
45599.000000,26030.000000,5331.000000,22735.000000
45864.000000,25950.000000,5315.000000,22593.000000
46124.000000,25874.000000,5316.000000,22457.000000
46377.000000,25800.000000,5349.000000,22329.000000
46621.000000,25728.000000,5419.000000,22205.000000
46848.000000,25651.000000,5531.000000,22078.000000
47049.000000,25561.000000,5703.000000,21944.000000
47224.000000,25464.000000,5946.000000,21802.000000
47382.000000,25371.000000,6262.000000,21661.000000
47525.000000,25278.000000,6650.000000,21516.000000
47652.000000,25177.000000,7109.000000,21366.000000
47767.000000,25071.000000,7632.000000,21224.000000
47873.000000,24970.000000,8205.000000,21092.000000
47967.000000,24877.000000,8824.000000,20964.000000
48045.000000,24786.000000,9483.000000,20838.000000
48111.000000,24703.000000,10170.000000,20716.000000
48177.000000,24639.000000,10868.000000,20612.000000
48245.000000,24600.000000,11566.000000,20537.000000
48317.000000,24581.000000,12256.000000,20490.000000
48397.000000,24583.000000,12923.000000,20479.000000
48481.000000,24612.000000,13549.000000,20513.000000
48560.000000,24663.000000,14124.000000,20590.000000
48629.000000,24736.000000,14646.000000,20696.000000
48696.000000,24832.000000,15106.000000,20829.000000
48762.000000,24951.000000,15502.000000,21000.000000
48826.000000,25092.000000,15841.000000,21214.000000
48888.000000,25254.000000,16127.000000,21463.000000
48952.000000,25438.000000,16366.000000,21746.000000
49019.000000,25635.000000,16566.000000,22058.000000
49087.000000,25838.000000,16741.000000,22372.000000
49164.000000,26038.000000,16899.000000,22675.000000
49250.000000,26239.000000,17036.000000,22978.000000
49340.000000,26441.000000,17152.000000,23285.000000
49424.000000,26636.000000,17251.000000,23584.000000
49495.000000,26816.000000,17342.000000,23868.000000
49552.000000,26986.000000,17416.000000,24144.000000
49593.000000,27149.000000,17470.000000,24420.000000
49619.000000,27302.000000,17518.000000,24692.000000
49636.000000,27440.000000,17575.000000,24953.000000
49651.000000,27574.000000,17643.000000,25214.000000
49659.000000,27705.000000,17726.000000,25482.000000
49649.000000,27833.000000,17830.000000,25739.000000
49617.000000,27961.000000,17957.000000,25978.000000
49570.000000,28098.000000,18102.000000,26213.000000
49511.000000,28240.000000,18257.000000,26444.000000
49442.000000,28379.000000,18421.000000,26665.000000
49372.000000,28518.000000,18594.000000,26883.000000
49307.000000,28666.000000,18766.000000,27100.000000
49242.000000,28813.000000,18928.000000,27313.000000
49175.000000,28947.000000,19077.000000,27509.000000
49107.000000,29072.000000,19215.000000,27691.000000
49046.000000,29198.000000,19334.000000,27870.000000
48991.000000,29324.000000,19426.000000,28051.000000
48940.000000,29443.000000,19495.000000,28230.000000
48898.000000,29558.000000,19539.000000,28412.000000
48866.000000,29677.000000,19552.000000,28596.000000
48838.000000,29793.000000,19536.000000,28772.000000
48813.000000,29907.000000,19504.000000,28929.000000
48792.000000,30025.000000,19460.000000,29076.000000
48777.000000,30144.000000,19402.000000,29227.000000
48761.000000,30257.000000,19325.000000,29383.000000
48739.000000,30364.000000,19232.000000,29540.000000
48716.000000,30470.000000,19123.000000,29706.000000
48692.000000,30574.000000,18996.000000,29883.000000
48663.000000,30671.000000,18859.000000,30052.000000
48626.000000,30760.000000,18716.000000,30205.000000
48588.000000,30851.000000,18565.000000,30359.000000
48552.000000,30947.000000,18402.000000,30523.000000
48517.000000,31039.000000,18234.000000,30685.000000
48484.000000,31116.000000,18070.000000,30822.000000
48456.000000,31180.000000,17918.000000,30933.000000
48430.000000,31234.000000,17786.000000,31026.000000
48397.000000,31275.000000,17680.000000,31100.000000
48356.000000,31303.000000,17603.000000,31155.000000
48311.000000,31323.000000,17547.000000,31202.000000
48262.000000,31340.000000,17504.000000,31255.000000
48206.000000,31348.000000,17482.000000,31310.000000
48141.000000,31351.000000,17474.000000,31357.000000
48066.000000,31356.000000,17464.000000,31392.000000
47981.000000,31363.000000,17446.000000,31419.000000
47889.000000,31365.000000,17426.000000,31432.000000
47802.000000,31361.000000,17410.000000,31438.000000
47720.000000,31360.000000,17391.000000,31444.000000
47646.000000,31360.000000,17363.000000,31451.000000
47576.000000,31355.000000,17334.000000,31450.000000
47511.000000,31344.000000,17304.000000,31438.000000
47457.000000,31341.000000,17267.000000,31428.000000
47409.000000,31350.000000,17228.000000,31425.000000
47364.000000,31360.000000,17188.000000,31421.000000
47323.000000,31369.000000,17143.000000,31418.000000
47285.000000,31383.000000,17087.000000,31427.000000
47242.000000,31394.000000,17031.000000,31438.000000
47189.000000,31397.000000,16989.000000,31437.000000
47133.000000,31398.000000,16963.000000,31426.000000
47076.000000,31401.000000,16950.000000,31418.000000
47011.000000,31396.000000,16954.000000,31415.000000
46940.000000,31379.000000,16978.000000,31404.000000
46869.000000,31358.000000,17011.000000,31383.000000
46802.000000,31338.000000,17036.000000,31367.000000
46739.000000,31314.000000,17050.000000,31350.000000
46673.000000,31286.000000,17057.000000,31322.000000
46611.000000,31257.000000,17052.000000,31288.000000
46560.000000,31229.000000,17028.000000,31254.000000
46516.000000,31200.000000,16994.000000,31217.000000
46479.000000,31164.000000,16953.000000,31170.000000
46451.000000,31121.000000,16904.000000,31112.000000
46430.000000,31078.000000,16854.000000,31048.000000
46413.000000,31037.000000,16816.000000,30972.000000
46399.000000,30993.000000,16801.000000,30886.000000
46387.000000,30948.000000,16804.000000,30803.000000
46378.000000,30903.000000,16823.000000,30728.000000
46369.000000,30850.000000,16863.000000,30646.000000
46354.000000,30788.000000,16924.000000,30547.000000
46332.000000,30724.000000,16991.000000,30435.000000
46302.000000,30659.000000,17051.000000,30321.000000
46261.000000,30587.000000,17103.000000,30206.000000
46216.000000,30509.000000,17145.000000,30093.000000
46168.000000,30430.000000,17167.000000,29989.000000
46117.000000,30351.000000,17167.000000,29890.000000
46065.000000,30264.000000,17152.000000,29782.000000
46021.000000,30172.000000,17128.000000,29662.000000
45988.000000,30084.000000,17095.000000,29539.000000
45959.000000,30001.000000,17054.000000,29419.000000
45922.000000,29920.000000,17009.000000,29301.000000
45877.000000,29843.000000,16960.000000,29189.000000
45832.000000,29775.000000,16902.000000,29083.000000
45781.000000,29716.000000,16835.000000,28978.000000
45719.000000,29657.000000,16768.000000,28865.000000
45652.000000,29596.000000,16713.000000,28750.000000
45589.000000,29538.000000,16674.000000,28646.000000
45528.000000,29480.000000,16664.000000,28547.000000
45463.000000,29418.000000,16697.000000,28444.000000
45398.000000,29357.000000,16770.000000,28341.000000
45347.000000,29301.000000,16878.000000,28244.000000
45308.000000,29245.000000,17017.000000,28152.000000
45277.000000,29184.000000,17187.000000,28056.000000
45255.000000,29125.000000,17372.000000,27952.000000
45244.000000,29074.000000,17547.000000,27853.000000
45245.000000,29028.000000,17703.000000,27766.000000
45254.000000,28975.000000,17835.000000,27678.000000
45270.000000,28912.000000,17937.000000,27587.000000
45285.000000,28850.000000,18003.000000,27495.000000
45286.000000,28791.000000,18032.000000,27392.000000
45267.000000,28728.000000,18030.000000,27279.000000
45240.000000,28666.000000,17997.000000,27169.000000
45210.000000,28612.000000,17936.000000,27069.000000
45175.000000,28561.000000,17859.000000,26974.000000
45136.000000,28505.000000,17772.000000,26876.000000
45099.000000,28447.000000,17672.000000,26775.000000
45066.000000,28394.000000,17561.000000,26674.000000
45037.000000,28341.000000,17449.000000,26571.000000
45017.000000,28287.000000,17347.000000,26472.000000
45010.000000,28238.000000,17262.000000,26387.000000
45015.000000,28195.000000,17192.000000,26313.000000
45022.000000,28151.000000,17138.000000,26239.000000
45022.000000,28100.000000,17099.000000,26157.000000
45020.000000,28050.000000,17068.000000,26075.000000
45020.000000,28007.000000,17038.000000,25996.000000
45023.000000,27962.000000,17012.000000,25916.000000
45027.000000,27911.000000,16983.000000,25834.000000
45027.000000,27859.000000,16942.000000,25754.000000
45016.000000,27813.000000,16881.000000,25671.000000
44989.000000,27769.000000,16806.000000,25584.000000
44949.000000,27727.000000,16724.000000,25495.000000
44900.000000,27686.000000,16631.000000,25414.000000
44839.000000,27649.000000,16534.000000,25336.000000
44771.000000,27610.000000,16447.000000,25257.000000
44704.000000,27568.000000,16376.000000,25181.000000
44650.000000,27524.000000,16311.000000,25109.000000
44617.000000,27475.000000,16248.000000,25028.000000
44595.000000,27418.000000,16186.000000,24937.000000
44582.000000,27361.000000,16121.000000,24842.000000
44584.000000,27309.000000,16049.000000,24755.000000
44603.000000,27257.000000,15978.000000,24677.000000
44632.000000,27191.000000,15915.000000,24590.000000
44665.000000,27113.000000,15860.000000,24494.000000
44700.000000,27038.000000,15804.000000,24396.000000
44728.000000,26970.000000,15747.000000,24293.000000
44747.000000,26902.000000,15693.000000,24186.000000
44754.000000,26836.000000,15639.000000,24085.000000
44754.000000,26774.000000,15581.000000,23989.000000
44745.000000,26706.000000,15515.000000,23883.000000
44720.000000,26629.000000,15446.000000,23757.000000
44683.000000,26548.000000,15371.000000,23619.000000
44645.000000,26471.000000,15286.000000,23483.000000
44605.000000,26399.000000,15196.000000,23350.000000
44560.000000,26324.000000,15108.000000,23222.000000
44516.000000,26248.000000,15023.000000,23107.000000
44476.000000,26171.000000,14945.000000,22999.000000
44439.000000,26092.000000,14878.000000,22884.000000
44407.000000,26009.000000,14823.000000,22755.000000
44388.000000,25928.000000,14764.000000,22625.000000
44384.000000,25855.000000,14698.000000,22508.000000
44389.000000,25783.000000,14631.000000,22399.000000
44405.000000,25712.000000,14563.000000,22290.000000
44431.000000,25649.000000,14488.000000,22189.000000
44452.000000,25595.000000,14407.000000,22104.000000
44459.000000,25545.000000,14327.000000,22025.000000
44450.000000,25498.000000,14250.000000,21951.000000
44433.000000,25458.000000,14166.000000,21884.000000
44408.000000,25418.000000,14081.000000,21823.000000
44368.000000,25373.000000,14005.000000,21758.000000
44311.000000,25321.000000,13943.000000,21682.000000
44241.000000,25273.000000,13888.000000,21607.000000
44164.000000,25234.000000,13836.000000,21538.000000
44085.000000,25196.000000,13794.000000,21473.000000
44018.000000,25158.000000,13759.000000,21410.000000
43973.000000,25123.000000,13720.000000,21352.000000
43949.000000,25090.000000,13676.000000,21292.000000
43937.000000,25054.000000,13635.000000,21216.000000
43933.000000,25015.000000,13599.000000,21126.000000
43937.000000,24978.000000,13560.000000,21037.000000
43941.000000,24939.000000,13523.000000,20956.000000
43945.000000,24895.000000,13492.000000,20872.000000
43952.000000,24849.000000,13460.000000,20790.000000
43953.000000,24809.000000,13423.000000,20714.000000
43941.000000,24772.000000,13387.000000,20638.000000
43923.000000,24735.000000,13356.000000,20554.000000
43905.000000,24703.000000,13329.000000,20474.000000
43897.000000,24684.000000,13302.000000,20407.000000
43899.000000,24669.000000,13276.000000,20353.000000
43911.000000,24646.000000,13250.000000,20300.000000
43945.000000,24612.000000,13217.000000,20244.000000
44009.000000,24570.000000,13172.000000,20182.000000
44098.000000,24525.000000,13121.000000,20099.000000
44208.000000,24479.000000,13072.000000,19998.000000
44341.000000,24434.000000,13024.000000,19900.000000
44502.000000,24398.000000,12972.000000,19818.000000
44685.000000,24369.000000,12916.000000,19752.000000
44885.000000,24340.000000,12860.000000,19694.000000
45105.000000,24310.000000,12806.000000,19645.000000
45346.000000,24283.000000,12756.000000,19611.000000
45602.000000,24258.000000,12719.000000,19582.000000
45870.000000,24233.000000,12698.000000,19548.000000
46151.000000,24215.000000,12693.000000,19513.000000
46442.000000,24202.000000,12706.000000,19484.000000
46732.000000,24182.000000,12752.000000,19448.000000
47015.000000,24155.000000,12850.000000,19395.000000
47286.000000,24122.000000,13003.000000,19329.000000
47541.000000,24083.000000,13212.000000,19261.000000
47777.000000,24039.000000,13486.000000,19188.000000
47996.000000,23996.000000,13828.000000,19112.000000
48204.000000,23959.000000,14234.000000,19044.000000
48394.000000,23926.000000,14702.000000,18985.000000
48560.000000,23891.000000,15233.000000,18921.000000
48702.000000,23859.000000,15814.000000,18857.000000
48825.000000,23840.000000,16427.000000,18809.000000
48924.000000,23839.000000,17060.000000,18782.000000
49000.000000,23854.000000,17711.000000,18775.000000
49062.000000,23889.000000,18372.000000,18797.000000
49119.000000,23952.000000,19031.000000,18863.000000
49173.000000,24040.000000,19671.000000,18970.000000
49221.000000,24145.000000,20280.000000,19106.000000
49272.000000,24271.000000,20840.000000,19267.000000
49330.000000,24420.000000,21342.000000,19466.000000
49390.000000,24588.000000,21789.000000,19700.000000
49445.000000,24774.000000,22191.000000,19964.000000
49498.000000,24979.000000,22544.000000,20265.000000
49552.000000,25203.000000,22847.000000,20596.000000
49605.000000,25437.000000,23108.000000,20940.000000
49655.000000,25668.000000,23334.000000,21289.000000
49707.000000,25897.000000,23523.000000,21639.000000
49765.000000,26129.000000,23676.000000,21992.000000
49823.000000,26360.000000,23799.000000,22347.000000
49876.000000,26580.000000,23906.000000,22693.000000
49928.000000,26787.000000,23999.000000,23030.000000
49985.000000,26982.000000,24075.000000,23365.000000
50046.000000,27163.000000,24141.000000,23687.000000
50103.000000,27329.000000,24202.000000,23998.000000
50157.000000,27493.000000,24254.000000,24311.000000
50209.000000,27659.000000,24302.000000,24630.000000
50256.000000,27822.000000,24358.000000,24942.000000
50298.000000,27976.000000,24430.000000,25240.000000
50334.000000,28130.000000,24514.000000,25528.000000
50361.000000,28286.000000,24608.000000,25813.000000
50369.000000,28441.000000,24723.000000,26086.000000
50356.000000,28594.000000,24862.000000,26350.000000
50329.000000,28750.000000,25018.000000,26615.000000
50287.000000,28909.000000,25184.000000,26884.000000
50230.000000,29066.000000,25359.000000,27151.000000
50160.000000,29221.000000,25541.000000,27412.000000
50094.000000,29375.000000,25723.000000,27671.000000
50037.000000,29530.000000,25904.000000,27933.000000
49975.000000,29681.000000,26080.000000,28196.000000
49908.000000,29826.000000,26243.000000,28461.000000
49847.000000,29969.000000,26383.000000,28727.000000
49794.000000,30113.000000,26497.000000,28986.000000
49744.000000,30251.000000,26588.000000,29230.000000
49698.000000,30388.000000,26648.000000,29467.000000
49652.000000,30532.000000,26670.000000,29717.000000
49599.000000,30680.000000,26650.000000,29979.000000
49539.000000,30824.000000,26596.000000,30233.000000
49480.000000,30964.000000,26511.000000,30472.000000
49429.000000,31107.000000,26393.000000,30712.000000
49383.000000,31249.000000,26248.000000,30957.000000
49335.000000,31384.000000,26084.000000,31194.000000
49292.000000,31513.000000,25903.000000,31416.000000
49253.000000,31640.000000,25708.000000,31628.000000
49207.000000,31757.000000,25510.000000,31830.000000
49153.000000,31863.000000,25324.000000,32021.000000
49100.000000,31963.000000,25153.000000,32206.000000
49055.000000,32060.000000,24994.000000,32390.000000
49021.000000,32152.000000,24850.000000,32568.000000
48994.000000,32231.000000,24726.000000,32718.000000
48977.000000,32292.000000,24615.000000,32836.000000
48970.000000,32344.000000,24515.000000,32936.000000
48962.000000,32388.000000,24422.000000,33013.000000
48952.000000,32420.000000,24338.000000,33061.000000
48938.000000,32443.000000,24258.000000,33098.000000
48915.000000,32463.000000,24174.000000,33133.000000
48886.000000,32476.000000,24084.000000,33158.000000
48847.000000,32479.000000,23993.000000,33167.000000
48798.000000,32482.000000,23897.000000,33169.000000
48737.000000,32495.000000,23799.000000,33173.000000
48663.000000,32513.000000,23713.000000,33178.000000
48581.000000,32525.000000,23641.000000,33186.000000
48494.000000,32529.000000,23577.000000,33199.000000
48399.000000,32528.000000,23514.000000,33214.000000
48294.000000,32525.000000,23456.000000,33218.000000
48186.000000,32520.000000,23400.000000,33208.000000
48081.000000,32514.000000,23340.000000,33200.000000
47981.000000,32506.000000,23274.000000,33211.000000
47883.000000,32494.000000,23208.000000,33223.000000
47789.000000,32480.000000,23141.000000,33221.000000
47704.000000,32467.000000,23061.000000,33211.000000
47627.000000,32455.000000,22965.000000,33197.000000
47560.000000,32440.000000,22860.000000,33182.000000
47508.000000,32422.000000,22747.000000,33166.000000
47468.000000,32409.000000,22622.000000,33155.000000
47430.000000,32403.000000,22484.000000,33148.000000
47384.000000,32389.000000,22336.000000,33127.000000
47333.000000,32365.000000,22180.000000,33092.000000
47282.000000,32337.000000,22008.000000,33070.000000
47223.000000,32304.000000,21821.000000,33058.000000
47148.000000,32264.000000,21627.000000,33031.000000
47061.000000,32226.000000,21431.000000,32988.000000
46969.000000,32190.000000,21234.000000,32928.000000
46875.000000,32147.000000,21043.000000,32852.000000
46783.000000,32098.000000,20863.000000,32773.000000
46700.000000,32049.000000,20697.000000,32694.000000
46629.000000,32002.000000,20542.000000,32609.000000
46568.000000,31952.000000,20402.000000,32515.000000
46511.000000,31889.000000,20282.000000,32411.000000
46465.000000,31817.000000,20174.000000,32297.000000
46439.000000,31748.000000,20070.000000,32185.000000
46429.000000,31680.000000,19972.000000,32070.000000
46423.000000,31609.000000,19880.000000,31946.000000
46418.000000,31541.000000,19791.000000,31827.000000
46412.000000,31477.000000,19702.000000,31717.000000
46403.000000,31409.000000,19616.000000,31610.000000
46394.000000,31338.000000,19532.000000,31506.000000
46389.000000,31272.000000,19447.000000,31409.000000
46385.000000,31213.000000,19350.000000,31322.000000
46379.000000,31150.000000,19243.000000,31231.000000
46376.000000,31079.000000,19130.000000,31122.000000
46385.000000,31008.000000,19002.000000,31004.000000
46409.000000,30939.000000,18859.000000,30884.000000
46448.000000,30867.000000,18711.000000,30758.000000
46497.000000,30790.000000,18561.000000,30628.000000
46554.000000,30714.000000,18405.000000,30502.000000
46613.000000,30638.000000,18243.000000,30384.000000
46669.000000,30557.000000,18086.000000,30267.000000
46722.000000,30480.000000,17944.000000,30143.000000
46776.000000,30414.000000,17810.000000,30024.000000
46820.000000,30355.000000,17683.000000,29920.000000
46847.000000,30291.000000,17563.000000,29823.000000
46859.000000,30221.000000,17445.000000,29725.000000
46857.000000,30151.000000,17319.000000,29629.000000
46835.000000,30082.000000,17190.000000,29526.000000
46792.000000,30012.000000,17070.000000,29409.000000
46736.000000,29942.000000,16959.000000,29286.000000
46679.000000,29876.000000,16850.000000,29176.000000
46621.000000,29815.000000,16746.000000,29080.000000
46557.000000,29753.000000,16657.000000,28979.000000
46491.000000,29693.000000,16582.000000,28873.000000
46433.000000,29639.000000,16516.000000,28776.000000
46380.000000,29588.000000,16454.000000,28684.000000
46326.000000,29537.000000,16393.000000,28592.000000
46273.000000,29491.000000,16329.000000,28504.000000
46225.000000,29449.000000,16257.000000,28427.000000
46180.000000,29404.000000,16184.000000,28352.000000
46130.000000,29351.000000,16118.000000,28270.000000
46073.000000,29295.000000,16057.000000,28182.000000
46012.000000,29240.000000,15993.000000,28102.000000
45946.000000,29186.000000,15928.000000,28031.000000
45871.000000,29129.000000,15870.000000,27956.000000
45795.000000,29070.000000,15815.000000,27870.000000
45725.000000,29014.000000,15767.000000,27781.000000
45663.000000,28958.000000,15731.000000,27688.000000
45613.000000,28905.000000,15704.000000,27595.000000
45574.000000,28860.000000,15672.000000,27517.000000
45545.000000,28821.000000,15631.000000,27451.000000
45515.000000,28777.000000,15588.000000,27383.000000
45480.000000,28724.000000,15554.000000,27303.000000
45438.000000,28675.000000,15525.000000,27220.000000
45390.000000,28640.000000,15495.000000,27139.000000
45331.000000,28613.000000,15473.000000,27055.000000
45258.000000,28584.000000,15472.000000,26968.000000
45173.000000,28551.000000,15498.000000,26882.000000
45076.000000,28512.000000,15539.000000,26794.000000
44964.000000,28466.000000,15585.000000,26702.000000
44844.000000,28418.000000,15626.000000,26609.000000
44729.000000,28374.000000,15648.000000,26520.000000
44625.000000,28333.000000,15632.000000,26435.000000
44532.000000,28287.000000,15584.000000,26347.000000
44449.000000,28239.000000,15514.000000,26254.000000
44371.000000,28199.000000,15428.000000,26167.000000
44301.000000,28167.000000,15336.000000,26086.000000
44234.000000,28128.000000,15251.000000,26003.000000
44167.000000,28082.000000,15172.000000,25923.000000
44099.000000,28035.000000,15090.000000,25856.000000
44029.000000,27988.000000,15003.000000,25800.000000
43953.000000,27943.000000,14915.000000,25742.000000
43875.000000,27901.000000,14822.000000,25676.000000
43799.000000,27865.000000,14719.000000,25609.000000
43725.000000,27832.000000,14608.000000,25542.000000
43652.000000,27792.000000,14495.000000,25465.000000
43587.000000,27746.000000,14384.000000,25376.000000
43527.000000,27702.000000,14277.000000,25292.000000
43467.000000,27660.000000,14184.000000,25213.000000
43400.000000,27614.000000,14112.000000,25131.000000
43332.000000,27570.000000,14055.000000,25048.000000
43270.000000,27526.000000,13999.000000,24974.000000
43213.000000,27474.000000,13941.000000,24898.000000
43159.000000,27419.000000,13885.000000,24809.000000
43113.000000,27368.000000,13825.000000,24715.000000
43072.000000,27324.000000,13764.000000,24630.000000
43028.000000,27283.000000,13709.000000,24558.000000
42985.000000,27238.000000,13662.000000,24483.000000
42951.000000,27191.000000,13611.000000,24399.000000
42927.000000,27150.000000,13549.000000,24321.000000
42910.000000,27111.000000,13481.000000,24256.000000
42894.000000,27068.000000,13415.000000,24195.000000
42877.000000,27025.000000,13346.000000,24133.000000
42866.000000,26984.000000,13270.000000,24065.000000
42853.000000,26944.000000,13201.000000,23985.000000
42832.000000,26903.000000,13141.000000,23897.000000
42805.000000,26870.000000,13083.000000,23817.000000
42776.000000,26850.000000,13026.000000,23756.000000
42739.000000,26832.000000,12970.000000,23698.000000
42697.000000,26803.000000,12914.000000,23628.000000
42648.000000,26770.000000,12854.000000,23551.000000
42592.000000,26741.000000,12786.000000,23474.000000
42534.000000,26708.000000,12707.000000,23397.000000
42487.000000,26670.000000,12619.000000,23321.000000
42454.000000,26631.000000,12519.000000,23249.000000
42432.000000,26589.000000,12411.000000,23178.000000
42410.000000,26544.000000,12303.000000,23099.000000
42387.000000,26495.000000,12206.000000,23009.000000
42364.000000,26449.000000,12116.000000,22925.000000
42339.000000,26406.000000,12037.000000,22850.000000
42310.000000,26358.000000,11979.000000,22776.000000
42277.000000,26305.000000,11945.000000,22703.000000
42237.000000,26258.000000,11926.000000,22637.000000
42189.000000,26218.000000,11912.000000,22573.000000
42129.000000,26178.000000,11902.000000,22505.000000
42062.000000,26137.000000,11898.000000,22437.000000
41989.000000,26102.000000,11898.000000,22381.000000
41912.000000,26072.000000,11899.000000,22335.000000
41841.000000,26041.000000,11902.000000,22286.000000
41781.000000,26012.000000,11898.000000,22239.000000
41733.000000,25988.000000,11877.000000,22192.000000
41692.000000,25965.000000,11840.000000,22136.000000
41656.000000,25935.000000,11799.000000,22069.000000
41631.000000,25902.000000,11757.000000,22000.000000
41619.000000,25871.000000,11710.000000,21937.000000
41616.000000,25841.000000,11658.000000,21873.000000
41621.000000,25810.000000,11604.000000,21796.000000
41640.000000,25781.000000,11547.000000,21715.000000
41681.000000,25759.000000,11486.000000,21648.000000
41742.000000,25740.000000,11423.000000,21598.000000
41819.000000,25721.000000,11366.000000,21553.000000
41914.000000,25708.000000,11319.000000,21519.000000
42030.000000,25705.000000,11278.000000,21492.000000
42164.000000,25707.000000,11246.000000,21461.000000
42319.000000,25715.000000,11223.000000,21429.000000
42509.000000,25735.000000,11198.000000,21411.000000
42737.000000,25767.000000,11170.000000,21414.000000
42986.000000,25806.000000,11143.000000,21426.000000
43245.000000,25847.000000,11118.000000,21431.000000
43519.000000,25891.000000,11086.000000,21435.000000
43799.000000,25936.000000,11039.000000,21444.000000
44072.000000,25978.000000,10981.000000,21449.000000
44329.000000,26012.000000,10917.000000,21449.000000
44572.000000,26040.000000,10844.000000,21456.000000
44797.000000,26066.000000,10759.000000,21476.000000
44994.000000,26091.000000,10668.000000,21504.000000
45157.000000,26128.000000,10575.000000,21544.000000
45290.000000,26189.000000,10472.000000,21611.000000
45396.000000,26276.000000,10367.000000,21714.000000
45480.000000,26382.000000,10269.000000,21848.000000
45551.000000,26506.000000,10180.000000,22010.000000
45617.000000,26653.000000,10090.000000,22214.000000
45678.000000,26826.000000,10001.000000,22457.000000
45727.000000,27018.000000,9920.000000,22729.000000
45766.000000,27228.000000,9844.000000,23035.000000
45806.000000,27455.000000,9771.000000,23378.000000
45851.000000,27697.000000,9704.000000,23755.000000
45896.000000,27952.000000,9649.000000,24156.000000
45946.000000,28218.000000,9600.000000,24588.000000
45998.000000,28501.000000,9549.000000,25059.000000
46044.000000,28799.000000,9507.000000,25558.000000
46080.000000,29106.000000,9490.000000,26069.000000
46116.000000,29414.000000,9507.000000,26595.000000
46152.000000,29726.000000,9566.000000,27137.000000
46181.000000,30041.000000,9680.000000,27685.000000
46201.000000,30354.000000,9862.000000,28236.000000
46218.000000,30670.000000,10115.000000,28805.000000
46231.000000,30992.000000,10434.000000,29405.000000
46239.000000,31318.000000,10821.000000,30032.000000
46241.000000,31645.000000,11279.000000,30661.000000
46241.000000,31976.000000,11803.000000,31276.000000
46241.000000,32313.000000,12387.000000,31875.000000
46246.000000,32642.000000,13027.000000,32451.000000
46256.000000,32954.000000,13708.000000,32995.000000
46274.000000,33251.000000,14410.000000,33504.000000
46294.000000,33530.000000,15119.000000,33976.000000
46307.000000,33783.000000,15828.000000,34400.000000
46311.000000,34006.000000,16527.000000,34770.000000
46308.000000,34209.000000,17197.000000,35105.000000
46290.000000,34401.000000,17821.000000,35419.000000
46246.000000,34576.000000,18392.000000,35709.000000
46175.000000,34734.000000,18910.000000,35968.000000
46084.000000,34884.000000,19367.000000,36196.000000
45976.000000,35025.000000,19754.000000,36391.000000
45850.000000,35151.000000,20078.000000,36550.000000
45713.000000,35262.000000,20342.000000,36686.000000
45574.000000,35364.000000,20549.000000,36821.000000
45435.000000,35458.000000,20703.000000,36956.000000
45301.000000,35538.000000,20816.000000,37080.000000
45182.000000,35605.000000,20898.000000,37198.000000
45086.000000,35670.000000,20949.000000,37320.000000
45011.000000,35737.000000,20975.000000,37442.000000
44952.000000,35796.000000,20986.000000,37555.000000
44905.000000,35846.000000,20991.000000,37667.000000
44862.000000,35893.000000,20992.000000,37784.000000
44816.000000,35934.000000,20994.000000,37894.000000
44762.000000,35963.000000,21012.000000,37989.000000
44702.000000,35987.000000,21051.000000,38065.000000
44648.000000,36010.000000,21108.000000,38135.000000
44601.000000,36029.000000,21185.000000,38195.000000
44560.000000,36034.000000,21290.000000,38229.000000
44529.000000,36026.000000,21417.000000,38235.000000
44509.000000,36013.000000,21558.000000,38227.000000
44493.000000,35996.000000,21714.000000,38207.000000
44480.000000,35971.000000,21884.000000,38171.000000
44477.000000,35944.000000,22062.000000,38129.000000
44485.000000,35924.000000,22237.000000,38090.000000
44500.000000,35906.000000,22406.000000,38048.000000
44510.000000,35886.000000,22577.000000,37997.000000
44516.000000,35866.000000,22743.000000,37943.000000
44520.000000,35854.000000,22896.000000,37899.000000
44524.000000,35847.000000,23036.000000,37865.000000
44526.000000,35841.000000,23162.000000,37835.000000
44529.000000,35837.000000,23269.000000,37816.000000
44531.000000,35839.000000,23352.000000,37810.000000
44528.000000,35840.000000,23413.000000,37805.000000
44515.000000,35838.000000,23452.000000,37794.000000
44490.000000,35843.000000,23459.000000,37794.000000
44453.000000,35862.000000,23423.000000,37817.000000
44408.000000,35888.000000,23347.000000,37849.000000
44361.000000,35917.000000,23234.000000,37884.000000
44322.000000,35957.000000,23085.000000,37932.000000
44290.000000,36009.000000,22905.000000,37992.000000
44262.000000,36066.000000,22707.000000,38054.000000
44237.000000,36125.000000,22506.000000,38120.000000
44214.000000,36191.000000,22302.000000,38193.000000
44196.000000,36257.000000,22098.000000,38269.000000
44182.000000,36315.000000,21907.000000,38339.000000
44174.000000,36364.000000,21732.000000,38398.000000
44172.000000,36415.000000,21572.000000,38457.000000
44172.000000,36467.000000,21428.000000,38519.000000
44169.000000,36510.000000,21304.000000,38566.000000
44160.000000,36536.000000,21198.000000,38583.000000
44153.000000,36543.000000,21107.000000,38577.000000
44146.000000,36530.000000,21033.000000,38546.000000
44133.000000,36499.000000,20979.000000,38488.000000
44116.000000,36459.000000,20939.000000,38410.000000
44096.000000,36417.000000,20904.000000,38327.000000
44068.000000,36368.000000,20871.000000,38246.000000
44028.000000,36306.000000,20847.000000,38160.000000
43982.000000,36234.000000,20828.000000,38072.000000
43941.000000,36162.000000,20812.000000,37984.000000
43910.000000,36087.000000,20800.000000,37879.000000
43893.000000,36007.000000,20800.000000,37759.000000
43896.000000,35920.000000,20815.000000,37636.000000
43917.000000,35829.000000,20839.000000,37524.000000
43949.000000,35733.000000,20871.000000,37415.000000
43987.000000,35631.000000,20913.000000,37293.000000
44033.000000,35527.000000,20956.000000,37155.000000
44086.000000,35432.000000,20981.000000,37015.000000
44135.000000,35344.000000,20984.000000,36885.000000
44168.000000,35260.000000,20976.000000,36763.000000
44186.000000,35183.000000,20958.000000,36649.000000
44194.000000,35109.000000,20922.000000,36540.000000
44186.000000,35033.000000,20869.000000,36427.000000
44165.000000,34954.000000,20799.000000,36305.000000
44140.000000,34878.000000,20705.000000,36182.000000
44118.000000,34806.000000,20588.000000,36068.000000
44098.000000,34733.000000,20458.000000,35951.000000
44075.000000,34657.000000,20322.000000,35828.000000
44057.000000,34586.000000,20174.000000,35706.000000
44045.000000,34517.000000,20012.000000,35585.000000
44031.000000,34444.000000,19849.000000,35460.000000
44012.000000,34364.000000,19695.000000,35329.000000
43994.000000,34286.000000,19550.000000,35200.000000
43978.000000,34216.000000,19412.000000,35077.000000
43956.000000,34150.000000,19286.000000,34958.000000
43920.000000,34077.000000,19172.000000,34846.000000
43872.000000,34000.000000,19069.000000,34748.000000
43819.000000,33923.000000,18977.000000,34652.000000
43758.000000,33839.000000,18893.000000,34548.000000
43693.000000,33750.000000,18814.000000,34436.000000
43629.000000,33664.000000,18735.000000,34335.000000
43561.000000,33585.000000,18655.000000,34243.000000
43485.000000,33508.000000,18577.000000,34147.000000
43406.000000,33433.000000,18497.000000,34047.000000
43326.000000,33364.000000,18409.000000,33949.000000
43243.000000,33292.000000,18318.000000,33854.000000
43162.000000,33212.000000,18231.000000,33750.000000
43088.000000,33132.000000,18146.000000,33638.000000
43023.000000,33056.000000,18057.000000,33529.000000
42966.000000,32983.000000,17970.000000,33421.000000
42912.000000,32912.000000,17892.000000,33310.000000
42858.000000,32845.000000,17823.000000,33203.000000
42802.000000,32782.000000,17764.000000,33098.000000
42743.000000,32715.000000,17719.000000,32988.000000
42676.000000,32638.000000,17693.000000,32873.000000
42602.000000,32555.000000,17679.000000,32760.000000
42531.000000,32468.000000,17666.000000,32654.000000
42462.000000,32374.000000,17654.000000,32547.000000
42391.000000,32278.000000,17647.000000,32434.000000
42322.000000,32187.000000,17640.000000,32322.000000
42254.000000,32109.000000,17631.000000,32212.000000
42186.000000,32039.000000,17617.000000,32097.000000
42118.000000,31972.000000,17595.000000,31968.000000
42056.000000,31913.000000,17562.000000,31836.000000
42000.000000,31863.000000,17520.000000,31707.000000
41944.000000,31815.000000,17486.000000,31577.000000
41885.000000,31764.000000,17470.000000,31444.000000
41829.000000,31714.000000,17460.000000,31318.000000
41770.000000,31665.000000,17457.000000,31200.000000
41705.000000,31607.000000,17470.000000,31075.000000
41637.000000,31535.000000,17499.000000,30936.000000
41576.000000,31459.000000,17536.000000,30801.000000
41522.000000,31386.000000,17571.000000,30681.000000
41469.000000,31314.000000,17606.000000,30569.000000
41419.000000,31241.000000,17641.000000,30464.000000
41374.000000,31174.000000,17670.000000,30368.000000
41329.000000,31113.000000,17691.000000,30278.000000
41280.000000,31049.000000,17703.000000,30186.000000
41234.000000,30984.000000,17707.000000,30083.000000
41196.000000,30919.000000,17692.000000,29971.000000
41161.000000,30850.000000,17664.000000,29850.000000
41119.000000,30772.000000,17633.000000,29723.000000
41069.000000,30690.000000,17604.000000,29597.000000
41015.000000,30610.000000,17571.000000,29475.000000
40957.000000,30533.000000,17536.000000,29354.000000
40897.000000,30451.000000,17507.000000,29225.000000
40842.000000,30364.000000,17492.000000,29087.000000
40797.000000,30281.000000,17487.000000,28951.000000
40752.000000,30202.000000,17490.000000,28826.000000
40700.000000,30118.000000,17496.000000,28704.000000
40647.000000,30034.000000,17493.000000,28582.000000
40598.000000,29955.000000,17478.000000,28464.000000
40550.000000,29878.000000,17451.000000,28348.000000
40502.000000,29803.000000,17412.000000,28228.000000
40456.000000,29734.000000,17360.000000,28104.000000
40420.000000,29669.000000,17283.000000,27989.000000
40392.000000,29604.000000,17183.000000,27885.000000
40365.000000,29532.000000,17072.000000,27778.000000
40334.000000,29458.000000,16955.000000,27668.000000
40291.000000,29385.000000,16832.000000,27555.000000
40237.000000,29308.000000,16712.000000,27439.000000
40175.000000,29226.000000,16597.000000,27323.000000
40110.000000,29148.000000,16484.000000,27217.000000
40041.000000,29079.000000,16369.000000,27129.000000
39964.000000,29016.000000,16256.000000,27045.000000
39885.000000,28953.000000,16149.000000,26947.000000
39809.000000,28891.000000,16048.000000,26841.000000
39739.000000,28835.000000,15951.000000,26735.000000
39672.000000,28780.000000,15862.000000,26630.000000
39615.000000,28724.000000,15781.000000,26528.000000
39578.000000,28675.000000,15697.000000,26431.000000
39557.000000,28633.000000,15600.000000,26340.000000
39538.000000,28592.000000,15487.000000,26247.000000
39518.000000,28546.000000,15364.000000,26153.000000
39498.000000,28503.000000,15226.000000,26058.000000
39472.000000,28467.000000,15072.000000,25959.000000
39440.000000,28435.000000,14911.000000,25856.000000
39407.000000,28403.000000,14747.000000,25758.000000
39375.000000,28375.000000,14576.000000,25673.000000
39340.000000,28348.000000,14401.000000,25597.000000
39296.000000,28316.000000,14231.000000,25523.000000
39250.000000,28279.000000,14073.000000,25452.000000
39207.000000,28244.000000,13924.000000,25385.000000
39170.000000,28216.000000,13783.000000,25328.000000
39139.000000,28191.000000,13652.000000,25278.000000
39122.000000,28178.000000,13534.000000,25242.000000
39124.000000,28181.000000,13429.000000,25221.000000
39144.000000,28191.000000,13332.000000,25203.000000
39177.000000,28191.000000,13244.000000,25177.000000
39225.000000,28182.000000,13159.000000,25150.000000
39298.000000,28171.000000,13077.000000,25128.000000
39398.000000,28161.000000,12999.000000,25101.000000
39525.000000,28146.000000,12926.000000,25060.000000
39680.000000,28128.000000,12857.000000,25012.000000
39858.000000,28112.000000,12785.000000,24966.000000
40057.000000,28096.000000,12711.000000,24922.000000
40277.000000,28080.000000,12643.000000,24872.000000
40523.000000,28068.000000,12582.000000,24815.000000
40795.000000,28054.000000,12524.000000,24760.000000
41077.000000,28032.000000,12471.000000,24704.000000
41365.000000,28002.000000,12422.000000,24637.000000
41660.000000,27964.000000,12371.000000,24567.000000
41953.000000,27918.000000,12308.000000,24501.000000
42235.000000,27863.000000,12235.000000,24424.000000
42500.000000,27805.000000,12167.000000,24331.000000
42748.000000,27757.000000,12103.000000,24241.000000
42980.000000,27728.000000,12032.000000,24174.000000
43191.000000,27715.000000,11953.000000,24134.000000
43382.000000,27714.000000,11878.000000,24118.000000
43556.000000,27731.000000,11805.000000,24132.000000
43710.000000,27779.000000,11727.000000,24189.000000
43837.000000,27859.000000,11644.000000,24294.000000
43943.000000,27975.000000,11561.000000,24450.000000
44035.000000,28133.000000,11479.000000,24670.000000
44117.000000,28337.000000,11397.000000,24965.000000
44186.000000,28575.000000,11318.000000,25320.000000
44242.000000,28841.000000,11242.000000,25717.000000
44290.000000,29136.000000,11167.000000,26164.000000
44333.000000,29457.000000,11094.000000,26661.000000
44374.000000,29794.000000,11028.000000,27200.000000
44419.000000,30152.000000,10971.000000,27779.000000
44475.000000,30536.000000,10922.000000,28408.000000
44540.000000,30940.000000,10880.000000,29096.000000
44609.000000,31356.000000,10851.000000,29832.000000
44681.000000,31784.000000,10839.000000,30604.000000
44759.000000,32225.000000,10842.000000,31409.000000
44835.000000,32674.000000,10866.000000,32237.000000
44907.000000,33126.000000,10924.000000,33068.000000
44983.000000,33581.000000,11018.000000,33889.000000
45067.000000,34032.000000,11153.000000,34702.000000
45154.000000,34466.000000,11342.000000,35493.000000
45242.000000,34872.000000,11605.000000,36235.000000
45333.000000,35251.000000,11947.000000,36923.000000
45422.000000,35607.000000,12358.000000,37555.000000
45502.000000,35932.000000,12833.000000,38111.000000
45569.000000,36216.000000,13373.000000,38578.000000
45628.000000,36457.000000,13973.000000,38967.000000
45684.000000,36662.000000,14614.000000,39296.000000
45727.000000,36834.000000,15290.000000,39574.000000
45750.000000,36970.000000,15999.000000,39802.000000
45758.000000,37079.000000,16724.000000,39983.000000
45754.000000,37167.000000,17443.000000,40127.000000
45736.000000,37235.000000,18145.000000,40243.000000
45706.000000,37284.000000,18825.000000,40331.000000
45665.000000,37326.000000,19469.000000,40398.000000
45614.000000,37371.000000,20063.000000,40463.000000
45554.000000,37421.000000,20604.000000,40525.000000
45484.000000,37467.000000,21093.000000,40581.000000
45408.000000,37512.000000,21522.000000,40638.000000
45332.000000,37562.000000,21885.000000,40703.000000
45260.000000,37616.000000,22190.000000,40772.000000
45192.000000,37672.000000,22438.000000,40840.000000
45139.000000,37733.000000,22630.000000,40914.000000
45102.000000,37797.000000,22768.000000,40997.000000
45074.000000,37856.000000,22860.000000,41084.000000
45053.000000,37912.000000,22921.000000,41171.000000
45043.000000,37969.000000,22952.000000,41262.000000
45042.000000,38024.000000,22952.000000,41355.000000
45045.000000,38071.000000,22933.000000,41435.000000
45053.000000,38107.000000,22905.000000,41495.000000
45069.000000,38134.000000,22871.000000,41536.000000
45089.000000,38148.000000,22836.000000,41557.000000
45103.000000,38146.000000,22809.000000,41558.000000
45106.000000,38131.000000,22798.000000,41540.000000
45106.000000,38103.000000,22798.000000,41509.000000
45106.000000,38059.000000,22811.000000,41467.000000
45100.000000,37994.000000,22844.000000,41406.000000
45096.000000,37917.000000,22902.000000,41321.000000
45094.000000,37840.000000,22979.000000,41219.000000
45090.000000,37766.000000,23075.000000,41110.000000
45080.000000,37690.000000,23197.000000,40997.000000
45065.000000,37618.000000,23341.000000,40888.000000
45050.000000,37556.000000,23494.000000,40790.000000
45038.000000,37498.000000,23657.000000,40697.000000
45027.000000,37433.000000,23831.000000,40597.000000
45016.000000,37366.000000,24005.000000,40495.000000
45005.000000,37307.000000,24166.000000,40401.000000
44987.000000,37257.000000,24312.000000,40315.000000
44959.000000,37211.000000,24443.000000,40240.000000
44925.000000,37172.000000,24550.000000,40181.000000
44888.000000,37147.000000,24623.000000,40148.000000
44843.000000,37129.000000,24666.000000,40129.000000
44786.000000,37106.000000,24685.000000,40106.000000
44725.000000,37080.000000,24680.000000,40073.000000
44661.000000,37057.000000,24646.000000,40030.000000
44589.000000,37032.000000,24585.000000,39973.000000
44515.000000,37001.000000,24508.000000,39902.000000
44446.000000,36968.000000,24419.000000,39829.000000
44376.000000,36943.000000,24321.000000,39766.000000
44300.000000,36917.000000,24216.000000,39709.000000
44223.000000,36881.000000,24111.000000,39647.000000
44147.000000,36842.000000,24000.000000,39590.000000
44079.000000,36803.000000,23880.000000,39538.000000
44020.000000,36756.000000,23752.000000,39487.000000
43971.000000,36696.000000,23626.000000,39433.000000
43931.000000,36630.000000,23508.000000,39372.000000
43894.000000,36566.000000,23390.000000,39307.000000
43856.000000,36503.000000,23275.000000,39239.000000
43819.000000,36440.000000,23169.000000,39168.000000
43788.000000,36381.000000,23066.000000,39095.000000
43761.000000,36320.000000,22971.000000,39012.000000
43730.000000,36252.000000,22895.000000,38906.000000
43693.000000,36177.000000,22841.000000,38782.000000
43649.000000,36100.000000,22805.000000,38652.000000
43595.000000,36023.000000,22784.000000,38521.000000
43532.000000,35943.000000,22776.000000,38388.000000
43468.000000,35865.000000,22775.000000,38259.000000
43406.000000,35791.000000,22774.000000,38144.000000
43336.000000,35722.000000,22775.000000,38038.000000
43251.000000,35661.000000,22783.000000,37930.000000
43161.000000,35613.000000,22795.000000,37827.000000
43078.000000,35585.000000,22799.000000,37744.000000
43002.000000,35574.000000,22788.000000,37679.000000
42931.000000,35571.000000,22761.000000,37619.000000
42872.000000,35572.000000,22715.000000,37564.000000
42824.000000,35579.000000,22653.000000,37520.000000
42780.000000,35586.000000,22585.000000,37483.000000
42738.000000,35581.000000,22515.000000,37440.000000
42698.000000,35566.000000,22439.000000,37387.000000
42660.000000,35555.000000,22355.000000,37338.000000
42623.000000,35553.000000,22272.000000,37301.000000
42581.000000,35549.000000,22197.000000,37268.000000
42536.000000,35542.000000,22126.000000,37236.000000
42488.000000,35538.000000,22043.000000,37210.000000
42434.000000,35536.000000,21943.000000,37178.000000
42373.000000,35532.000000,21837.000000,37133.000000
42313.000000,35524.000000,21723.000000,37086.000000
42260.000000,35514.000000,21592.000000,37053.000000
42207.000000,35500.000000,21440.000000,37025.000000
42150.000000,35476.000000,21263.000000,36990.000000
42093.000000,35453.000000,21058.000000,36956.000000
42039.000000,35433.000000,20830.000000,36930.000000
41983.000000,35408.000000,20593.000000,36903.000000
41930.000000,35377.000000,20357.000000,36871.000000
41883.000000,35351.000000,20122.000000,36840.000000
41840.000000,35330.000000,19884.000000,36808.000000
41797.000000,35305.000000,19649.000000,36769.000000
41758.000000,35271.000000,19426.000000,36720.000000
41731.000000,35239.000000,19212.000000,36667.000000
41710.000000,35213.000000,19015.000000,36613.000000
41688.000000,35185.000000,18843.000000,36551.000000
41661.000000,35155.000000,18694.000000,36487.000000
41627.000000,35131.000000,18558.000000,36432.000000
41583.000000,35108.000000,18438.000000,36384.000000
41530.000000,35078.000000,18338.000000,36327.000000
41474.000000,35038.000000,18255.000000,36264.000000
41421.000000,34997.000000,18179.000000,36207.000000
41370.000000,34953.000000,18101.000000,36148.000000
41315.000000,34905.000000,18020.000000,36077.000000
41260.000000,34853.000000,17934.000000,36002.000000
41209.000000,34802.000000,17841.000000,35933.000000
41160.000000,34746.000000,17746.000000,35864.000000
41111.000000,34684.000000,17654.000000,35782.000000
41067.000000,34620.000000,17561.000000,35694.000000
41026.000000,34565.000000,17456.000000,35615.000000
40980.000000,34516.000000,17341.000000,35538.000000
40932.000000,34463.000000,17230.000000,35455.000000
40893.000000,34405.000000,17124.000000,35369.000000
40867.000000,34348.000000,17011.000000,35282.000000
40850.000000,34293.000000,16892.000000,35186.000000
40840.000000,34230.000000,16784.000000,35074.000000
40836.000000,34162.000000,16692.000000,34954.000000
40831.000000,34103.000000,16606.000000,34841.000000
40815.000000,34048.000000,16532.000000,34737.000000
40787.000000,33986.000000,16476.000000,34630.000000
40748.000000,33917.000000,16437.000000,34519.000000
40699.000000,33841.000000,16406.000000,34401.000000
40638.000000,33751.000000,16379.000000,34270.000000
40563.000000,33651.000000,16353.000000,34127.000000
40478.000000,33551.000000,16322.000000,33985.000000
40386.000000,33459.000000,16283.000000,33855.000000
40291.000000,33373.000000,16243.000000,33739.000000
40198.000000,33290.000000,16205.000000,33629.000000
40110.000000,33214.000000,16164.000000,33522.000000
40028.000000,33146.000000,16112.000000,33413.000000
39953.000000,33080.000000,16056.000000,33292.000000
39888.000000,33013.000000,16006.000000,33164.000000
39834.000000,32949.000000,15963.000000,33041.000000
39785.000000,32888.000000,15925.000000,32924.000000
39736.000000,32823.000000,15895.000000,32809.000000
39691.000000,32754.000000,15880.000000,32699.000000
39650.000000,32689.000000,15875.000000,32598.000000
39608.000000,32623.000000,15869.000000,32500.000000
39559.000000,32549.000000,15861.000000,32379.000000
39507.000000,32470.000000,15854.000000,32231.000000
39456.000000,32393.000000,15837.000000,32074.000000
39400.000000,32320.000000,15805.000000,31922.000000
39341.000000,32247.000000,15758.000000,31773.000000
39288.000000,32174.000000,15702.000000,31635.000000
39244.000000,32106.000000,15634.000000,31520.000000
39199.000000,32039.000000,15559.000000,31421.000000
39146.000000,31965.000000,15488.000000,31314.000000
39091.000000,31884.000000,15431.000000,31195.000000
39045.000000,31809.000000,15382.000000,31078.000000
39008.000000,31737.000000,15338.000000,30964.000000
38971.000000,31664.000000,15304.000000,30850.000000
38934.000000,31593.000000,15280.000000,30748.000000
38897.000000,31532.000000,15262.000000,30660.000000
38854.000000,31477.000000,15256.000000,30575.000000
38809.000000,31418.000000,15259.000000,30485.000000
38771.000000,31357.000000,15266.000000,30389.000000
38738.000000,31298.000000,15271.000000,30295.000000
38703.000000,31239.000000,15279.000000,30194.000000
38665.000000,31179.000000,15297.000000,30085.000000
38629.000000,31123.000000,15319.000000,29979.000000
38599.000000,31073.000000,15327.000000,29887.000000
38572.000000,31016.000000,15316.000000,29806.000000
38543.000000,30954.000000,15290.000000,29719.000000
38514.000000,30898.000000,15246.000000,29620.000000
38486.000000,30848.000000,15180.000000,29518.000000
38458.000000,30796.000000,15102.000000,29416.000000
38428.000000,30739.000000,15024.000000,29310.000000
38404.000000,30680.000000,14949.000000,29210.000000
38385.000000,30618.000000,14878.000000,29119.000000
38360.000000,30544.000000,14812.000000,29015.000000
38325.000000,30458.000000,14754.000000,28888.000000
38289.000000,30372.000000,14705.000000,28757.000000
38257.000000,30289.000000,14665.000000,28636.000000
38231.000000,30203.000000,14640.000000,28516.000000
38212.000000,30118.000000,14625.000000,28391.000000
38204.000000,30042.000000,14603.000000,28272.000000
38206.000000,29976.000000,14569.000000,28166.000000
38213.000000,29912.000000,14523.000000,28062.000000
38227.000000,29846.000000,14465.000000,27953.000000
38252.000000,29781.000000,14389.000000,27840.000000
38283.000000,29720.000000,14293.000000,27727.000000
38314.000000,29657.000000,14182.000000,27607.000000
38342.000000,29591.000000,14059.000000,27487.000000
38366.000000,29526.000000,13920.000000,27382.000000
38382.000000,29465.000000,13770.000000,27291.000000
38388.000000,29398.000000,13619.000000,27193.000000
38391.000000,29324.000000,13475.000000,27079.000000
38406.000000,29248.000000,13331.000000,26958.000000
38436.000000,29171.000000,13190.000000,26832.000000
38485.000000,29090.000000,13059.000000,26697.000000
38561.000000,29010.000000,12938.000000,26559.000000
38666.000000,28932.000000,12819.000000,26428.000000
38796.000000,28853.000000,12701.000000,26299.000000
38954.000000,28768.000000,12587.000000,26168.000000
39143.000000,28683.000000,12474.000000,26047.000000
39364.000000,28609.000000,12355.000000,25941.000000
39618.000000,28550.000000,12235.000000,25849.000000
39898.000000,28506.000000,12124.000000,25780.000000
40200.000000,28491.000000,12014.000000,25755.000000
40523.000000,28513.000000,11896.000000,25780.000000
40857.000000,28570.000000,11770.000000,25849.000000
41195.000000,28656.000000,11641.000000,25955.000000
41540.000000,28771.000000,11505.000000,26106.000000
41889.000000,28924.000000,11360.000000,26318.000000
42228.000000,29117.000000,11208.000000,26596.000000
42556.000000,29342.000000,11059.000000,26935.000000
42875.000000,29597.000000,10909.000000,27347.000000
43185.000000,29885.000000,10758.000000,27833.000000
43476.000000,30200.000000,10614.000000,28381.000000
43739.000000,30546.000000,10485.000000,28985.000000
43973.000000,30925.000000,10363.000000,29651.000000
44175.000000,31338.000000,10241.000000,30384.000000
44342.000000,31778.000000,10122.000000,31175.000000
44479.000000,32240.000000,10005.000000,32006.000000
44596.000000,32725.000000,9885.000000,32861.000000
44690.000000,33227.000000,9762.000000,33728.000000
44759.000000,33732.000000,9647.000000,34588.000000
44809.000000,34226.000000,9541.000000,35424.000000
44846.000000,34708.000000,9438.000000,36234.000000
44869.000000,35168.000000,9337.000000,37011.000000
44888.000000,35592.000000,9247.000000,37729.000000
44916.000000,35973.000000,9170.000000,38373.000000
44956.000000,36313.000000,9101.000000,38944.000000
45001.000000,36613.000000,9035.000000,39436.000000
45049.000000,36869.000000,8972.000000,39840.000000
45101.000000,37083.000000,8908.000000,40168.000000
45167.000000,37261.000000,8843.000000,40441.000000
45245.000000,37404.000000,8781.000000,40667.000000
45325.000000,37511.000000,8728.000000,40843.000000
45408.000000,37588.000000,8686.000000,40974.000000
45496.000000,37650.000000,8654.000000,41073.000000
45581.000000,37693.000000,8641.000000,41142.000000
45657.000000,37714.000000,8663.000000,41189.000000
45726.000000,37723.000000,8730.000000,41227.000000
45793.000000,37730.000000,8847.000000,41259.000000
45858.000000,37736.000000,9017.000000,41284.000000
45918.000000,37738.000000,9253.000000,41295.000000
45970.000000,37738.000000,9559.000000,41290.000000
46016.000000,37747.000000,9932.000000,41286.000000
46049.000000,37767.000000,10368.000000,41296.000000
46065.000000,37791.000000,10872.000000,41317.000000
46070.000000,37821.000000,11448.000000,41354.000000
46062.000000,37860.000000,12083.000000,41413.000000
46036.000000,37905.000000,12764.000000,41485.000000
45994.000000,37952.000000,13484.000000,41557.000000
45948.000000,38006.000000,14227.000000,41633.000000
45905.000000,38062.000000,14968.000000,41721.000000
45858.000000,38108.000000,15692.000000,41815.000000
45804.000000,38140.000000,16392.000000,41899.000000
45751.000000,38164.000000,17052.000000,41968.000000
45698.000000,38180.000000,17652.000000,42021.000000
45643.000000,38184.000000,18183.000000,42052.000000
45584.000000,38174.000000,18646.000000,42057.000000
45528.000000,38157.000000,19041.000000,42041.000000
45477.000000,38135.000000,19368.000000,42013.000000
45422.000000,38104.000000,19638.000000,41973.000000
45364.000000,38064.000000,19861.000000,41917.000000
45306.000000,38026.000000,20038.000000,41847.000000
45241.000000,37992.000000,20171.000000,41772.000000
45165.000000,37955.000000,20279.000000,41689.000000
45089.000000,37912.000000,20372.000000,41604.000000
45028.000000,37868.000000,20448.000000,41523.000000
44985.000000,37827.000000,20503.000000,41437.000000
44949.000000,37784.000000,20542.000000,41338.000000
44922.000000,37738.000000,20569.000000,41237.000000
44908.000000,37697.000000,20587.000000,41157.000000
44900.000000,37662.000000,20600.000000,41099.000000
44897.000000,37629.000000,20618.000000,41039.000000
44900.000000,37594.000000,20637.000000,40979.000000
44908.000000,37557.000000,20657.000000,40936.000000
44912.000000,37518.000000,20681.000000,40906.000000
44903.000000,37480.000000,20723.000000,40877.000000
44880.000000,37451.000000,20788.000000,40852.000000
44849.000000,37436.000000,20866.000000,40832.000000
44808.000000,37428.000000,20956.000000,40809.000000
44756.000000,37415.000000,21070.000000,40777.000000
44696.000000,37402.000000,21215.000000,40742.000000
44629.000000,37395.000000,21387.000000,40717.000000
44553.000000,37389.000000,21579.000000,40700.000000
44471.000000,37371.000000,21784.000000,40674.000000
44390.000000,37344.000000,21995.000000,40633.000000
44315.000000,37314.000000,22196.000000,40581.000000
44251.000000,37278.000000,22378.000000,40519.000000
44191.000000,37236.000000,22538.000000,40451.000000
44136.000000,37192.000000,22664.000000,40385.000000
44083.000000,37144.000000,22751.000000,40318.000000
44026.000000,37083.000000,22803.000000,40244.000000
43966.000000,37003.000000,22826.000000,40146.000000
43907.000000,36912.000000,22815.000000,40028.000000
43850.000000,36822.000000,22761.000000,39901.000000
43790.000000,36736.000000,22674.000000,39769.000000
43731.000000,36647.000000,22569.000000,39633.000000
43678.000000,36554.000000,22447.000000,39501.000000
43622.000000,36458.000000,22310.000000,39375.000000
43557.000000,36359.000000,22172.000000,39240.000000
43486.000000,36259.000000,22033.000000,39086.000000
43413.000000,36162.000000,21892.000000,38929.000000
43337.000000,36069.000000,21752.000000,38781.000000
43255.000000,35970.000000,21626.000000,38635.000000
43174.000000,35866.000000,21523.000000,38491.000000
43100.000000,35765.000000,21440.000000,38352.000000
43030.000000,35665.000000,21365.000000,38211.000000
42962.000000,35567.000000,21304.000000,38059.000000
42900.000000,35473.000000,21263.000000,37897.000000
42853.000000,35387.000000,21243.000000,37743.000000
42819.000000,35305.000000,21237.000000,37600.000000
42781.000000,35218.000000,21242.000000,37459.000000
42735.000000,35129.000000,21248.000000,37320.000000
42695.000000,35049.000000,21249.000000,37193.000000
42655.000000,34977.000000,21240.000000,37066.000000
42608.000000,34900.000000,21224.000000,36923.000000
42557.000000,34818.000000,21201.000000,36772.000000
42506.000000,34735.000000,21166.000000,36630.000000
42451.000000,34651.000000,21121.000000,36498.000000
42385.000000,34565.000000,21077.000000,36362.000000
42314.000000,34484.000000,21041.000000,36224.000000
42250.000000,34410.000000,21009.000000,36098.000000
42193.000000,34342.000000,20983.000000,35986.000000
42143.000000,34279.000000,20966.000000,35883.000000
42098.000000,34223.000000,20948.000000,35796.000000
42060.000000,34174.000000,20922.000000,35728.000000
42025.000000,34124.000000,20889.000000,35660.000000
41991.000000,34070.000000,20853.000000,35575.000000
41954.000000,34020.000000,20804.000000,35483.000000
41920.000000,33981.000000,20734.000000,35406.000000
41881.000000,33949.000000,20642.000000,35345.000000
41838.000000,33914.000000,20538.000000,35288.000000
41795.000000,33877.000000,20420.000000,35232.000000
41749.000000,33839.000000,20283.000000,35179.000000
41695.000000,33799.000000,20133.000000,35117.000000
41635.000000,33756.000000,19981.000000,35041.000000
41577.000000,33709.000000,19825.000000,34964.000000
41523.000000,33659.000000,19660.000000,34891.000000
41467.000000,33606.000000,19496.000000,34812.000000
41407.000000,33548.000000,19336.000000,34719.000000
41348.000000,33491.000000,19176.000000,34625.000000
41291.000000,33438.000000,19017.000000,34535.000000
41228.000000,33386.000000,18862.000000,34443.000000
41160.000000,33335.000000,18717.000000,34355.000000
41092.000000,33287.000000,18580.000000,34278.000000
41021.000000,33239.000000,18454.000000,34212.000000
40945.000000,33184.000000,18348.000000,34136.000000
40874.000000,33126.000000,18265.000000,34042.000000
40810.000000,33070.000000,18199.000000,33945.000000
40747.000000,33014.000000,18147.000000,33857.000000
40682.000000,32955.000000,18112.000000,33773.000000
40622.000000,32895.000000,18085.000000,33692.000000
40571.000000,32841.000000,18054.000000,33612.000000
40521.000000,32787.000000,18013.000000,33529.000000
40462.000000,32730.000000,17967.000000,33438.000000
40395.000000,32673.000000,17917.000000,33346.000000
40324.000000,32625.000000,17855.000000,33264.000000
40256.000000,32582.000000,17778.000000,33189.000000
40196.000000,32534.000000,17695.000000,33107.000000
40145.000000,32485.000000,17607.000000,33016.000000
40103.000000,32445.000000,17516.000000,32931.000000
40066.000000,32407.000000,17426.000000,32854.000000
40030.000000,32362.000000,17351.000000,32775.000000
39996.000000,32313.000000,17294.000000,32702.000000
39960.000000,32270.000000,17243.000000,32634.000000
39915.000000,32232.000000,17198.000000,32551.000000
39866.000000,32195.000000,17166.000000,32454.000000
39820.000000,32159.000000,17144.000000,32362.000000
39777.000000,32126.000000,17120.000000,32282.000000
39732.000000,32092.000000,17093.000000,32207.000000
39681.000000,32051.000000,17064.000000,32130.000000
39632.000000,32008.000000,17028.000000,32050.000000
39582.000000,31971.000000,16974.000000,31968.000000
39527.000000,31937.000000,16904.000000,31887.000000
39464.000000,31905.000000,16821.000000,31813.000000
39396.000000,31877.000000,16725.000000,31747.000000
39324.000000,31853.000000,16613.000000,31684.000000
39250.000000,31827.000000,16486.000000,31617.000000
39177.000000,31793.000000,16353.000000,31548.000000
39107.000000,31760.000000,16214.000000,31494.000000
39035.000000,31735.000000,16068.000000,31464.000000
38958.000000,31711.000000,15922.000000,31439.000000
38883.000000,31685.000000,15789.000000,31405.000000
38816.000000,31660.000000,15666.000000,31363.000000
38757.000000,31635.000000,15546.000000,31316.000000
38700.000000,31603.000000,15425.000000,31260.000000
38647.000000,31570.000000,15301.000000,31196.000000
38599.000000,31546.000000,15169.000000,31136.000000
38550.000000,31527.000000,15030.000000,31086.000000
38494.000000,31505.000000,14894.000000,31041.000000
38437.000000,31484.000000,14764.000000,30992.000000
38384.000000,31474.000000,14629.000000,30948.000000
38330.000000,31474.000000,14486.000000,30912.000000
38270.000000,31476.000000,14351.000000,30877.000000
38212.000000,31474.000000,14233.000000,30845.000000
38159.000000,31467.000000,14130.000000,30822.000000
38110.000000,31455.000000,14035.000000,30798.000000
38067.000000,31438.000000,13948.000000,30768.000000
38037.000000,31423.000000,13868.000000,30734.000000
38024.000000,31413.000000,13792.000000,30707.000000
38020.000000,31403.000000,13719.000000,30687.000000
38014.000000,31384.000000,13654.000000,30657.000000
38007.000000,31358.000000,13595.000000,30615.000000
37998.000000,31332.000000,13538.000000,30573.000000
37982.000000,31307.000000,13482.000000,30530.000000
37964.000000,31280.000000,13441.000000,30486.000000
37946.000000,31256.000000,13420.000000,30450.000000
37922.000000,31241.000000,13410.000000,30426.000000
37885.000000,31227.000000,13407.000000,30403.000000
37839.000000,31210.000000,13411.000000,30364.000000
37795.000000,31192.000000,13415.000000,30307.000000
37749.000000,31173.000000,13409.000000,30255.000000
37694.000000,31146.000000,13392.000000,30208.000000
37632.000000,31109.000000,13365.000000,30157.000000
37576.000000,31065.000000,13326.000000,30102.000000
37527.000000,31022.000000,13267.000000,30047.000000
37481.000000,30980.000000,13192.000000,29983.000000
37436.000000,30938.000000,13110.000000,29905.000000
37398.000000,30903.000000,13023.000000,29829.000000
37368.000000,30883.000000,12927.000000,29768.000000
37334.000000,30869.000000,12830.000000,29712.000000
37297.000000,30857.000000,12735.000000,29652.000000
37269.000000,30854.000000,12638.000000,29608.000000
37247.000000,30870.000000,12541.000000,29599.000000
37219.000000,30907.000000,12453.000000,29630.000000
37187.000000,30972.000000,12375.000000,29709.000000
37159.000000,31076.000000,12305.000000,29846.000000
37136.000000,31220.000000,12231.000000,30046.000000
37116.000000,31399.000000,12149.000000,30304.000000
37107.000000,31613.000000,12061.000000,30625.000000
37112.000000,31870.000000,11970.000000,31030.000000
37131.000000,32175.000000,11881.000000,31526.000000
37158.000000,32520.000000,11799.000000,32098.000000
37198.000000,32897.000000,11720.000000,32739.000000
37260.000000,33310.000000,11631.000000,33446.000000
37344.000000,33758.000000,11530.000000,34210.000000
37450.000000,34233.000000,11435.000000,35021.000000
37593.000000,34729.000000,11351.000000,35874.000000
37776.000000,35239.000000,11268.000000,36754.000000
37992.000000,35745.000000,11178.000000,37636.000000
38239.000000,36234.000000,11084.000000,38489.000000
38515.000000,36704.000000,10992.000000,39294.000000
38813.000000,37155.000000,10904.000000,40054.000000
39125.000000,37580.000000,10822.000000,40766.000000
39451.000000,37963.000000,10745.000000,41407.000000
39791.000000,38303.000000,10673.000000,41976.000000
40134.000000,38603.000000,10599.000000,42474.000000
40464.000000,38864.000000,10525.000000,42888.000000
40770.000000,39087.000000,10459.000000,43221.000000
41060.000000,39278.000000,10400.000000,43495.000000
41341.000000,39437.000000,10334.000000,43724.000000
41604.000000,39560.000000,10259.000000,43903.000000
41845.000000,39649.000000,10184.000000,44024.000000
42070.000000,39717.000000,10105.000000,44101.000000
42275.000000,39775.000000,10016.000000,44160.000000
42449.000000,39825.000000,9925.000000,44202.000000
42592.000000,39867.000000,9836.000000,44230.000000
42710.000000,39905.000000,9750.000000,44260.000000
42809.000000,39940.000000,9665.000000,44298.000000
42887.000000,39968.000000,9588.000000,44330.000000
42950.000000,39990.000000,9523.000000,44352.000000
43003.000000,40014.000000,9462.000000,44381.000000
43049.000000,40044.000000,9397.000000,44431.000000
43088.000000,40075.000000,9327.000000,44489.000000
43122.000000,40108.000000,9251.000000,44542.000000
43159.000000,40148.000000,9163.000000,44599.000000
43195.000000,40191.000000,9063.000000,44658.000000
43230.000000,40232.000000,8956.000000,44707.000000
43267.000000,40276.000000,8848.000000,44751.000000
43309.000000,40329.000000,8736.000000,44807.000000
43351.000000,40387.000000,8624.000000,44877.000000
43396.000000,40439.000000,8534.000000,44947.000000
43452.000000,40482.000000,8475.000000,45011.000000
43519.000000,40520.000000,8448.000000,45068.000000
43590.000000,40555.000000,8466.000000,45110.000000
43657.000000,40579.000000,8549.000000,45125.000000
43726.000000,40592.000000,8715.000000,45116.000000
43799.000000,40597.000000,8969.000000,45100.000000
43869.000000,40596.000000,9314.000000,45082.000000
43930.000000,40583.000000,9754.000000,45049.000000
43982.000000,40558.000000,10281.000000,45004.000000
44019.000000,40530.000000,10882.000000,44957.000000
44037.000000,40493.000000,11546.000000,44904.000000
44039.000000,40442.000000,12266.000000,44839.000000
44030.000000,40390.000000,13019.000000,44774.000000
44012.000000,40343.000000,13780.000000,44717.000000
43984.000000,40299.000000,14535.000000,44661.000000
43947.000000,40255.000000,15280.000000,44602.000000
43907.000000,40215.000000,16002.000000,44549.000000
43870.000000,40188.000000,16679.000000,44520.000000
43829.000000,40172.000000,17303.000000,44512.000000
43783.000000,40153.000000,17876.000000,44510.000000
43738.000000,40135.000000,18390.000000,44508.000000
43698.000000,40124.000000,18837.000000,44509.000000
43658.000000,40120.000000,19227.000000,44511.000000
43614.000000,40120.000000,19570.000000,44516.000000
43573.000000,40125.000000,19869.000000,44528.000000
43534.000000,40133.000000,20121.000000,44542.000000
43492.000000,40134.000000,20334.000000,44548.000000
43446.000000,40128.000000,20515.000000,44538.000000
43401.000000,40124.000000,20662.000000,44520.000000
43356.000000,40129.000000,20776.000000,44501.000000
43308.000000,40132.000000,20869.000000,44479.000000
43265.000000,40122.000000,20956.000000,44452.000000
43234.000000,40100.000000,21040.000000,44419.000000
43210.000000,40069.000000,21116.000000,44375.000000
43184.000000,40028.000000,21185.000000,44318.000000
43160.000000,39979.000000,21248.000000,44252.000000
43143.000000,39930.000000,21311.000000,44187.000000
43133.000000,39882.000000,21380.000000,44120.000000
43123.000000,39829.000000,21463.000000,44040.000000
43114.000000,39770.000000,21565.000000,43949.000000
43102.000000,39714.000000,21680.000000,43856.000000
43083.000000,39656.000000,21802.000000,43756.000000
43054.000000,39592.000000,21937.000000,43645.000000
43020.000000,39527.000000,22086.000000,43527.000000
42984.000000,39467.000000,22243.000000,43406.000000
42943.000000,39408.000000,22402.000000,43290.000000
42892.000000,39340.000000,22563.000000,43169.000000
42836.000000,39265.000000,22722.000000,43039.000000
42780.000000,39194.000000,22874.000000,42913.000000
42720.000000,39124.000000,23021.000000,42790.000000
42654.000000,39049.000000,23171.000000,42665.000000
42587.000000,38974.000000,23325.000000,42544.000000
42521.000000,38902.000000,23466.000000,42431.000000
42454.000000,38831.000000,23583.000000,42323.000000
42389.000000,38757.000000,23677.000000,42209.000000
42332.000000,38680.000000,23740.000000,42090.000000
42285.000000,38606.000000,23756.000000,41974.000000
42239.000000,38538.000000,23725.000000,41864.000000
42186.000000,38470.000000,23659.000000,41753.000000
42128.000000,38404.000000,23563.000000,41648.000000
42067.000000,38345.000000,23437.000000,41553.000000
42002.000000,38295.000000,23286.000000,41454.000000
41937.000000,38248.000000,23122.000000,41344.000000
41879.000000,38208.000000,22945.000000,41244.000000
41827.000000,38178.000000,22753.000000,41171.000000
41775.000000,38147.000000,22558.000000,41116.000000
41717.000000,38114.000000,22373.000000,41061.000000
41657.000000,38086.000000,22201.000000,41011.000000
41597.000000,38068.000000,22039.000000,40973.000000
41536.000000,38056.000000,21889.000000,40945.000000
41479.000000,38046.000000,21758.000000,40920.000000
41435.000000,38039.000000,21640.000000,40904.000000
41401.000000,38037.000000,21528.000000,40898.000000
41367.000000,38031.000000,21425.000000,40887.000000
41333.000000,38020.000000,21334.000000,40861.000000
41306.000000,38012.000000,21248.000000,40829.000000
41282.000000,38007.000000,21164.000000,40802.000000
41255.000000,38001.000000,21088.000000,40778.000000
41226.000000,37993.000000,21026.000000,40758.000000
41193.000000,37990.000000,20967.000000,40744.000000
41154.000000,37990.000000,20898.000000,40729.000000
41111.000000,37984.000000,20825.000000,40699.000000
41069.000000,37976.000000,20758.000000,40656.000000
41029.000000,37972.000000,20694.000000,40619.000000
40990.000000,37971.000000,20632.000000,40598.000000
40944.000000,37961.000000,20575.000000,40578.000000
40887.000000,37944.000000,20524.000000,40556.000000
40824.000000,37930.000000,20476.000000,40541.000000
40759.000000,37918.000000,20436.000000,40530.000000
40701.000000,37899.000000,20404.000000,40509.000000
40653.000000,37875.000000,20380.000000,40476.000000
40614.000000,37851.000000,20353.000000,40439.000000
40576.000000,37821.000000,20316.000000,40396.000000
40533.000000,37783.000000,20266.000000,40339.000000
40486.000000,37742.000000,20205.000000,40272.000000
40440.000000,37701.000000,20125.000000,40197.000000
40389.000000,37655.000000,20027.000000,40109.000000
40326.000000,37599.000000,19921.000000,40015.000000
40257.000000,37536.000000,19807.000000,39929.000000
40188.000000,37474.000000,19679.000000,39848.000000
40123.000000,37411.000000,19545.000000,39752.000000
40065.000000,37343.000000,19418.000000,39639.000000
40019.000000,37275.000000,19298.000000,39525.000000
39983.000000,37215.000000,19175.000000,39425.000000
39940.000000,37161.000000,19049.000000,39330.000000
39885.000000,37104.000000,18931.000000,39223.000000
39830.000000,37041.000000,18816.000000,39106.000000
39775.000000,36976.000000,18700.000000,38988.000000
39717.000000,36908.000000,18584.000000,38863.000000
39656.000000,36832.000000,18477.000000,38731.000000
39592.000000,36754.000000,18377.000000,38603.000000
39521.000000,36678.000000,18276.000000,38479.000000
39443.000000,36601.000000,18174.000000,38348.000000
39361.000000,36517.000000,18076.000000,38213.000000
39280.000000,36436.000000,17977.000000,38089.000000
39199.000000,36360.000000,17872.000000,37983.000000
39117.000000,36282.000000,17764.000000,37884.000000
39043.000000,36197.000000,17660.000000,37782.000000
38985.000000,36115.000000,17563.000000,37681.000000
38939.000000,36037.000000,17468.000000,37580.000000
38899.000000,35959.000000,17378.000000,37471.000000
38862.000000,35884.000000,17298.000000,37358.000000
38827.000000,35817.000000,17226.000000,37251.000000
38788.000000,35752.000000,17153.000000,37149.000000
38744.000000,35683.000000,17080.000000,37043.000000
38705.000000,35611.000000,17007.000000,36928.000000
38670.000000,35543.000000,16926.000000,36810.000000
38632.000000,35480.000000,16834.000000,36688.000000
38585.000000,35416.000000,16740.000000,36560.000000
38534.000000,35354.000000,16653.000000,36433.000000
38485.000000,35297.000000,16572.000000,36318.000000
38435.000000,35241.000000,16489.000000,36212.000000
38379.000000,35179.000000,16408.000000,36099.000000
38324.000000,35111.000000,16331.000000,35977.000000
38271.000000,35046.000000,16254.000000,35856.000000
38215.000000,34984.000000,16176.000000,35736.000000
38155.000000,34924.000000,16097.000000,35617.000000
38102.000000,34870.000000,16018.000000,35516.000000
38060.000000,34820.000000,15934.000000,35432.000000
38025.000000,34765.000000,15849.000000,35353.000000
37991.000000,34707.000000,15770.000000,35262.000000
37962.000000,34651.000000,15698.000000,35163.000000
37939.000000,34600.000000,15622.000000,35062.000000
37916.000000,34548.000000,15540.000000,34954.000000
37898.000000,34492.000000,15456.000000,34843.000000
37890.000000,34436.000000,15366.000000,34744.000000
37889.000000,34382.000000,15271.000000,34658.000000
37889.000000,34327.000000,15181.000000,34568.000000
37886.000000,34270.000000,15101.000000,34468.000000
37882.000000,34214.000000,15024.000000,34370.000000
37876.000000,34164.000000,14947.000000,34289.000000
37862.000000,34114.000000,14874.000000,34222.000000
37831.000000,34058.000000,14807.000000,34156.000000
37786.000000,34001.000000,14738.000000,34084.000000
37728.000000,33948.000000,14668.000000,33999.000000
37661.000000,33895.000000,14605.000000,33898.000000
37596.000000,33845.000000,14550.000000,33787.000000
37540.000000,33803.000000,14499.000000,33683.000000
37487.000000,33764.000000,14445.000000,33595.000000
37431.000000,33718.000000,14392.000000,33516.000000
37374.000000,33666.000000,14347.000000,33438.000000
37322.000000,33616.000000,14305.000000,33357.000000
37276.000000,33567.000000,14266.000000,33270.000000
37230.000000,33514.000000,14235.000000,33179.000000
37187.000000,33463.000000,14210.000000,33098.000000
37146.000000,33418.000000,14178.000000,33033.000000
37101.000000,33377.000000,14136.000000,32971.000000
37052.000000,33331.000000,14092.000000,32892.000000
37004.000000,33278.000000,14056.000000,32799.000000
36964.000000,33232.000000,14019.000000,32713.000000
36930.000000,33198.000000,13974.000000,32641.000000
36896.000000,33171.000000,13918.000000,32589.000000
36864.000000,33161.000000,13846.000000,32573.000000
36839.000000,33186.000000,13753.000000,32619.000000
36818.000000,33252.000000,13645.000000,32730.000000
36798.000000,33358.000000,13536.000000,32889.000000
36782.000000,33511.000000,13430.000000,33107.000000
36767.000000,33722.000000,13319.000000,33412.000000
36747.000000,33989.000000,13205.000000,33804.000000
36714.000000,34302.000000,13097.000000,34281.000000
36673.000000,34664.000000,12995.000000,34857.000000
36627.000000,35078.000000,12890.000000,35532.000000
36578.000000,35533.000000,12781.000000,36289.000000
36529.000000,36024.000000,12667.000000,37103.000000
36490.000000,36546.000000,12546.000000,37958.000000
36463.000000,37093.000000,12415.000000,38848.000000
36439.000000,37648.000000,12283.000000,39761.000000
36416.000000,38201.000000,12164.000000,40682.000000
36397.000000,38748.000000,12058.000000,41599.000000
36382.000000,39277.000000,11954.000000,42489.000000
36367.000000,39773.000000,11854.000000,43321.000000
36352.000000,40225.000000,11759.000000,44073.000000
36338.000000,40635.000000,11664.000000,44746.000000
36320.000000,41003.000000,11565.000000,45340.000000
36294.000000,41322.000000,11463.000000,45845.000000
36263.000000,41592.000000,11363.000000,46259.000000
36239.000000,41823.000000,11260.000000,46604.000000
36225.000000,42023.000000,11150.000000,46895.000000
36221.000000,42182.000000,11036.000000,47128.000000
36237.000000,42301.000000,10922.000000,47301.000000
36282.000000,42391.000000,10805.000000,47422.000000
36357.000000,42459.000000,10684.000000,47509.000000
36462.000000,42506.000000,10557.000000,47569.000000
36606.000000,42536.000000,10426.000000,47603.000000
36799.000000,42553.000000,10291.000000,47616.000000
37043.000000,42557.000000,10156.000000,47614.000000
37332.000000,42549.000000,10028.000000,47605.000000
37662.000000,42540.000000,9911.000000,47594.000000
38027.000000,42537.000000,9800.000000,47592.000000
38411.000000,42540.000000,9694.000000,47603.000000
38805.000000,42550.000000,9598.000000,47629.000000
39206.000000,42574.000000,9514.000000,47676.000000
39612.000000,42614.000000,9434.000000,47740.000000
40010.000000,42664.000000,9355.000000,47813.000000
40390.000000,42718.000000,9285.000000,47885.000000
40744.000000,42774.000000,9222.000000,47961.000000
41075.000000,42840.000000,9152.000000,48058.000000
41381.000000,42911.000000,9072.000000,48171.000000
41656.000000,42981.000000,8985.000000,48287.000000
41897.000000,43050.000000,8892.000000,48402.000000
42102.000000,43122.000000,8788.000000,48513.000000
42274.000000,43189.000000,8673.000000,48611.000000
42416.000000,43242.000000,8551.000000,48687.000000
42536.000000,43281.000000,8420.000000,48742.000000
42643.000000,43310.000000,8285.000000,48787.000000
42737.000000,43324.000000,8156.000000,48812.000000
42823.000000,43318.000000,8042.000000,48810.000000
42908.000000,43294.000000,7937.000000,48791.000000
42990.000000,43255.000000,7834.000000,48758.000000
43064.000000,43197.000000,7734.000000,48700.000000
43137.000000,43126.000000,7648.000000,48613.000000
43209.000000,43050.000000,7574.000000,48505.000000
43277.000000,42976.000000,7514.000000,48392.000000
43340.000000,42904.000000,7477.000000,48274.000000
43401.000000,42831.000000,7461.000000,48146.000000
43465.000000,42764.000000,7458.000000,48011.000000
43529.000000,42698.000000,7462.000000,47875.000000
43595.000000,42627.000000,7473.000000,47741.000000
43668.000000,42554.000000,7487.000000,47613.000000
43752.000000,42486.000000,7495.000000,47499.000000
43840.000000,42425.000000,7491.000000,47399.000000
43925.000000,42366.000000,7479.000000,47308.000000
44012.000000,42308.000000,7460.000000,47228.000000
44099.000000,42260.000000,7438.000000,47161.000000
44182.000000,42218.000000,7422.000000,47107.000000
44262.000000,42170.000000,7429.000000,47053.000000
44343.000000,42117.000000,7482.000000,46991.000000
44426.000000,42069.000000,7586.000000,46940.000000
44504.000000,42027.000000,7744.000000,46899.000000
44571.000000,41983.000000,7972.000000,46853.000000
44627.000000,41939.000000,8278.000000,46802.000000
44673.000000,41898.000000,8661.000000,46752.000000
44702.000000,41860.000000,9117.000000,46698.000000
44703.000000,41818.000000,9652.000000,46630.000000
44680.000000,41773.000000,10259.000000,46551.000000
44640.000000,41726.000000,10923.000000,46478.000000
44586.000000,41679.000000,11635.000000,46410.000000
44518.000000,41633.000000,12391.000000,46335.000000
44441.000000,41589.000000,13174.000000,46259.000000
44361.000000,41545.000000,13955.000000,46186.000000
44272.000000,41496.000000,14714.000000,46100.000000
44172.000000,41440.000000,15443.000000,46000.000000
44074.000000,41381.000000,16131.000000,45902.000000
43986.000000,41323.000000,16758.000000,45819.000000
43908.000000,41259.000000,17314.000000,45744.000000
43839.000000,41188.000000,17797.000000,45656.000000
43775.000000,41111.000000,18202.000000,45551.000000
43715.000000,41032.000000,18529.000000,45437.000000
43656.000000,40953.000000,18782.000000,45316.000000
43604.000000,40871.000000,18971.000000,45185.000000
43568.000000,40790.000000,19107.000000,45053.000000
43548.000000,40711.000000,19201.000000,44926.000000
43538.000000,40631.000000,19265.000000,44793.000000
43535.000000,40547.000000,19309.000000,44650.000000
43541.000000,40465.000000,19339.000000,44506.000000
43556.000000,40388.000000,19356.000000,44368.000000
43572.000000,40313.000000,19367.000000,44237.000000
43587.000000,40237.000000,19384.000000,44115.000000
43598.000000,40167.000000,19410.000000,44005.000000
43599.000000,40102.000000,19440.000000,43903.000000
43588.000000,40034.000000,19476.000000,43801.000000
43569.000000,39963.000000,19521.000000,43695.000000
43543.000000,39897.000000,19576.000000,43595.000000
43507.000000,39837.000000,19634.000000,43509.000000
43463.000000,39775.000000,19698.000000,43428.000000
43420.000000,39710.000000,19769.000000,43339.000000
43388.000000,39643.000000,19848.000000,43245.000000
43364.000000,39575.000000,19934.000000,43142.000000
43333.000000,39502.000000,20035.000000,43030.000000
43295.000000,39430.000000,20151.000000,42918.000000
43259.000000,39364.000000,20276.000000,42812.000000
43223.000000,39299.000000,20411.000000,42710.000000
43180.000000,39229.000000,20562.000000,42603.000000
43130.000000,39157.000000,20724.000000,42492.000000
43078.000000,39090.000000,20875.000000,42385.000000
43025.000000,39022.000000,21006.000000,42281.000000
42968.000000,38949.000000,21124.000000,42174.000000
42912.000000,38876.000000,21229.000000,42068.000000
42859.000000,38809.000000,21305.000000,41971.000000
42804.000000,38743.000000,21345.000000,41879.000000
42749.000000,38670.000000,21355.000000,41782.000000
42700.000000,38594.000000,21333.000000,41676.000000
42652.000000,38523.000000,21274.000000,41570.000000
42598.000000,38453.000000,21189.000000,41463.000000
42538.000000,38381.000000,21086.000000,41347.000000
42472.000000,38310.000000,20965.000000,41232.000000
42405.000000,38239.000000,20825.000000,41127.000000
42340.000000,38162.000000,20677.000000,41021.000000
42276.000000,38080.000000,20533.000000,40908.000000
42218.000000,37998.000000,20393.000000,40789.000000
42166.000000,37926.000000,20255.000000,40675.000000
42119.000000,37862.000000,20132.000000,40568.000000
42075.000000,37797.000000,20036.000000,40464.000000
42033.000000,37735.000000,19966.000000,40367.000000
41991.000000,37674.000000,19912.000000,40274.000000
41947.000000,37607.000000,19876.000000,40171.000000
41908.000000,37535.000000,19862.000000,40053.000000
41876.000000,37468.000000,19864.000000,39931.000000
41847.000000,37409.000000,19875.000000,39817.000000
41808.000000,37350.000000,19899.000000,39706.000000
41760.000000,37284.000000,19930.000000,39594.000000
41709.000000,37212.000000,19956.000000,39485.000000
41656.000000,37137.000000,19974.000000,39379.000000
41596.000000,37061.000000,19992.000000,39267.000000
41536.000000,36986.000000,20017.000000,39147.000000
41473.000000,36916.000000,20046.000000,39030.000000
41403.000000,36849.000000,20076.000000,38924.000000
41327.000000,36782.000000,20110.000000,38821.000000
41255.000000,36713.000000,20150.000000,38712.000000
41195.000000,36641.000000,20184.000000,38602.000000
41143.000000,36567.000000,20208.000000,38488.000000
41093.000000,36490.000000,20226.000000,38365.000000
41047.000000,36417.000000,20235.000000,38242.000000
41012.000000,36354.000000,20227.000000,38132.000000
40985.000000,36294.000000,20208.000000,38033.000000
40961.000000,36232.000000,20188.000000,37928.000000
40941.000000,36172.000000,20167.000000,37817.000000
40922.000000,36122.000000,20131.000000,37714.000000
40895.000000,36075.000000,20082.000000,37614.000000
40853.000000,36027.000000,20025.000000,37516.000000
40804.000000,35978.000000,19963.000000,37430.000000
40756.000000,35928.000000,19890.000000,37352.000000
40713.000000,35873.000000,19806.000000,37269.000000
40676.000000,35814.000000,19715.000000,37181.000000
40646.000000,35760.000000,19615.000000,37099.000000
40619.000000,35713.000000,19504.000000,37034.000000
40582.000000,35666.000000,19388.000000,36977.000000
40531.000000,35614.000000,19274.000000,36908.000000
40472.000000,35565.000000,19159.000000,36828.000000
40405.000000,35524.000000,19037.000000,36747.000000
40324.000000,35484.000000,18915.000000,36661.000000
40237.000000,35440.000000,18801.000000,36570.000000
40151.000000,35397.000000,18693.000000,36487.000000
40068.000000,35356.000000,18581.000000,36416.000000
39980.000000,35311.000000,18464.000000,36340.000000
39890.000000,35265.000000,18356.000000,36256.000000
39804.000000,35225.000000,18256.000000,36179.000000
39723.000000,35196.000000,18157.000000,36116.000000
39651.000000,35169.000000,18063.000000,36057.000000
39598.000000,35136.000000,17972.000000,35992.000000
39569.000000,35097.000000,17881.000000,35925.000000
39557.000000,35060.000000,17785.000000,35858.000000
39553.000000,35026.000000,17687.000000,35787.000000
39559.000000,34993.000000,17592.000000,35708.000000
39575.000000,34962.000000,17499.000000,35633.000000
39594.000000,34928.000000,17407.000000,35567.000000
39609.000000,34886.000000,17318.000000,35496.000000
39618.000000,34844.000000,17232.000000,35418.000000
39616.000000,34807.000000,17141.000000,35344.000000
39596.000000,34774.000000,17040.000000,35280.000000
39551.000000,34737.000000,16933.000000,35218.000000
39487.000000,34697.000000,16824.000000,35155.000000
39415.000000,34660.000000,16709.000000,35097.000000
39336.000000,34622.000000,16589.000000,35040.000000
39250.000000,34575.000000,16473.000000,34967.000000
39168.000000,34526.000000,16362.000000,34879.000000
39095.000000,34482.000000,16251.000000,34800.000000
39024.000000,34439.000000,16141.000000,34737.000000
38955.000000,34396.000000,16037.000000,34670.000000
38891.000000,34355.000000,15934.000000,34598.000000
38830.000000,34317.000000,15826.000000,34529.000000
38768.000000,34278.000000,15718.000000,34452.000000
38702.000000,34238.000000,15616.000000,34362.000000
38637.000000,34199.000000,15519.000000,34275.000000
38576.000000,34163.000000,15418.000000,34195.000000
38514.000000,34121.000000,15317.000000,34109.000000
38451.000000,34066.000000,15224.000000,34013.000000
38396.000000,33999.000000,15137.000000,33916.000000
38347.000000,33930.000000,15047.000000,33828.000000
38295.000000,33856.000000,14955.000000,33744.000000
38236.000000,33777.000000,14869.000000,33656.000000
38175.000000,33702.000000,14788.000000,33567.000000
38112.000000,33633.000000,14706.000000,33487.000000
38039.000000,33558.000000,14625.000000,33407.000000
37961.000000,33475.000000,14558.000000,33312.000000
37885.000000,33390.000000,14505.000000,33205.000000
37812.000000,33305.000000,14463.000000,33099.000000
37741.000000,33217.000000,14440.000000,32990.000000
37673.000000,33130.000000,14435.000000,32873.000000
37609.000000,33052.000000,14434.000000,32753.000000
37548.000000,32985.000000,14429.000000,32630.000000
37484.000000,32924.000000,14423.000000,32503.000000
37422.000000,32867.000000,14425.000000,32377.000000
37365.000000,32818.000000,14430.000000,32261.000000
37304.000000,32776.000000,14428.000000,32155.000000
37234.000000,32732.000000,14418.000000,32049.000000
37161.000000,32682.000000,14405.000000,31942.000000
37093.000000,32632.000000,14385.000000,31845.000000
37028.000000,32584.000000,14352.000000,31751.000000
36964.000000,32535.000000,14306.000000,31653.000000
36904.000000,32489.000000,14256.000000,31558.000000
36851.000000,32450.000000,14208.000000,31483.000000
36796.000000,32420.000000,14159.000000,31437.000000
36736.000000,32399.000000,14113.000000,31414.000000
36674.000000,32396.000000,14075.000000,31417.000000
36616.000000,32420.000000,14039.000000,31456.000000
36557.000000,32477.000000,13999.000000,31541.000000
36498.000000,32568.000000,13962.000000,31690.000000
36445.000000,32706.000000,13925.000000,31926.000000
36403.000000,32902.000000,13883.000000,32255.000000
36364.000000,33152.000000,13841.000000,32674.000000
36327.000000,33447.000000,13803.000000,33173.000000
36295.000000,33790.000000,13762.000000,33748.000000
36272.000000,34190.000000,13709.000000,34408.000000
36253.000000,34645.000000,13644.000000,35149.000000
36229.000000,35141.000000,13575.000000,35958.000000
36206.000000,35671.000000,13501.000000,36831.000000
36185.000000,36230.000000,13415.000000,37754.000000
36157.000000,36805.000000,13322.000000,38699.000000
36119.000000,37381.000000,13231.000000,39634.000000
36078.000000,37953.000000,13141.000000,40540.000000
36032.000000,38512.000000,13045.000000,41413.000000
35977.000000,39042.000000,12950.000000,42244.000000
35921.000000,39529.000000,12861.000000,43013.000000
35871.000000,39970.000000,12772.000000,43715.000000
35824.000000,40362.000000,12685.000000,44345.000000
35770.000000,40700.000000,12606.000000,44885.000000
35710.000000,40982.000000,12541.000000,45327.000000
35659.000000,41220.000000,12487.000000,45689.000000
35625.000000,41420.000000,12438.000000,45985.000000
35611.000000,41579.000000,12393.000000,46219.000000
35624.000000,41696.000000,12351.000000,46397.000000
35671.000000,41785.000000,12306.000000,46532.000000
35750.000000,41853.000000,12256.000000,46626.000000
35868.000000,41893.000000,12200.000000,46678.000000
36037.000000,41910.000000,12137.000000,46695.000000
36256.000000,41920.000000,12058.000000,46695.000000
36513.000000,41928.000000,11956.000000,46688.000000
36795.000000,41934.000000,11835.000000,46677.000000
37104.000000,41941.000000,11701.000000,46668.000000
37446.000000,41963.000000,11553.000000,46675.000000
37815.000000,42005.000000,11389.000000,46707.000000
38200.000000,42056.000000,11218.000000,46754.000000
38596.000000,42109.000000,11050.000000,46808.000000
39000.000000,42167.000000,10885.000000,46883.000000
39400.000000,42231.000000,10724.000000,46975.000000
39781.000000,42298.000000,10572.000000,47075.000000
40139.000000,42374.000000,10433.000000,47189.000000
40471.000000,42466.000000,10300.000000,47327.000000
40771.000000,42571.000000,10172.000000,47466.000000
41039.000000,42677.000000,10060.000000,47586.000000
41282.000000,42776.000000,9970.000000,47702.000000
41499.000000,42868.000000,9894.000000,47825.000000
41685.000000,42950.000000,9830.000000,47941.000000
41840.000000,43012.000000,9777.000000,48041.000000
41972.000000,43058.000000,9734.000000,48125.000000
42084.000000,43092.000000,9692.000000,48184.000000
42171.000000,43105.000000,9646.000000,48205.000000
42232.000000,43089.000000,9603.000000,48190.000000
42279.000000,43052.000000,9559.000000,48150.000000
42319.000000,43005.000000,9515.000000,48096.000000
42345.000000,42943.000000,9480.000000,48023.000000
42356.000000,42866.000000,9478.000000,47929.000000
42363.000000,42778.000000,9519.000000,47824.000000
42370.000000,42687.000000,9610.000000,47716.000000
42382.000000,42595.000000,9765.000000,47599.000000
42407.000000,42505.000000,9993.000000,47467.000000
42447.000000,42427.000000,10297.000000,47339.000000
42494.000000,42361.000000,10675.000000,47229.000000
42543.000000,42298.000000,11133.000000,47130.000000
42600.000000,42235.000000,11672.000000,47042.000000
42668.000000,42176.000000,12278.000000,46966.000000
42741.000000,42123.000000,12937.000000,46896.000000
42813.000000,42077.000000,13638.000000,46825.000000
42888.000000,42038.000000,14369.000000,46756.000000
42967.000000,42011.000000,15118.000000,46703.000000
43047.000000,41998.000000,15868.000000,46670.000000
43125.000000,41988.000000,16612.000000,46645.000000
43198.000000,41977.000000,17337.000000,46623.000000
43263.000000,41969.000000,18024.000000,46608.000000
43312.000000,41963.000000,18659.000000,46589.000000
43340.000000,41952.000000,19239.000000,46562.000000
43351.000000,41935.000000,19759.000000,46534.000000
43349.000000,41917.000000,20203.000000,46517.000000
43335.000000,41900.000000,20573.000000,46502.000000
43307.000000,41877.000000,20880.000000,46470.000000
43271.000000,41848.000000,21135.000000,46416.000000
43231.000000,41815.000000,21341.000000,46352.000000
43187.000000,41776.000000,21503.000000,46278.000000
43137.000000,41728.000000,21631.000000,46194.000000
43081.000000,41674.000000,21741.000000,46110.000000
43025.000000,41619.000000,21835.000000,46026.000000
42966.000000,41557.000000,21914.000000,45934.000000
42902.000000,41489.000000,21978.000000,45833.000000
42837.000000,41419.000000,22032.000000,45727.000000
42774.000000,41355.000000,22076.000000,45624.000000
42710.000000,41294.000000,22118.000000,45521.000000
42645.000000,41223.000000,22164.000000,45406.000000
42588.000000,41144.000000,22217.000000,45283.000000
42544.000000,41064.000000,22278.000000,45158.000000
42511.000000,40978.000000,22355.000000,45026.000000
42492.000000,40883.000000,22456.000000,44886.000000
42487.000000,40785.000000,22573.000000,44746.000000
42491.000000,40688.000000,22691.000000,44611.000000
42497.000000,40586.000000,22813.000000,44476.000000
42498.000000,40476.000000,22946.000000,44330.000000
42502.000000,40362.000000,23088.000000,44171.000000
42508.000000,40245.000000,23238.000000,44006.000000
42510.000000,40123.000000,23394.000000,43836.000000
42502.000000,40002.000000,23555.000000,43665.000000
42487.000000,39892.000000,23716.000000,43501.000000
42464.000000,39797.000000,23866.000000,43343.000000
42436.000000,39706.000000,24002.000000,43192.000000
42407.000000,39616.000000,24125.000000,43049.000000
42378.000000,39531.000000,24227.000000,42918.000000
42341.000000,39454.000000,24299.000000,42797.000000
42293.000000,39379.000000,24349.000000,42682.000000
42240.000000,39302.000000,24383.000000,42569.000000
42188.000000,39230.000000,24396.000000,42464.000000
42133.000000,39166.000000,24376.000000,42368.000000
42074.000000,39103.000000,24321.000000,42272.000000
42008.000000,39038.000000,24240.000000,42167.000000
41936.000000,38978.000000,24132.000000,42064.000000
41851.000000,38928.000000,23995.000000,41963.000000
41755.000000,38882.000000,23837.000000,41862.000000
41655.000000,38834.000000,23667.000000,41770.000000
41556.000000,38783.000000,23489.000000,41693.000000
41458.000000,38725.000000,23303.000000,41622.000000
41361.000000,38658.000000,23118.000000,41537.000000
41271.000000,38586.000000,22935.000000,41441.000000
41188.000000,38519.000000,22758.000000,41344.000000
41107.000000,38452.000000,22594.000000,41242.000000
41027.000000,38386.000000,22454.000000,41137.000000
40954.000000,38325.000000,22339.000000,41036.000000
40894.000000,38269.000000,22243.000000,40948.000000
40840.000000,38210.000000,22159.000000,40870.000000
40781.000000,38149.000000,22097.000000,40784.000000
40724.000000,38089.000000,22059.000000,40687.000000
40670.000000,38035.000000,22034.000000,40588.000000
40610.000000,37983.000000,22020.000000,40488.000000
40539.000000,37926.000000,22023.000000,40388.000000
40466.000000,37870.000000,22033.000000,40297.000000
40392.000000,37816.000000,22033.000000,40215.000000
40314.000000,37761.000000,22021.000000,40129.000000
40233.000000,37699.000000,21997.000000,40030.000000
40153.000000,37637.000000,21960.000000,39927.000000
40075.000000,37583.000000,21913.000000,39835.000000
39998.000000,37534.000000,21866.000000,39749.000000
39925.000000,37485.000000,21826.000000,39664.000000
39855.000000,37441.000000,21787.000000,39589.000000
39783.000000,37401.000000,21742.000000,39518.000000
39704.000000,37360.000000,21695.000000,39438.000000
39626.000000,37321.000000,21653.000000,39355.000000
39556.000000,37289.000000,21609.000000,39281.000000
39491.000000,37261.000000,21551.000000,39217.000000
39428.000000,37228.000000,21481.000000,39153.000000
39373.000000,37190.000000,21405.000000,39088.000000
39331.000000,37154.000000,21318.000000,39030.000000
39293.000000,37122.000000,21216.000000,38972.000000
39256.000000,37089.000000,21104.000000,38908.000000
39222.000000,37056.000000,20990.000000,38837.000000
39198.000000,37027.000000,20868.000000,38774.000000
39178.000000,37005.000000,20734.000000,38722.000000
39157.000000,36980.000000,20598.000000,38667.000000
39135.000000,36947.000000,20475.000000,38606.000000
39114.000000,36910.000000,20366.000000,38547.000000
39088.000000,36866.000000,20269.000000,38481.000000
39060.000000,36815.000000,20189.000000,38397.000000
39039.000000,36764.000000,20127.000000,38304.000000
39021.000000,36718.000000,20072.000000,38217.000000
38995.000000,36671.000000,20017.000000,38131.000000
38957.000000,36617.000000,19963.000000,38035.000000
38910.000000,36561.000000,19903.000000,37939.000000
38856.000000,36513.000000,19836.000000,37851.000000
38794.000000,36465.000000,19767.000000,37762.000000
38726.000000,36409.000000,19708.000000,37675.000000
38661.000000,36350.000000,19661.000000,37592.000000
38595.000000,36293.000000,19615.000000,37514.000000
38521.000000,36237.000000,19565.000000,37436.000000
38445.000000,36175.000000,19516.000000,37352.000000
38376.000000,36110.000000,19470.000000,37258.000000
38319.000000,36046.000000,19418.000000,37163.000000
38267.000000,35986.000000,19361.000000,37067.000000
38220.000000,35930.000000,19298.000000,36975.000000
38182.000000,35886.000000,19223.000000,36897.000000
38151.000000,35855.000000,19134.000000,36835.000000
38118.000000,35829.000000,19040.000000,36779.000000
38080.000000,35802.000000,18955.000000,36718.000000
38045.000000,35777.000000,18875.000000,36657.000000
38009.000000,35758.000000,18796.000000,36601.000000
37964.000000,35741.000000,18725.000000,36542.000000
37915.000000,35723.000000,18673.000000,36478.000000
37866.000000,35709.000000,18638.000000,36430.000000
37815.000000,35702.000000,18606.000000,36413.000000
37758.000000,35695.000000,18575.000000,36406.000000
37703.000000,35680.000000,18545.000000,36391.000000
37652.000000,35665.000000,18511.000000,36372.000000
37605.000000,35657.000000,18467.000000,36354.000000
37553.000000,35652.000000,18418.000000,36334.000000
37497.000000,35649.000000,18365.000000,36312.000000
37446.000000,35660.000000,18298.000000,36298.000000
37402.000000,35686.000000,18219.000000,36298.000000
37359.000000,35720.000000,18140.000000,36312.000000
37319.000000,35763.000000,18069.000000,36345.000000
37284.000000,35820.000000,18004.000000,36395.000000
37250.000000,35888.000000,17936.000000,36454.000000
37213.000000,35956.000000,17871.000000,36516.000000
37174.000000,36025.000000,17815.000000,36578.000000
37137.000000,36106.000000,17767.000000,36646.000000
37104.000000,36193.000000,17726.000000,36711.000000
37070.000000,36272.000000,17693.000000,36763.000000
37037.000000,36345.000000,17660.000000,36805.000000
37008.000000,36418.000000,17624.000000,36859.000000
36982.000000,36485.000000,17587.000000,36926.000000
36954.000000,36531.000000,17551.000000,36982.000000
36929.000000,36553.000000,17515.000000,37014.000000
36901.000000,36563.000000,17474.000000,37028.000000
36861.000000,36562.000000,17431.000000,37018.000000
36805.000000,36540.000000,17389.000000,36978.000000
36746.000000,36504.000000,17345.000000,36914.000000
36689.000000,36465.000000,17290.000000,36848.000000
36627.000000,36422.000000,17228.000000,36781.000000
36563.000000,36371.000000,17164.000000,36711.000000
36510.000000,36320.000000,17101.000000,36642.000000
36466.000000,36274.000000,17039.000000,36580.000000
36425.000000,36226.000000,16975.000000,36522.000000
36384.000000,36169.000000,16908.000000,36459.000000
36350.000000,36113.000000,16838.000000,36391.000000
36319.000000,36068.000000,16757.000000,36324.000000
36281.000000,36031.000000,16666.000000,36249.000000
36231.000000,35994.000000,16573.000000,36169.000000
36178.000000,35960.000000,16481.000000,36103.000000
36122.000000,35934.000000,16389.000000,36055.000000
36060.000000,35910.000000,16299.000000,36007.000000
35997.000000,35882.000000,16210.000000,35944.000000
35940.000000,35848.000000,16119.000000,35869.000000
35885.000000,35807.000000,16025.000000,35788.000000
35829.000000,35757.000000,15928.000000,35698.000000
35776.000000,35704.000000,15832.000000,35598.000000
35735.000000,35657.000000,15738.000000,35499.000000
35696.000000,35613.000000,15642.000000,35411.000000
35652.000000,35565.000000,15546.000000,35326.000000
35602.000000,35511.000000,15458.000000,35241.000000
35551.000000,35461.000000,15374.000000,35159.000000
35496.000000,35418.000000,15283.000000,35083.000000
35441.000000,35383.000000,15184.000000,35022.000000
35392.000000,35365.000000,15077.000000,34996.000000
35351.000000,35377.000000,14960.000000,35020.000000
35313.000000,35420.000000,14835.000000,35098.000000
35278.000000,35493.000000,14708.000000,35225.000000
35250.000000,35606.000000,14579.000000,35409.000000
35223.000000,35777.000000,14444.000000,35681.000000
35194.000000,36007.000000,14296.000000,36054.000000
35166.000000,36289.000000,14141.000000,36520.000000
35142.000000,36628.000000,13989.000000,37082.000000
35124.000000,37034.000000,13839.000000,37741.000000
35111.000000,37501.000000,13690.000000,38489.000000
35101.000000,38011.000000,13549.000000,39304.000000
35098.000000,38557.000000,13422.000000,40172.000000
35103.000000,39134.000000,13304.000000,41086.000000
35108.000000,39727.000000,13190.000000,42026.000000
35118.000000,40319.000000,13086.000000,42966.000000
35152.000000,40903.000000,12994.000000,43893.000000
35217.000000,41472.000000,12906.000000,44801.000000
35309.000000,42008.000000,12820.000000,45665.000000
35430.000000,42495.000000,12740.000000,46456.000000
35588.000000,42937.000000,12669.000000,47166.000000
35781.000000,43335.000000,12601.000000,47798.000000
36007.000000,43686.000000,12533.000000,48347.000000
36270.000000,43990.000000,12469.000000,48813.000000
36577.000000,44252.000000,12407.000000,49208.000000
36923.000000,44474.000000,12339.000000,49535.000000
37297.000000,44648.000000,12266.000000,49786.000000
37693.000000,44776.000000,12190.000000,49962.000000
38105.000000,44872.000000,12115.000000,50083.000000
38520.000000,44947.000000,12036.000000,50171.000000
38923.000000,44995.000000,11954.000000,50230.000000
39305.000000,45017.000000,11869.000000,50267.000000
39663.000000,45031.000000,11776.000000,50298.000000
39987.000000,45044.000000,11674.000000,50331.000000
40269.000000,45051.000000,11568.000000,50356.000000
40514.000000,45057.000000,11460.000000,50365.000000
40729.000000,45074.000000,11356.000000,50370.000000
40907.000000,45104.000000,11249.000000,50380.000000
41048.000000,45147.000000,11142.000000,50400.000000
41161.000000,45199.000000,11036.000000,50433.000000
41248.000000,45260.000000,10927.000000,50485.000000
41310.000000,45324.000000,10821.000000,50557.000000
41350.000000,45388.000000,10723.000000,50634.000000
41374.000000,45453.000000,10633.000000,50715.000000
41389.000000,45521.000000,10544.000000,50810.000000
41399.000000,45593.000000,10453.000000,50915.000000
41405.000000,45667.000000,10366.000000,51031.000000
41410.000000,45745.000000,10293.000000,51161.000000
41415.000000,45830.000000,10238.000000,51298.000000
41420.000000,45914.000000,10212.000000,51432.000000
41431.000000,45985.000000,10234.000000,51548.000000
41454.000000,46042.000000,10313.000000,51639.000000
41493.000000,46092.000000,10452.000000,51714.000000
41538.000000,46129.000000,10662.000000,51773.000000
41589.000000,46141.000000,10952.000000,51802.000000
41653.000000,46132.000000,11326.000000,51805.000000
41730.000000,46109.000000,11780.000000,51785.000000
41813.000000,46071.000000,12310.000000,51733.000000
41898.000000,46011.000000,12913.000000,51650.000000
41987.000000,45936.000000,13580.000000,51549.000000
42083.000000,45858.000000,14291.000000,51437.000000
42179.000000,45772.000000,15029.000000,51307.000000
42273.000000,45673.000000,15778.000000,51160.000000
42367.000000,45570.000000,16518.000000,51012.000000
42453.000000,45473.000000,17229.000000,50873.000000
42524.000000,45376.000000,17902.000000,50734.000000
42581.000000,45276.000000,18537.000000,50590.000000
42625.000000,45184.000000,19128.000000,50447.000000
42648.000000,45105.000000,19659.000000,50316.000000
42647.000000,45039.000000,20131.000000,50198.000000
42626.000000,44983.000000,20553.000000,50091.000000
42592.000000,44941.000000,20926.000000,50001.000000
42546.000000,44909.000000,21245.000000,49936.000000
42484.000000,44879.000000,21520.000000,49888.000000
42410.000000,44853.000000,21761.000000,49848.000000
42333.000000,44831.000000,21963.000000,49816.000000
42252.000000,44813.000000,22124.000000,49788.000000
42164.000000,44798.000000,22253.000000,49760.000000
42075.000000,44789.000000,22363.000000,49730.000000
41991.000000,44787.000000,22453.000000,49706.000000
41906.000000,44782.000000,22519.000000,49686.000000
41822.000000,44763.000000,22575.000000,49661.000000
41746.000000,44733.000000,22631.000000,49626.000000
41679.000000,44697.000000,22686.000000,49583.000000
41615.000000,44652.000000,22740.000000,49524.000000
41552.000000,44596.000000,22803.000000,49451.000000
41490.000000,44538.000000,22877.000000,49373.000000
41436.000000,44486.000000,22958.000000,49298.000000
41384.000000,44436.000000,23040.000000,49226.000000
41330.000000,44372.000000,23124.000000,49132.000000
41282.000000,44296.000000,23209.000000,49013.000000
41239.000000,44220.000000,23290.000000,48900.000000
41199.000000,44143.000000,23369.000000,48796.000000
41162.000000,44061.000000,23453.000000,48688.000000
41135.000000,43980.000000,23540.000000,48582.000000
41122.000000,43899.000000,23624.000000,48482.000000
41116.000000,43815.000000,23701.000000,48372.000000
41114.000000,43730.000000,23777.000000,48247.000000
41118.000000,43650.000000,23851.000000,48112.000000
41122.000000,43578.000000,23917.000000,47978.000000
41119.000000,43506.000000,23978.000000,47850.000000
41104.000000,43430.000000,24036.000000,47726.000000
41080.000000,43354.000000,24081.000000,47616.000000
41044.000000,43284.000000,24105.000000,47520.000000
40995.000000,43218.000000,24106.000000,47420.000000
40933.000000,43144.000000,24089.000000,47304.000000
40854.000000,43066.000000,24049.000000,47181.000000
40750.000000,42991.000000,23976.000000,47064.000000
40619.000000,42914.000000,23871.000000,46944.000000
40474.000000,42833.000000,23748.000000,46815.000000
40323.000000,42753.000000,23611.000000,46683.000000
40168.000000,42678.000000,23464.000000,46558.000000
40011.000000,42601.000000,23321.000000,46437.000000
39860.000000,42521.000000,23181.000000,46322.000000
39721.000000,42444.000000,23036.000000,46218.000000
39594.000000,42369.000000,22884.000000,46123.000000
39478.000000,42289.000000,22739.000000,46022.000000
39383.000000,42206.000000,22616.000000,45908.000000
39311.000000,42130.000000,22517.000000,45789.000000
39255.000000,42063.000000,22435.000000,45666.000000
39203.000000,41997.000000,22367.000000,45539.000000
39155.000000,41930.000000,22312.000000,45421.000000
39109.000000,41865.000000,22270.000000,45319.000000
39060.000000,41801.000000,22240.000000,45228.000000
39008.000000,41735.000000,22224.000000,45136.000000
38961.000000,41673.000000,22220.000000,45040.000000
38918.000000,41616.000000,22216.000000,44955.000000
38877.000000,41563.000000,22206.000000,44886.000000
38835.000000,41508.000000,22199.000000,44812.000000
38799.000000,41451.000000,22199.000000,44729.000000
38774.000000,41393.000000,22196.000000,44647.000000
38755.000000,41333.000000,22182.000000,44562.000000
38738.000000,41269.000000,22155.000000,44466.000000
38726.000000,41204.000000,22116.000000,44370.000000
38720.000000,41141.000000,22066.000000,44293.000000
38711.000000,41079.000000,22008.000000,44225.000000
38697.000000,41012.000000,21951.000000,44140.000000
38687.000000,40941.000000,21894.000000,44038.000000
38683.000000,40877.000000,21827.000000,43940.000000
38678.000000,40818.000000,21748.000000,43845.000000
38669.000000,40757.000000,21669.000000,43744.000000
38662.000000,40699.000000,21597.000000,43648.000000
38657.000000,40646.000000,21528.000000,43559.000000
38643.000000,40589.000000,21461.000000,43465.000000
38618.000000,40524.000000,21396.000000,43358.000000
38594.000000,40458.000000,21332.000000,43250.000000
38576.000000,40394.000000,21267.000000,43155.000000
38557.000000,40324.000000,21203.000000,43052.000000
38531.000000,40249.000000,21139.000000,42922.000000
38502.000000,40180.000000,21073.000000,42783.000000
38468.000000,40118.000000,20998.000000,42649.000000
38431.000000,40052.000000,20913.000000,42522.000000
38398.000000,39979.000000,20826.000000,42398.000000
38371.000000,39909.000000,20735.000000,42283.000000
38347.000000,39847.000000,20638.000000,42178.000000
38319.000000,39784.000000,20540.000000,42076.000000
38290.000000,39720.000000,20446.000000,41977.000000
38265.000000,39658.000000,20350.000000,41889.000000
38243.000000,39599.000000,20254.000000,41808.000000
38223.000000,39533.000000,20166.000000,41715.000000
38203.000000,39460.000000,20094.000000,41606.000000
38186.000000,39392.000000,20029.000000,41500.000000
38167.000000,39330.000000,19962.000000,41409.000000
38139.000000,39273.000000,19895.000000,41321.000000
38109.000000,39221.000000,19830.000000,41232.000000
38084.000000,39173.000000,19764.000000,41146.000000
38058.000000,39120.000000,19699.000000,41058.000000
38023.000000,39059.000000,19641.000000,40969.000000
37978.000000,38999.000000,19586.000000,40885.000000
37921.000000,38948.000000,19526.000000,40814.000000
37856.000000,38900.000000,19457.000000,40755.000000
37789.000000,38844.000000,19385.000000,40690.000000
37724.000000,38783.000000,19313.000000,40615.000000
37664.000000,38731.000000,19240.000000,40534.000000
37607.000000,38684.000000,19168.000000,40435.000000
37545.000000,38628.000000,19105.000000,40316.000000
37477.000000,38568.000000,19052.000000,40200.000000
37405.000000,38512.000000,19012.000000,40103.000000
37333.000000,38457.000000,18987.000000,40014.000000
37261.000000,38400.000000,18977.000000,39917.000000
37193.000000,38347.000000,18980.000000,39812.000000
37126.000000,38300.000000,18984.000000,39713.000000
37054.000000,38258.000000,18990.000000,39618.000000
