660nm,730nm,850nm,940nm
61008.000000,1844.000000,61623.000000,41534.000000
61049.000000,1880.000000,61652.000000,41556.000000
61045.000000,1880.000000,61666.000000,41558.000000
61031.000000,1921.000000,61691.000000,41570.000000
61081.000000,1897.000000,61650.000000,41565.000000
61094.000000,1927.000000,61663.000000,41585.000000
61091.000000,1948.000000,61673.000000,41555.000000
61115.000000,1944.000000,61662.000000,41604.000000
61102.000000,1915.000000,61695.000000,41590.000000
61134.000000,1937.000000,61689.000000,41602.000000
61124.000000,1954.000000,61674.000000,41608.000000
61135.000000,1964.000000,61645.000000,41593.000000
61126.000000,1948.000000,61653.000000,41606.000000
61129.000000,1937.000000,61666.000000,41588.000000
61137.000000,1969.000000,61665.000000,41622.000000
61135.000000,1956.000000,61665.000000,41630.000000
61106.000000,1951.000000,61656.000000,41625.000000
61104.000000,1927.000000,61640.000000,41612.000000
61109.000000,1933.000000,61649.000000,41602.000000
61138.000000,1950.000000,61667.000000,41601.000000
61133.000000,1948.000000,61673.000000,41612.000000
61111.000000,1956.000000,61645.000000,41618.000000
61116.000000,1925.000000,61685.000000,41616.000000
61106.000000,1945.000000,61615.000000,41587.000000
61117.000000,1948.000000,61631.000000,41615.000000
61138.000000,1944.000000,61642.000000,41596.000000
61116.000000,1933.000000,61659.000000,41588.000000
61117.000000,1948.000000,61644.000000,41619.000000
61105.000000,1961.000000,61645.000000,41602.000000
61105.000000,1954.000000,61644.000000,41582.000000
61111.000000,1967.000000,61652.000000,41613.000000
61124.000000,1929.000000,61642.000000,41599.000000
61124.000000,1942.000000,61644.000000,41602.000000
61143.000000,1960.000000,61649.000000,41600.000000
61119.000000,1956.000000,61657.000000,41608.000000
61125.000000,1956.000000,61672.000000,41614.000000
61123.000000,1981.000000,61656.000000,41573.000000
61108.000000,1932.000000,61645.000000,41585.000000
61129.000000,1918.000000,61636.000000,41595.000000
61110.000000,1937.000000,61636.000000,41585.000000
61098.000000,1920.000000,61614.000000,41588.000000
61124.000000,1929.000000,61643.000000,41574.000000
61089.000000,1939.000000,61644.000000,41591.000000
61107.000000,1949.000000,61658.000000,41607.000000
61080.000000,1936.000000,61660.000000,41598.000000
61085.000000,1923.000000,61612.000000,41576.000000
61091.000000,1938.000000,61632.000000,41575.000000
61099.000000,1932.000000,61668.000000,41551.000000
61110.000000,1929.000000,61634.000000,41602.000000
61102.000000,1927.000000,61642.000000,41574.000000
61107.000000,1926.000000,61632.000000,41597.000000
61097.000000,1930.000000,61617.000000,41579.000000
61084.000000,1945.000000,61616.000000,41585.000000
61085.000000,1891.000000,61594.000000,41571.000000
61090.000000,1913.000000,61616.000000,41582.000000
61095.000000,1894.000000,61626.000000,41591.000000
61095.000000,1940.000000,61632.000000,41581.000000
61044.000000,1911.000000,61615.000000,41570.000000
61078.000000,1889.000000,61604.000000,41541.000000
61066.000000,1919.000000,61598.000000,41555.000000
61075.000000,1917.000000,61580.000000,41574.000000
61098.000000,1900.000000,61607.000000,41603.000000
61058.000000,1931.000000,61590.000000,41557.000000
61052.000000,1900.000000,61593.000000,41571.000000
61022.000000,1917.000000,61572.000000,41561.000000
61095.000000,1881.000000,61579.000000,41555.000000
61024.000000,1880.000000,61617.000000,41583.000000
61045.000000,1894.000000,61594.000000,41551.000000
61029.000000,1915.000000,61587.000000,41561.000000
61072.000000,1893.000000,61569.000000,41560.000000
61040.000000,1854.000000,61551.000000,41558.000000
61041.000000,1905.000000,61554.000000,41542.000000
61068.000000,1884.000000,61557.000000,41568.000000
61041.000000,1881.000000,61598.000000,41563.000000
61060.000000,1865.000000,61562.000000,41568.000000
61059.000000,1882.000000,61539.000000,41585.000000
61039.000000,1862.000000,61564.000000,41555.000000
61023.000000,1866.000000,61534.000000,41529.000000
61019.000000,1881.000000,61556.000000,41562.000000
61061.000000,1884.000000,61564.000000,41592.000000
61039.000000,1854.000000,61574.000000,41550.000000
61010.000000,1883.000000,61539.000000,41543.000000
61051.000000,1871.000000,61563.000000,41558.000000
61018.000000,1869.000000,61532.000000,41511.000000
61037.000000,1847.000000,61570.000000,41538.000000
61045.000000,1860.000000,61569.000000,41525.000000
61019.000000,1860.000000,61527.000000,41541.000000
61017.000000,1851.000000,61515.000000,41535.000000
61000.000000,1855.000000,61534.000000,41566.000000
61005.000000,1857.000000,61541.000000,41559.000000
61019.000000,1828.000000,61520.000000,41541.000000
61033.000000,1899.000000,61533.000000,41538.000000
60997.000000,1856.000000,61552.000000,41517.000000
60996.000000,1847.000000,61532.000000,41543.000000
61005.000000,1840.000000,61529.000000,41524.000000
61021.000000,1855.000000,61495.000000,41519.000000
60986.000000,1851.000000,61482.000000,41551.000000
61000.000000,1858.000000,61475.000000,41526.000000
61006.000000,1860.000000,61494.000000,41534.000000
61020.000000,1842.000000,61471.000000,41503.000000
61003.000000,1844.000000,61488.000000,41553.000000
60972.000000,1806.000000,61492.000000,41513.000000
60979.000000,1831.000000,61467.000000,41491.000000
60960.000000,1821.000000,61478.000000,41517.000000
60957.000000,1800.000000,61466.000000,41515.000000
60944.000000,1812.000000,61410.000000,41496.000000
60942.000000,1813.000000,61428.000000,41478.000000
60928.000000,1787.000000,61439.000000,41476.000000
60949.000000,1761.000000,61427.000000,41472.000000
60896.000000,1787.000000,61414.000000,41457.000000
60919.000000,1770.000000,61409.000000,41499.000000
60889.000000,1756.000000,61437.000000,41476.000000
60878.000000,1765.000000,61397.000000,41492.000000
60880.000000,1753.000000,61377.000000,41460.000000
60877.000000,1751.000000,61413.000000,41490.000000
60893.000000,1708.000000,61410.000000,41442.000000
60873.000000,1765.000000,61427.000000,41499.000000
60865.000000,1763.000000,61398.000000,41464.000000
60887.000000,1712.000000,61393.000000,41483.000000
60915.000000,1718.000000,61396.000000,41455.000000
60910.000000,1796.000000,61423.000000,41475.000000
60871.000000,1739.000000,61411.000000,41456.000000
60903.000000,1734.000000,61429.000000,41492.000000
60849.000000,1749.000000,61434.000000,41491.000000
60870.000000,1720.000000,61399.000000,41439.000000
60923.000000,1736.000000,61472.000000,41487.000000
60869.000000,1714.000000,61435.000000,41468.000000
60896.000000,1729.000000,61469.000000,41506.000000
60944.000000,1793.000000,61476.000000,41463.000000
60910.000000,1756.000000,61491.000000,41492.000000
60929.000000,1769.000000,61509.000000,41469.000000
60924.000000,1769.000000,61514.000000,41490.000000
60943.000000,1746.000000,61513.000000,41505.000000
60958.000000,1774.000000,61547.000000,41481.000000
60935.000000,1770.000000,61567.000000,41489.000000
60973.000000,1800.000000,61573.000000,41544.000000
60979.000000,1800.000000,61570.000000,41522.000000
61019.000000,1818.000000,61607.000000,41537.000000
61044.000000,1833.000000,61632.000000,41530.000000
61036.000000,1836.000000,61647.000000,41533.000000
61057.000000,1850.000000,61647.000000,41569.000000
61081.000000,1855.000000,61679.000000,41594.000000
61073.000000,1899.000000,61671.000000,41589.000000
61087.000000,1857.000000,61684.000000,41544.000000
61090.000000,1912.000000,61689.000000,41580.000000
61102.000000,1907.000000,61678.000000,41580.000000
61131.000000,1950.000000,61719.000000,41589.000000
61119.000000,1953.000000,61701.000000,41600.000000
61154.000000,1967.000000,61729.000000,41613.000000
61163.000000,1961.000000,61682.000000,41617.000000
61169.000000,1978.000000,61696.000000,41629.000000
61198.000000,1980.000000,61693.000000,41623.000000
61184.000000,1964.000000,61718.000000,41619.000000
61173.000000,1979.000000,61711.000000,41653.000000
61176.000000,2009.000000,61696.000000,41628.000000
61188.000000,1977.000000,61717.000000,41641.000000
61170.000000,2006.000000,61683.000000,41622.000000
61167.000000,1998.000000,61677.000000,41632.000000
61206.000000,1972.000000,61710.000000,41597.000000
61182.000000,1964.000000,61657.000000,41638.000000
61172.000000,1963.000000,61696.000000,41622.000000
61164.000000,2007.000000,61646.000000,41628.000000
61192.000000,1971.000000,61694.000000,41626.000000
61158.000000,1993.000000,61669.000000,41638.000000
61172.000000,1974.000000,61680.000000,41601.000000
61182.000000,1965.000000,61708.000000,41620.000000
61159.000000,1979.000000,61699.000000,41648.000000
61170.000000,1994.000000,61687.000000,41615.000000
61179.000000,1966.000000,61655.000000,41647.000000
61175.000000,1985.000000,61680.000000,41606.000000
61201.000000,1963.000000,61668.000000,41583.000000
61161.000000,1992.000000,61669.000000,41594.000000
61188.000000,1952.000000,61668.000000,41634.000000
61172.000000,1991.000000,61661.000000,41587.000000
61177.000000,1960.000000,61679.000000,41631.000000
61199.000000,1969.000000,61690.000000,41615.000000
61165.000000,1966.000000,61704.000000,41596.000000
61140.000000,1977.000000,61686.000000,41617.000000
61155.000000,1997.000000,61665.000000,41606.000000
61146.000000,1988.000000,61648.000000,41581.000000
61160.000000,1965.000000,61677.000000,41610.000000
61176.000000,1959.000000,61675.000000,41597.000000
61150.000000,2022.000000,61669.000000,41633.000000
61173.000000,1996.000000,61677.000000,41591.000000
61183.000000,1985.000000,61657.000000,41608.000000
61174.000000,1946.000000,61666.000000,41577.000000
61158.000000,1942.000000,61644.000000,41594.000000
61168.000000,1944.000000,61648.000000,41576.000000
61137.000000,1961.000000,61634.000000,41605.000000
61158.000000,1949.000000,61656.000000,41593.000000
61144.000000,1966.000000,61640.000000,41589.000000
61156.000000,1964.000000,61628.000000,41579.000000
61174.000000,1943.000000,61659.000000,41609.000000
61143.000000,1955.000000,61625.000000,41580.000000
61141.000000,1948.000000,61607.000000,41601.000000
61147.000000,1951.000000,61658.000000,41608.000000
61141.000000,1942.000000,61639.000000,41577.000000
61142.000000,1940.000000,61619.000000,41593.000000
61150.000000,1961.000000,61620.000000,41605.000000
61130.000000,1952.000000,61615.000000,41573.000000
61111.000000,1924.000000,61600.000000,41592.000000
61121.000000,1931.000000,61597.000000,41583.000000
61125.000000,1960.000000,61590.000000,41587.000000
61114.000000,1922.000000,61610.000000,41574.000000
61122.000000,1908.000000,61573.000000,41591.000000
61118.000000,1920.000000,61600.000000,41586.000000
61123.000000,1917.000000,61611.000000,41579.000000
61096.000000,1909.000000,61589.000000,41553.000000
61095.000000,1941.000000,61584.000000,41566.000000
61086.000000,1929.000000,61594.000000,41588.000000
61095.000000,1921.000000,61597.000000,41557.000000
61089.000000,1909.000000,61587.000000,41579.000000
61099.000000,1929.000000,61576.000000,41539.000000
61061.000000,1885.000000,61577.000000,41564.000000
61100.000000,1889.000000,61582.000000,41592.000000
61101.000000,1857.000000,61569.000000,41572.000000
61086.000000,1904.000000,61578.000000,41572.000000
61063.000000,1896.000000,61557.000000,41544.000000
61063.000000,1902.000000,61550.000000,41560.000000
61103.000000,1918.000000,61551.000000,41541.000000
61054.000000,1913.000000,61573.000000,41561.000000
61077.000000,1889.000000,61542.000000,41562.000000
61052.000000,1892.000000,61543.000000,41565.000000
61068.000000,1889.000000,61565.000000,41539.000000
61044.000000,1889.000000,61526.000000,41556.000000
61042.000000,1921.000000,61539.000000,41543.000000
61045.000000,1890.000000,61549.000000,41559.000000
61039.000000,1883.000000,61528.000000,41553.000000
61008.000000,1871.000000,61543.000000,41566.000000
61025.000000,1880.000000,61541.000000,41544.000000
61045.000000,1876.000000,61535.000000,41529.000000
61060.000000,1891.000000,61548.000000,41539.000000
61051.000000,1880.000000,61529.000000,41556.000000
61023.000000,1865.000000,61529.000000,41532.000000
61023.000000,1859.000000,61508.000000,41525.000000
61030.000000,1843.000000,61540.000000,41539.000000
61014.000000,1857.000000,61510.000000,41551.000000
61033.000000,1861.000000,61495.000000,41547.000000
61037.000000,1836.000000,61471.000000,41521.000000
61046.000000,1843.000000,61518.000000,41516.000000
61002.000000,1821.000000,61446.000000,41493.000000
60985.000000,1821.000000,61478.000000,41533.000000
60955.000000,1856.000000,61472.000000,41520.000000
61001.000000,1831.000000,61454.000000,41523.000000
60974.000000,1846.000000,61455.000000,41530.000000
61011.000000,1791.000000,61442.000000,41518.000000
60983.000000,1792.000000,61471.000000,41505.000000
60979.000000,1798.000000,61410.000000,41529.000000
60999.000000,1810.000000,61383.000000,41495.000000
60958.000000,1786.000000,61407.000000,41474.000000
60971.000000,1776.000000,61382.000000,41492.000000
60946.000000,1804.000000,61397.000000,41514.000000
60936.000000,1804.000000,61408.000000,41493.000000
60947.000000,1777.000000,61390.000000,41481.000000
60907.000000,1761.000000,61379.000000,41486.000000
60923.000000,1790.000000,61392.000000,41472.000000
60924.000000,1746.000000,61400.000000,41462.000000
60911.000000,1757.000000,61390.000000,41476.000000
60918.000000,1769.000000,61387.000000,41466.000000
60905.000000,1733.000000,61386.000000,41458.000000
60927.000000,1739.000000,61374.000000,41473.000000
60914.000000,1754.000000,61380.000000,41454.000000
60896.000000,1745.000000,61407.000000,41480.000000
60909.000000,1731.000000,61396.000000,41456.000000
60910.000000,1773.000000,61444.000000,41479.000000
60924.000000,1744.000000,61435.000000,41461.000000
60915.000000,1760.000000,61392.000000,41452.000000
60901.000000,1735.000000,61409.000000,41442.000000
60933.000000,1731.000000,61427.000000,41449.000000
60923.000000,1737.000000,61446.000000,41468.000000
60910.000000,1754.000000,61436.000000,41486.000000
60937.000000,1754.000000,61467.000000,41467.000000
60901.000000,1768.000000,61466.000000,41463.000000
60930.000000,1753.000000,61505.000000,41469.000000
60947.000000,1744.000000,61524.000000,41469.000000
60936.000000,1768.000000,61543.000000,41478.000000
60930.000000,1771.000000,61582.000000,41467.000000
61017.000000,1790.000000,61577.000000,41520.000000
60988.000000,1807.000000,61604.000000,41502.000000
61023.000000,1827.000000,61618.000000,41516.000000
61048.000000,1860.000000,61596.000000,41507.000000
61046.000000,1876.000000,61640.000000,41525.000000
61082.000000,1874.000000,61651.000000,41535.000000
61091.000000,1871.000000,61675.000000,41558.000000
61113.000000,1886.000000,61680.000000,41571.000000
61120.000000,1939.000000,61667.000000,41580.000000
61145.000000,1939.000000,61703.000000,41551.000000
61131.000000,1953.000000,61736.000000,41582.000000
61170.000000,1964.000000,61717.000000,41575.000000
61176.000000,2001.000000,61736.000000,41617.000000
61200.000000,1981.000000,61719.000000,41629.000000
61187.000000,1970.000000,61711.000000,41605.000000
61193.000000,1999.000000,61716.000000,41629.000000
61217.000000,2004.000000,61751.000000,41609.000000
61204.000000,2005.000000,61719.000000,41630.000000
61220.000000,2022.000000,61711.000000,41645.000000
61239.000000,2014.000000,61718.000000,41622.000000
61235.000000,2024.000000,61719.000000,41646.000000
61244.000000,2027.000000,61716.000000,41620.000000
61240.000000,1999.000000,61728.000000,41639.000000
61222.000000,2024.000000,61726.000000,41621.000000
61220.000000,2006.000000,61717.000000,41622.000000
61227.000000,2027.000000,61755.000000,41641.000000
61239.000000,2030.000000,61714.000000,41655.000000
61233.000000,2044.000000,61732.000000,41651.000000
61238.000000,2030.000000,61715.000000,41637.000000
61195.000000,2019.000000,61684.000000,41613.000000
61226.000000,2033.000000,61691.000000,41637.000000
61241.000000,2034.000000,61709.000000,41663.000000
61230.000000,2018.000000,61710.000000,41637.000000
61211.000000,2051.000000,61706.000000,41642.000000
61232.000000,2020.000000,61680.000000,41639.000000
61207.000000,2020.000000,61693.000000,41631.000000
61239.000000,2026.000000,61725.000000,41619.000000
61232.000000,2019.000000,61704.000000,41665.000000
61238.000000,2014.000000,61678.000000,41639.000000
61205.000000,2008.000000,61681.000000,41624.000000
61214.000000,1997.000000,61689.000000,41614.000000
61201.000000,1982.000000,61700.000000,41627.000000
61208.000000,2033.000000,61697.000000,41617.000000
61195.000000,2018.000000,61700.000000,41622.000000
61209.000000,2021.000000,61692.000000,41633.000000
61200.000000,2003.000000,61647.000000,41595.000000
61189.000000,2011.000000,61660.000000,41615.000000
61235.000000,2014.000000,61685.000000,41652.000000
61207.000000,1989.000000,61689.000000,41605.000000
61217.000000,2021.000000,61665.000000,41624.000000
61201.000000,2001.000000,61654.000000,41617.000000
61166.000000,1952.000000,61659.000000,41619.000000
61184.000000,1988.000000,61649.000000,41604.000000
61176.000000,1976.000000,61681.000000,41609.000000
61204.000000,1988.000000,61678.000000,41594.000000
61188.000000,1983.000000,61666.000000,41620.000000
61196.000000,1995.000000,61673.000000,41627.000000
61201.000000,1999.000000,61666.000000,41578.000000
61162.000000,1983.000000,61673.000000,41576.000000
61176.000000,1987.000000,61632.000000,41609.000000
61164.000000,1975.000000,61644.000000,41598.000000
61166.000000,1995.000000,61677.000000,41596.000000
61195.000000,1984.000000,61645.000000,41630.000000
61172.000000,1959.000000,61629.000000,41575.000000
61171.000000,1972.000000,61674.000000,41591.000000
61150.000000,1952.000000,61647.000000,41602.000000
61166.000000,1964.000000,61626.000000,41595.000000
61132.000000,1959.000000,61622.000000,41571.000000
61161.000000,1962.000000,61614.000000,41584.000000
61121.000000,1963.000000,61601.000000,41577.000000
61125.000000,1962.000000,61595.000000,41573.000000
61128.000000,1969.000000,61610.000000,41589.000000
61127.000000,1948.000000,61609.000000,41564.000000
61097.000000,1948.000000,61622.000000,41567.000000
61125.000000,1972.000000,61619.000000,41558.000000
61117.000000,1960.000000,61627.000000,41585.000000
61110.000000,1926.000000,61565.000000,41603.000000
61116.000000,1908.000000,61587.000000,41591.000000
61098.000000,1926.000000,61599.000000,41559.000000
61104.000000,1931.000000,61587.000000,41575.000000
61094.000000,1942.000000,61574.000000,41581.000000
61122.000000,1917.000000,61568.000000,41548.000000
61062.000000,1950.000000,61578.000000,41543.000000
61092.000000,1928.000000,61555.000000,41526.000000
61091.000000,1909.000000,61597.000000,41563.000000
61070.000000,1916.000000,61597.000000,41539.000000
61069.000000,1908.000000,61563.000000,41568.000000
61094.000000,1922.000000,61600.000000,41555.000000
61060.000000,1955.000000,61579.000000,41562.000000
61060.000000,1907.000000,61514.000000,41538.000000
61091.000000,1921.000000,61551.000000,41550.000000
61056.000000,1930.000000,61539.000000,41544.000000
61085.000000,1927.000000,61548.000000,41548.000000
61060.000000,1897.000000,61599.000000,41555.000000
61063.000000,1909.000000,61562.000000,41537.000000
61059.000000,1906.000000,61545.000000,41539.000000
61036.000000,1875.000000,61555.000000,41534.000000
61057.000000,1896.000000,61505.000000,41528.000000
61030.000000,1888.000000,61524.000000,41513.000000
61057.000000,1878.000000,61524.000000,41562.000000
61048.000000,1893.000000,61526.000000,41548.000000
61035.000000,1876.000000,61510.000000,41543.000000
61032.000000,1893.000000,61508.000000,41527.000000
61035.000000,1868.000000,61522.000000,41544.000000
61013.000000,1878.000000,61511.000000,41512.000000
61035.000000,1863.000000,61517.000000,41524.000000
61028.000000,1850.000000,61495.000000,41510.000000
61027.000000,1907.000000,61491.000000,41540.000000
61054.000000,1884.000000,61479.000000,41518.000000
61024.000000,1869.000000,61463.000000,41499.000000
61025.000000,1848.000000,61457.000000,41519.000000
61013.000000,1863.000000,61441.000000,41513.000000
60997.000000,1837.000000,61429.000000,41508.000000
61003.000000,1876.000000,61421.000000,41506.000000
60989.000000,1828.000000,61425.000000,41496.000000
60983.000000,1818.000000,61417.000000,41477.000000
60993.000000,1822.000000,61408.000000,41480.000000
60973.000000,1802.000000,61380.000000,41473.000000
60937.000000,1821.000000,61384.000000,41483.000000
60938.000000,1802.000000,61396.000000,41479.000000
60947.000000,1795.000000,61402.000000,41484.000000
60918.000000,1790.000000,61384.000000,41479.000000
60920.000000,1766.000000,61375.000000,41445.000000
60911.000000,1749.000000,61372.000000,41442.000000
60912.000000,1800.000000,61394.000000,41467.000000
60915.000000,1749.000000,61398.000000,41434.000000
60920.000000,1749.000000,61360.000000,41484.000000
60910.000000,1766.000000,61367.000000,41477.000000
60882.000000,1744.000000,61368.000000,41438.000000
60889.000000,1745.000000,61391.000000,41429.000000
60889.000000,1767.000000,61400.000000,41460.000000
60902.000000,1769.000000,61402.000000,41431.000000
60904.000000,1772.000000,61369.000000,41448.000000
60873.000000,1756.000000,61408.000000,41446.000000
60893.000000,1735.000000,61404.000000,41437.000000
60892.000000,1776.000000,61430.000000,41468.000000
60910.000000,1765.000000,61453.000000,41444.000000
60896.000000,1781.000000,61461.000000,41458.000000
60895.000000,1770.000000,61451.000000,41475.000000
60909.000000,1748.000000,61473.000000,41449.000000
60929.000000,1760.000000,61470.000000,41465.000000
60957.000000,1779.000000,61506.000000,41463.000000
60956.000000,1818.000000,61539.000000,41501.000000
60947.000000,1809.000000,61543.000000,41504.000000
60929.000000,1802.000000,61584.000000,41464.000000
60984.000000,1842.000000,61601.000000,41513.000000
60988.000000,1824.000000,61595.000000,41486.000000
61042.000000,1846.000000,61586.000000,41500.000000
61016.000000,1876.000000,61608.000000,41532.000000
61033.000000,1882.000000,61648.000000,41539.000000
61064.000000,1909.000000,61656.000000,41552.000000
61067.000000,1878.000000,61659.000000,41538.000000
61096.000000,1934.000000,61703.000000,41562.000000
61120.000000,1926.000000,61673.000000,41557.000000
61139.000000,1973.000000,61722.000000,41590.000000
61161.000000,1952.000000,61704.000000,41569.000000
61144.000000,1972.000000,61730.000000,41602.000000
61166.000000,1979.000000,61737.000000,41592.000000
61200.000000,2013.000000,61727.000000,41632.000000
61199.000000,2003.000000,61749.000000,41624.000000
61235.000000,2023.000000,61736.000000,41622.000000
61238.000000,2018.000000,61728.000000,41649.000000
61235.000000,2042.000000,61714.000000,41626.000000
61228.000000,2044.000000,61740.000000,41602.000000
61236.000000,2035.000000,61723.000000,41647.000000
61240.000000,2059.000000,61747.000000,41617.000000
61231.000000,2046.000000,61740.000000,41641.000000
61227.000000,2057.000000,61737.000000,41648.000000
61249.000000,2051.000000,61750.000000,41625.000000
61224.000000,2020.000000,61737.000000,41635.000000
61233.000000,2058.000000,61702.000000,41635.000000
61243.000000,2072.000000,61711.000000,41634.000000
61229.000000,2033.000000,61726.000000,41642.000000
61258.000000,2055.000000,61707.000000,41644.000000
61236.000000,2039.000000,61728.000000,41618.000000
61214.000000,2048.000000,61732.000000,41615.000000
61205.000000,2045.000000,61714.000000,41632.000000
61226.000000,2042.000000,61751.000000,41637.000000
61225.000000,2075.000000,61709.000000,41640.000000
61191.000000,2050.000000,61714.000000,41610.000000
61260.000000,2015.000000,61742.000000,41599.000000
61224.000000,2046.000000,61737.000000,41609.000000
61227.000000,2064.000000,61706.000000,41626.000000
61193.000000,2048.000000,61713.000000,41646.000000
61207.000000,2042.000000,61710.000000,41623.000000
61186.000000,2045.000000,61713.000000,41618.000000
61215.000000,2025.000000,61695.000000,41587.000000
61230.000000,2012.000000,61692.000000,41614.000000
61251.000000,2055.000000,61723.000000,41634.000000
61223.000000,2051.000000,61703.000000,41630.000000
61209.000000,2037.000000,61697.000000,41638.000000
61195.000000,2016.000000,61701.000000,41646.000000
61198.000000,2036.000000,61705.000000,41616.000000
61206.000000,2006.000000,61707.000000,41610.000000
61207.000000,2009.000000,61708.000000,41617.000000
61216.000000,2018.000000,61698.000000,41633.000000
61223.000000,2071.000000,61725.000000,41630.000000
61186.000000,2045.000000,61687.000000,41601.000000
61172.000000,2052.000000,61703.000000,41631.000000
61193.000000,2023.000000,61673.000000,41586.000000
61194.000000,2019.000000,61700.000000,41594.000000
61199.000000,2034.000000,61708.000000,41604.000000
61201.000000,2013.000000,61686.000000,41596.000000
61178.000000,2032.000000,61675.000000,41620.000000
61200.000000,2056.000000,61689.000000,41632.000000
61185.000000,2034.000000,61682.000000,41606.000000
61186.000000,2026.000000,61693.000000,41605.000000
61201.000000,2017.000000,61669.000000,41610.000000
61172.000000,2014.000000,61665.000000,41604.000000
61171.000000,1994.000000,61704.000000,41583.000000
61169.000000,2007.000000,61676.000000,41613.000000
61182.000000,2025.000000,61675.000000,41617.000000
61150.000000,1989.000000,61662.000000,41621.000000
61148.000000,1982.000000,61639.000000,41607.000000
61143.000000,2026.000000,61664.000000,41590.000000
61161.000000,2001.000000,61648.000000,41591.000000
61130.000000,1992.000000,61637.000000,41597.000000
61145.000000,2023.000000,61637.000000,41580.000000
61156.000000,1994.000000,61624.000000,41585.000000
61149.000000,1991.000000,61645.000000,41593.000000
61136.000000,2004.000000,61619.000000,41577.000000
61155.000000,1987.000000,61636.000000,41578.000000
61109.000000,1980.000000,61603.000000,41570.000000
61115.000000,1967.000000,61627.000000,41561.000000
61137.000000,1958.000000,61609.000000,41553.000000
61122.000000,2005.000000,61613.000000,41579.000000
61116.000000,1970.000000,61627.000000,41545.000000
61114.000000,1999.000000,61577.000000,41582.000000
61115.000000,1971.000000,61595.000000,41562.000000
61127.000000,1961.000000,61597.000000,41549.000000
61094.000000,1963.000000,61606.000000,41540.000000
61126.000000,1966.000000,61572.000000,41570.000000
61109.000000,1949.000000,61579.000000,41573.000000
61079.000000,1944.000000,61572.000000,41540.000000
61081.000000,1973.000000,61571.000000,41563.000000
61102.000000,1941.000000,61597.000000,41553.000000
61074.000000,1911.000000,61576.000000,41533.000000
61068.000000,1940.000000,61582.000000,41553.000000
61101.000000,1960.000000,61596.000000,41568.000000
61076.000000,1969.000000,61568.000000,41561.000000
61077.000000,1916.000000,61549.000000,41534.000000
61076.000000,1935.000000,61583.000000,41568.000000
61087.000000,1950.000000,61569.000000,41544.000000
61077.000000,1936.000000,61550.000000,41546.000000
61085.000000,1930.000000,61587.000000,41564.000000
61087.000000,1960.000000,61578.000000,41553.000000
61060.000000,1916.000000,61549.000000,41515.000000
61072.000000,1954.000000,61525.000000,41549.000000
61086.000000,1937.000000,61510.000000,41518.000000
61051.000000,1949.000000,61518.000000,41524.000000
61107.000000,1916.000000,61508.000000,41533.000000
61048.000000,1937.000000,61537.000000,41525.000000
61061.000000,1944.000000,61512.000000,41521.000000
61053.000000,1920.000000,61477.000000,41563.000000
61069.000000,1929.000000,61477.000000,41550.000000
61009.000000,1889.000000,61502.000000,41507.000000
61045.000000,1898.000000,61469.000000,41546.000000
61039.000000,1881.000000,61475.000000,41516.000000
61003.000000,1895.000000,61469.000000,41513.000000
61022.000000,1860.000000,61438.000000,41502.000000
61012.000000,1856.000000,61413.000000,41502.000000
61010.000000,1877.000000,61430.000000,41490.000000
60985.000000,1859.000000,61413.000000,41452.000000
60981.000000,1822.000000,61397.000000,41491.000000
60938.000000,1823.000000,61414.000000,41501.000000
60994.000000,1824.000000,61414.000000,41480.000000
60920.000000,1784.000000,61401.000000,41474.000000
60934.000000,1787.000000,61389.000000,41477.000000
60939.000000,1811.000000,61387.000000,41469.000000
60905.000000,1806.000000,61400.000000,41490.000000
60919.000000,1814.000000,61391.000000,41466.000000
60926.000000,1791.000000,61400.000000,41473.000000
60915.000000,1752.000000,61413.000000,41464.000000
60910.000000,1780.000000,61393.000000,41460.000000
60901.000000,1775.000000,61389.000000,41475.000000
60950.000000,1795.000000,61377.000000,41459.000000
60920.000000,1782.000000,61429.000000,41465.000000
60920.000000,1760.000000,61413.000000,41464.000000
60915.000000,1786.000000,61445.000000,41470.000000
60937.000000,1772.000000,61427.000000,41462.000000
60935.000000,1801.000000,61437.000000,41470.000000
60939.000000,1767.000000,61467.000000,41464.000000
60955.000000,1807.000000,61487.000000,41456.000000
60955.000000,1804.000000,61455.000000,41444.000000
60940.000000,1797.000000,61489.000000,41454.000000
60935.000000,1804.000000,61492.000000,41496.000000
60943.000000,1837.000000,61528.000000,41493.000000
60970.000000,1818.000000,61566.000000,41477.000000
61026.000000,1836.000000,61560.000000,41484.000000
61021.000000,1844.000000,61592.000000,41495.000000
61030.000000,1879.000000,61632.000000,41533.000000
61033.000000,1835.000000,61645.000000,41499.000000
61065.000000,1914.000000,61655.000000,41531.000000
61063.000000,1911.000000,61671.000000,41534.000000
61103.000000,1933.000000,61705.000000,41550.000000
61129.000000,1938.000000,61725.000000,41578.000000
61160.000000,1966.000000,61737.000000,41576.000000
61167.000000,1980.000000,61756.000000,41605.000000
61209.000000,2013.000000,61759.000000,41572.000000
61184.000000,2013.000000,61748.000000,41584.000000
61220.000000,2026.000000,61823.000000,41610.000000
61193.000000,2032.000000,61781.000000,41624.000000
61236.000000,2030.000000,61789.000000,41604.000000
61242.000000,2071.000000,61786.000000,41628.000000
61265.000000,2065.000000,61788.000000,41657.000000
61287.000000,2114.000000,61841.000000,41645.000000
61298.000000,2125.000000,61804.000000,41653.000000
61261.000000,2102.000000,61797.000000,41663.000000
61294.000000,2105.000000,61788.000000,41659.000000
61302.000000,2118.000000,61783.000000,41677.000000
61309.000000,2107.000000,61799.000000,41624.000000
61303.000000,2113.000000,61785.000000,41650.000000
61315.000000,2114.000000,61793.000000,41667.000000
61320.000000,2133.000000,61805.000000,41629.000000
61307.000000,2104.000000,61774.000000,41668.000000
61318.000000,2110.000000,61793.000000,41661.000000
61318.000000,2118.000000,61781.000000,41687.000000
61294.000000,2099.000000,61793.000000,41669.000000
61309.000000,2103.000000,61804.000000,41672.000000
61303.000000,2092.000000,61782.000000,41656.000000
61270.000000,2112.000000,61798.000000,41680.000000
61286.000000,2123.000000,61759.000000,41641.000000
61303.000000,2112.000000,61769.000000,41661.000000
61302.000000,2104.000000,61768.000000,41640.000000
61319.000000,2106.000000,61793.000000,41649.000000
61291.000000,2113.000000,61745.000000,41661.000000
61276.000000,2108.000000,61790.000000,41642.000000
61272.000000,2108.000000,61743.000000,41631.000000
61291.000000,2099.000000,61776.000000,41637.000000
61273.000000,2088.000000,61748.000000,41645.000000
61281.000000,2090.000000,61746.000000,41637.000000
61281.000000,2109.000000,61790.000000,41669.000000
61305.000000,2112.000000,61776.000000,41639.000000
61295.000000,2100.000000,61779.000000,41643.000000
61292.000000,2106.000000,61747.000000,41640.000000
61259.000000,2094.000000,61761.000000,41647.000000
61264.000000,2113.000000,61744.000000,41637.000000
61298.000000,2113.000000,61739.000000,41637.000000
61283.000000,2127.000000,61740.000000,41668.000000
61309.000000,2099.000000,61748.000000,41653.000000
61258.000000,2104.000000,61744.000000,41642.000000
61273.000000,2067.000000,61752.000000,41644.000000
61280.000000,2109.000000,61735.000000,41644.000000
61238.000000,2114.000000,61746.000000,41636.000000
61259.000000,2068.000000,61716.000000,41615.000000
61269.000000,2070.000000,61736.000000,41617.000000
61256.000000,2101.000000,61706.000000,41625.000000
61244.000000,2080.000000,61733.000000,41615.000000
61266.000000,2083.000000,61713.000000,41623.000000
61248.000000,2095.000000,61735.000000,41659.000000
61263.000000,2079.000000,61725.000000,41630.000000
61253.000000,2070.000000,61699.000000,41621.000000
61229.000000,2067.000000,61721.000000,41610.000000
61227.000000,2076.000000,61694.000000,41641.000000
61246.000000,2051.000000,61696.000000,41628.000000
61237.000000,2074.000000,61698.000000,41623.000000
61227.000000,2075.000000,61664.000000,41607.000000
61211.000000,2058.000000,61688.000000,41609.000000
61199.000000,2044.000000,61673.000000,41600.000000
61231.000000,2051.000000,61701.000000,41629.000000
61220.000000,2036.000000,61681.000000,41601.000000
61221.000000,2070.000000,61686.000000,41599.000000
61234.000000,2033.000000,61668.000000,41596.000000
61221.000000,2047.000000,61668.000000,41618.000000
61228.000000,2070.000000,61663.000000,41604.000000
61209.000000,2032.000000,61674.000000,41592.000000
61208.000000,2027.000000,61639.000000,41584.000000
61196.000000,2012.000000,61618.000000,41585.000000
61206.000000,2024.000000,61641.000000,41593.000000
61225.000000,2006.000000,61648.000000,41631.000000
61181.000000,2039.000000,61663.000000,41579.000000
61183.000000,2002.000000,61605.000000,41600.000000
61187.000000,2002.000000,61614.000000,41575.000000
61175.000000,1996.000000,61629.000000,41582.000000
61178.000000,2019.000000,61631.000000,41580.000000
61166.000000,2010.000000,61631.000000,41573.000000
61177.000000,2003.000000,61596.000000,41566.000000
61106.000000,1983.000000,61602.000000,41569.000000
61147.000000,1986.000000,61586.000000,41570.000000
61159.000000,1989.000000,61590.000000,41574.000000
61172.000000,1984.000000,61617.000000,41573.000000
61143.000000,1970.000000,61585.000000,41572.000000
61144.000000,1954.000000,61602.000000,41565.000000
61153.000000,1975.000000,61578.000000,41579.000000
61145.000000,1944.000000,61601.000000,41556.000000
61129.000000,1976.000000,61607.000000,41568.000000
61152.000000,1955.000000,61602.000000,41545.000000
61142.000000,1987.000000,61576.000000,41557.000000
61122.000000,1959.000000,61563.000000,41548.000000
61109.000000,1976.000000,61552.000000,41538.000000
61117.000000,1948.000000,61559.000000,41543.000000
61119.000000,1940.000000,61562.000000,41529.000000
61125.000000,1959.000000,61570.000000,41563.000000
61104.000000,1946.000000,61546.000000,41538.000000
61112.000000,1962.000000,61557.000000,41560.000000
61112.000000,1915.000000,61549.000000,41541.000000
61105.000000,1955.000000,61517.000000,41532.000000
61083.000000,1979.000000,61510.000000,41525.000000
61107.000000,1948.000000,61520.000000,41528.000000
61075.000000,1938.000000,61473.000000,41539.000000
61121.000000,1928.000000,61483.000000,41550.000000
61110.000000,1946.000000,61501.000000,41539.000000
61071.000000,1916.000000,61476.000000,41512.000000
61094.000000,1881.000000,61442.000000,41498.000000
61064.000000,1889.000000,61457.000000,41521.000000
61010.000000,1910.000000,61444.000000,41486.000000
61000.000000,1879.000000,61439.000000,41489.000000
61001.000000,1896.000000,61439.000000,41504.000000
61004.000000,1845.000000,61429.000000,41482.000000
60994.000000,1857.000000,61427.000000,41468.000000
61000.000000,1860.000000,61404.000000,41480.000000
60992.000000,1852.000000,61414.000000,41479.000000
60995.000000,1846.000000,61433.000000,41472.000000
61002.000000,1838.000000,61402.000000,41455.000000
60997.000000,1827.000000,61417.000000,41485.000000
60951.000000,1833.000000,61432.000000,41464.000000
60945.000000,1822.000000,61428.000000,41467.000000
60982.000000,1856.000000,61436.000000,41479.000000
60989.000000,1851.000000,61411.000000,41455.000000
60944.000000,1829.000000,61449.000000,41469.000000
60957.000000,1802.000000,61422.000000,41475.000000
60950.000000,1802.000000,61418.000000,41469.000000
60944.000000,1818.000000,61433.000000,41451.000000
60992.000000,1806.000000,61437.000000,41488.000000
60987.000000,1817.000000,61449.000000,41475.000000
60984.000000,1845.000000,61456.000000,41486.000000
60951.000000,1818.000000,61487.000000,41472.000000
61004.000000,1824.000000,61522.000000,41491.000000
60998.000000,1838.000000,61532.000000,41480.000000
60985.000000,1842.000000,61520.000000,41483.000000
61003.000000,1860.000000,61563.000000,41493.000000
61013.000000,1871.000000,61610.000000,41476.000000
61046.000000,1885.000000,61614.000000,41533.000000
61036.000000,1874.000000,61635.000000,41501.000000
61071.000000,1905.000000,61629.000000,41517.000000
61107.000000,1928.000000,61648.000000,41552.000000
61113.000000,1938.000000,61666.000000,41544.000000
61118.000000,1949.000000,61684.000000,41579.000000
61142.000000,1976.000000,61718.000000,41546.000000
61151.000000,1972.000000,61746.000000,41547.000000
61168.000000,2004.000000,61730.000000,41574.000000
61206.000000,2027.000000,61743.000000,41568.000000
61188.000000,2022.000000,61785.000000,41578.000000
61216.000000,2058.000000,61788.000000,41615.000000
61221.000000,2071.000000,61781.000000,41610.000000
61264.000000,2074.000000,61777.000000,41613.000000
61260.000000,2092.000000,61774.000000,41607.000000
61300.000000,2127.000000,61782.000000,41630.000000
61306.000000,2112.000000,61789.000000,41624.000000
61293.000000,2111.000000,61768.000000,41618.000000
61323.000000,2119.000000,61797.000000,41638.000000
61309.000000,2123.000000,61790.000000,41644.000000
61315.000000,2123.000000,61784.000000,41659.000000
61298.000000,2148.000000,61794.000000,41633.000000
61316.000000,2151.000000,61784.000000,41642.000000
61309.000000,2155.000000,61769.000000,41636.000000
61301.000000,2141.000000,61779.000000,41648.000000
61319.000000,2142.000000,61790.000000,41680.000000
61352.000000,2134.000000,61770.000000,41659.000000
61295.000000,2161.000000,61759.000000,41632.000000
61312.000000,2131.000000,61781.000000,41656.000000
61312.000000,2145.000000,61760.000000,41631.000000
61346.000000,2142.000000,61725.000000,41657.000000
61322.000000,2136.000000,61785.000000,41654.000000
61330.000000,2141.000000,61738.000000,41639.000000
61311.000000,2148.000000,61760.000000,41644.000000
61343.000000,2185.000000,61793.000000,41636.000000
61266.000000,2148.000000,61749.000000,41640.000000
61311.000000,2148.000000,61746.000000,41634.000000
61330.000000,2132.000000,61763.000000,41622.000000
61314.000000,2135.000000,61751.000000,41636.000000
61254.000000,2130.000000,61749.000000,41619.000000
61312.000000,2091.000000,61761.000000,41670.000000
61288.000000,2136.000000,61769.000000,41625.000000
61265.000000,2139.000000,61739.000000,41623.000000
61316.000000,2137.000000,61758.000000,41613.000000
61280.000000,2159.000000,61753.000000,41634.000000
61262.000000,2146.000000,61750.000000,41629.000000
61307.000000,2127.000000,61731.000000,41638.000000
61291.000000,2138.000000,61736.000000,41658.000000
61307.000000,2112.000000,61738.000000,41644.000000
61260.000000,2106.000000,61773.000000,41637.000000
61273.000000,2132.000000,61737.000000,41642.000000
61297.000000,2109.000000,61740.000000,41626.000000
61279.000000,2117.000000,61734.000000,41631.000000
61307.000000,2131.000000,61757.000000,41628.000000
61269.000000,2115.000000,61751.000000,41612.000000
61268.000000,2158.000000,61732.000000,41636.000000
61285.000000,2146.000000,61728.000000,41629.000000
61269.000000,2144.000000,61766.000000,41595.000000
61262.000000,2118.000000,61708.000000,41605.000000
61242.000000,2096.000000,61710.000000,41633.000000
61256.000000,2101.000000,61708.000000,41603.000000
61249.000000,2101.000000,61723.000000,41598.000000
61261.000000,2076.000000,61728.000000,41615.000000
61239.000000,2096.000000,61699.000000,41572.000000
61250.000000,2113.000000,61708.000000,41615.000000
61230.000000,2078.000000,61715.000000,41614.000000
61224.000000,2116.000000,61696.000000,41595.000000
61242.000000,2079.000000,61683.000000,41619.000000
61234.000000,2084.000000,61687.000000,41612.000000
61256.000000,2079.000000,61692.000000,41603.000000
61233.000000,2077.000000,61711.000000,41613.000000
61235.000000,2125.000000,61685.000000,41617.000000
61236.000000,2101.000000,61715.000000,41619.000000
61218.000000,2078.000000,61659.000000,41613.000000
61233.000000,2080.000000,61682.000000,41600.000000
61236.000000,2074.000000,61689.000000,41593.000000
61210.000000,2097.000000,61697.000000,41586.000000
61203.000000,2074.000000,61679.000000,41598.000000
61223.000000,2097.000000,61657.000000,41598.000000
61226.000000,2096.000000,61678.000000,41607.000000
61235.000000,2080.000000,61650.000000,41584.000000
61175.000000,2071.000000,61674.000000,41573.000000
61196.000000,2105.000000,61665.000000,41569.000000
61210.000000,2048.000000,61629.000000,41575.000000
61210.000000,2071.000000,61631.000000,41567.000000
61184.000000,2047.000000,61671.000000,41557.000000
61159.000000,2058.000000,61664.000000,41542.000000
61184.000000,2058.000000,61633.000000,41559.000000
61152.000000,2059.000000,61693.000000,41556.000000
61146.000000,2047.000000,61612.000000,41576.000000
61150.000000,2055.000000,61635.000000,41541.000000
61169.000000,2032.000000,61641.000000,41571.000000
61176.000000,2052.000000,61660.000000,41532.000000
61159.000000,2054.000000,61642.000000,41567.000000
61150.000000,2039.000000,61646.000000,41578.000000
61192.000000,2088.000000,61648.000000,41576.000000
61166.000000,2049.000000,61634.000000,41561.000000
61140.000000,2042.000000,61641.000000,41546.000000
61139.000000,2052.000000,61641.000000,41563.000000
61147.000000,2052.000000,61616.000000,41565.000000
61145.000000,2043.000000,61621.000000,41534.000000
61131.000000,2034.000000,61631.000000,41546.000000
61132.000000,2019.000000,61610.000000,41576.000000
61167.000000,2062.000000,61613.000000,41573.000000
61170.000000,2023.000000,61625.000000,41571.000000
61153.000000,2013.000000,61594.000000,41542.000000
61132.000000,2033.000000,61593.000000,41542.000000
61135.000000,2038.000000,61596.000000,41545.000000
61123.000000,2011.000000,61567.000000,41531.000000
61136.000000,2012.000000,61556.000000,41551.000000
61118.000000,2043.000000,61592.000000,41549.000000
61112.000000,2024.000000,61551.000000,41552.000000
61099.000000,1991.000000,61531.000000,41533.000000
61088.000000,2006.000000,61519.000000,41553.000000
61103.000000,1996.000000,61523.000000,41540.000000
61092.000000,1984.000000,61517.000000,41537.000000
61089.000000,2008.000000,61515.000000,41537.000000
61071.000000,1977.000000,61490.000000,41527.000000
61070.000000,1977.000000,61501.000000,41544.000000
61045.000000,1944.000000,61475.000000,41512.000000
61025.000000,1910.000000,61490.000000,41491.000000
61031.000000,1935.000000,61486.000000,41511.000000
61009.000000,1931.000000,61473.000000,41525.000000
61020.000000,1916.000000,61478.000000,41515.000000
61004.000000,1920.000000,61495.000000,41485.000000
61002.000000,1919.000000,61483.000000,41478.000000
61005.000000,1895.000000,61473.000000,41516.000000
60999.000000,1888.000000,61482.000000,41490.000000
61000.000000,1923.000000,61475.000000,41489.000000
61000.000000,1914.000000,61496.000000,41521.000000
61006.000000,1908.000000,61483.000000,41505.000000
61009.000000,1937.000000,61511.000000,41491.000000
60988.000000,1911.000000,61476.000000,41481.000000
60994.000000,1893.000000,61525.000000,41471.000000
61024.000000,1914.000000,61520.000000,41493.000000
61034.000000,1940.000000,61530.000000,41486.000000
61022.000000,1906.000000,61535.000000,41488.000000
61028.000000,1897.000000,61570.000000,41502.000000
60987.000000,1938.000000,61609.000000,41474.000000
61025.000000,1929.000000,61579.000000,41517.000000
61039.000000,1942.000000,61617.000000,41506.000000
61047.000000,1953.000000,61619.000000,41529.000000
61070.000000,1943.000000,61646.000000,41495.000000
61065.000000,1983.000000,61684.000000,41518.000000
61103.000000,1991.000000,61686.000000,41542.000000
61121.000000,1994.000000,61717.000000,41538.000000
61132.000000,1999.000000,61728.000000,41534.000000
61141.000000,2058.000000,61749.000000,41585.000000
61168.000000,2028.000000,61776.000000,41565.000000
61167.000000,2082.000000,61787.000000,41610.000000
61190.000000,2099.000000,61802.000000,41618.000000
61205.000000,2086.000000,61823.000000,41620.000000
61242.000000,2114.000000,61838.000000,41614.000000
61251.000000,2106.000000,61843.000000,41620.000000
61285.000000,2130.000000,61838.000000,41614.000000
61279.000000,2154.000000,61875.000000,41612.000000
61323.000000,2172.000000,61876.000000,41640.000000
61328.000000,2235.000000,61863.000000,41647.000000
61327.000000,2182.000000,61847.000000,41666.000000
61355.000000,2215.000000,61866.000000,41659.000000
61347.000000,2202.000000,61886.000000,41694.000000
61341.000000,2233.000000,61903.000000,41703.000000
61376.000000,2216.000000,61854.000000,41695.000000
61369.000000,2247.000000,61867.000000,41681.000000
61369.000000,2197.000000,61858.000000,41676.000000
61368.000000,2210.000000,61877.000000,41651.000000
61360.000000,2218.000000,61869.000000,41682.000000
61369.000000,2249.000000,61870.000000,41704.000000
61350.000000,2233.000000,61864.000000,41680.000000
61362.000000,2236.000000,61855.000000,41690.000000
61353.000000,2244.000000,61873.000000,41695.000000
61388.000000,2241.000000,61890.000000,41668.000000
61366.000000,2255.000000,61871.000000,41659.000000
61348.000000,2203.000000,61873.000000,41663.000000
61371.000000,2259.000000,61868.000000,41669.000000
61373.000000,2202.000000,61848.000000,41671.000000
61368.000000,2235.000000,61860.000000,41665.000000
61384.000000,2231.000000,61848.000000,41704.000000
61362.000000,2182.000000,61848.000000,41692.000000
61365.000000,2219.000000,61852.000000,41670.000000
61370.000000,2209.000000,61860.000000,41697.000000
61361.000000,2221.000000,61818.000000,41679.000000
61387.000000,2193.000000,61845.000000,41645.000000
61342.000000,2198.000000,61835.000000,41659.000000
61352.000000,2205.000000,61859.000000,41680.000000
61330.000000,2209.000000,61821.000000,41687.000000
61355.000000,2197.000000,61859.000000,41657.000000
61342.000000,2183.000000,61819.000000,41667.000000
61349.000000,2172.000000,61838.000000,41650.000000
61324.000000,2202.000000,61839.000000,41685.000000
61353.000000,2228.000000,61827.000000,41692.000000
61330.000000,2197.000000,61829.000000,41661.000000
61354.000000,2196.000000,61819.000000,41688.000000
61361.000000,2201.000000,61813.000000,41675.000000
61346.000000,2227.000000,61808.000000,41679.000000
61346.000000,2207.000000,61833.000000,41669.000000
61328.000000,2191.000000,61806.000000,41661.000000
61344.000000,2214.000000,61802.000000,41652.000000
61310.000000,2181.000000,61806.000000,41651.000000
61331.000000,2205.000000,61773.000000,41657.000000
61312.000000,2207.000000,61816.000000,41645.000000
61311.000000,2170.000000,61797.000000,41653.000000
61348.000000,2195.000000,61798.000000,41637.000000
61315.000000,2159.000000,61814.000000,41655.000000
61284.000000,2164.000000,61785.000000,41662.000000
61294.000000,2166.000000,61791.000000,41648.000000
61291.000000,2181.000000,61828.000000,41670.000000
61329.000000,2182.000000,61799.000000,41662.000000
61264.000000,2169.000000,61772.000000,41650.000000
61286.000000,2182.000000,61789.000000,41620.000000
61309.000000,2169.000000,61780.000000,41639.000000
61285.000000,2138.000000,61783.000000,41637.000000
61320.000000,2203.000000,61758.000000,41645.000000
61326.000000,2158.000000,61753.000000,41645.000000
61282.000000,2158.000000,61759.000000,41626.000000
61298.000000,2146.000000,61765.000000,41610.000000
61296.000000,2158.000000,61730.000000,41636.000000
61255.000000,2152.000000,61745.000000,41646.000000
61254.000000,2154.000000,61765.000000,41636.000000
61243.000000,2148.000000,61740.000000,41624.000000
61282.000000,2122.000000,61761.000000,41622.000000
61251.000000,2134.000000,61729.000000,41622.000000
61262.000000,2126.000000,61735.000000,41625.000000
61234.000000,2114.000000,61704.000000,41623.000000
61252.000000,2121.000000,61718.000000,41604.000000
61238.000000,2127.000000,61727.000000,41636.000000
61237.000000,2107.000000,61731.000000,41605.000000
61255.000000,2115.000000,61746.000000,41621.000000
61233.000000,2135.000000,61725.000000,41614.000000
61202.000000,2094.000000,61718.000000,41604.000000
61241.000000,2099.000000,61711.000000,41583.000000
61225.000000,2122.000000,61734.000000,41599.000000
61234.000000,2112.000000,61715.000000,41592.000000
61225.000000,2112.000000,61722.000000,41612.000000
61246.000000,2136.000000,61708.000000,41633.000000
61239.000000,2101.000000,61698.000000,41591.000000
61221.000000,2116.000000,61716.000000,41614.000000
61233.000000,2121.000000,61717.000000,41612.000000
61213.000000,2122.000000,61694.000000,41595.000000
61220.000000,2111.000000,61700.000000,41612.000000
61207.000000,2094.000000,61701.000000,41589.000000
61192.000000,2107.000000,61666.000000,41623.000000
61227.000000,2098.000000,61701.000000,41623.000000
61195.000000,2082.000000,61712.000000,41579.000000
61208.000000,2096.000000,61676.000000,41593.000000
61194.000000,2074.000000,61668.000000,41602.000000
61193.000000,2097.000000,61707.000000,41615.000000
61182.000000,2086.000000,61664.000000,41580.000000
61211.000000,2109.000000,61647.000000,41605.000000
61181.000000,2095.000000,61634.000000,41586.000000
61166.000000,2086.000000,61629.000000,41582.000000
61172.000000,2082.000000,61622.000000,41585.000000
61178.000000,2043.000000,61619.000000,41581.000000
61172.000000,2079.000000,61594.000000,41544.000000
61155.000000,2095.000000,61609.000000,41596.000000
61149.000000,2055.000000,61594.000000,41597.000000
61143.000000,2024.000000,61564.000000,41553.000000
61136.000000,2024.000000,61575.000000,41563.000000
61115.000000,2007.000000,61555.000000,41561.000000
61130.000000,2028.000000,61548.000000,41532.000000
61126.000000,2005.000000,61532.000000,41549.000000
61094.000000,2008.000000,61534.000000,41535.000000
61086.000000,1975.000000,61540.000000,41547.000000
61064.000000,1979.000000,61550.000000,41533.000000
61058.000000,2013.000000,61543.000000,41515.000000
61029.000000,1974.000000,61549.000000,41513.000000
61074.000000,1953.000000,61546.000000,41520.000000
61046.000000,1946.000000,61524.000000,41521.000000
61051.000000,1962.000000,61551.000000,41548.000000
61073.000000,1979.000000,61560.000000,41538.000000
61069.000000,1983.000000,61539.000000,41522.000000
61092.000000,1995.000000,61517.000000,41555.000000
61043.000000,1993.000000,61517.000000,41532.000000
61094.000000,1931.000000,61572.000000,41527.000000
61062.000000,1974.000000,61580.000000,41513.000000
61064.000000,1968.000000,61559.000000,41498.000000
61054.000000,1987.000000,61594.000000,41526.000000
61060.000000,1984.000000,61581.000000,41510.000000
61069.000000,1953.000000,61605.000000,41538.000000
61081.000000,1951.000000,61621.000000,41546.000000
61082.000000,1984.000000,61623.000000,41544.000000
61122.000000,1970.000000,61651.000000,41555.000000
61106.000000,2001.000000,61674.000000,41552.000000
61102.000000,1990.000000,61669.000000,41562.000000
61113.000000,1995.000000,61748.000000,41554.000000
61134.000000,2017.000000,61730.000000,41553.000000
61145.000000,1992.000000,61755.000000,41558.000000
61167.000000,2022.000000,61777.000000,41579.000000
61189.000000,2054.000000,61794.000000,41604.000000
61208.000000,2047.000000,61822.000000,41597.000000
61204.000000,2083.000000,61864.000000,41623.000000
61257.000000,2096.000000,61866.000000,41606.000000
61235.000000,2121.000000,61876.000000,41632.000000
61272.000000,2146.000000,61892.000000,41628.000000
61265.000000,2151.000000,61918.000000,41652.000000
61319.000000,2193.000000,61919.000000,41667.000000
61336.000000,2218.000000,61925.000000,41680.000000
61345.000000,2184.000000,61932.000000,41675.000000
61382.000000,2206.000000,61961.000000,41687.000000
61396.000000,2241.000000,61972.000000,41695.000000
61397.000000,2217.000000,61967.000000,41698.000000
61414.000000,2274.000000,61963.000000,41704.000000
61437.000000,2263.000000,61956.000000,41719.000000
61465.000000,2278.000000,61978.000000,41749.000000
61461.000000,2305.000000,61962.000000,41775.000000
61460.000000,2310.000000,61978.000000,41741.000000
61463.000000,2303.000000,61949.000000,41752.000000
61470.000000,2293.000000,61978.000000,41738.000000
61476.000000,2326.000000,61959.000000,41744.000000
61507.000000,2296.000000,61967.000000,41718.000000
61479.000000,2334.000000,61948.000000,41756.000000
61457.000000,2326.000000,61948.000000,41747.000000
61483.000000,2315.000000,61991.000000,41753.000000
61467.000000,2316.000000,61945.000000,41752.000000
61465.000000,2304.000000,61958.000000,41753.000000
61477.000000,2307.000000,61961.000000,41733.000000
61464.000000,2306.000000,61960.000000,41741.000000
61475.000000,2309.000000,61947.000000,41739.000000
61451.000000,2328.000000,61948.000000,41738.000000
61472.000000,2290.000000,61945.000000,41747.000000
61452.000000,2301.000000,61959.000000,41725.000000
61475.000000,2318.000000,61944.000000,41744.000000
61474.000000,2304.000000,61929.000000,41738.000000
61451.000000,2305.000000,61948.000000,41728.000000
61442.000000,2294.000000,61948.000000,41746.000000
61494.000000,2322.000000,61937.000000,41746.000000
61476.000000,2326.000000,61923.000000,41739.000000
61443.000000,2330.000000,61950.000000,41713.000000
61451.000000,2330.000000,61935.000000,41713.000000
61452.000000,2298.000000,61901.000000,41738.000000
61452.000000,2288.000000,61917.000000,41687.000000
61453.000000,2306.000000,61924.000000,41728.000000
61424.000000,2286.000000,61882.000000,41713.000000
61450.000000,2282.000000,61906.000000,41728.000000
61447.000000,2277.000000,61959.000000,41723.000000
61463.000000,2295.000000,61935.000000,41743.000000
61420.000000,2275.000000,61936.000000,41700.000000
61432.000000,2274.000000,61910.000000,41709.000000
61435.000000,2257.000000,61930.000000,41721.000000
61414.000000,2261.000000,61916.000000,41722.000000
61432.000000,2285.000000,61887.000000,41731.000000
61416.000000,2303.000000,61925.000000,41732.000000
61414.000000,2267.000000,61878.000000,41705.000000
61408.000000,2301.000000,61903.000000,41711.000000
61414.000000,2297.000000,61893.000000,41720.000000
61442.000000,2280.000000,61866.000000,41722.000000
61435.000000,2273.000000,61893.000000,41688.000000
61435.000000,2308.000000,61901.000000,41741.000000
61441.000000,2275.000000,61885.000000,41738.000000
61440.000000,2289.000000,61896.000000,41689.000000
61417.000000,2236.000000,61872.000000,41700.000000
61410.000000,2279.000000,61855.000000,41709.000000
61398.000000,2251.000000,61882.000000,41665.000000
61393.000000,2243.000000,61857.000000,41698.000000
61410.000000,2262.000000,61877.000000,41690.000000
61421.000000,2238.000000,61858.000000,41724.000000
61393.000000,2244.000000,61870.000000,41703.000000
61358.000000,2219.000000,61840.000000,41689.000000
61406.000000,2236.000000,61818.000000,41686.000000
61368.000000,2230.000000,61840.000000,41684.000000
61374.000000,2241.000000,61837.000000,41676.000000
61362.000000,2239.000000,61827.000000,41697.000000
61379.000000,2270.000000,61849.000000,41667.000000
61348.000000,2208.000000,61829.000000,41689.000000
61389.000000,2261.000000,61801.000000,41679.000000
61370.000000,2220.000000,61813.000000,41681.000000
61338.000000,2217.000000,61819.000000,41679.000000
61374.000000,2211.000000,61800.000000,41649.000000
61344.000000,2197.000000,61782.000000,41655.000000
61336.000000,2208.000000,61811.000000,41676.000000
61340.000000,2192.000000,61788.000000,41660.000000
61339.000000,2203.000000,61811.000000,41666.000000
61322.000000,2166.000000,61801.000000,41641.000000
61310.000000,2184.000000,61776.000000,41657.000000
61313.000000,2192.000000,61793.000000,41659.000000
61332.000000,2154.000000,61787.000000,41650.000000
61306.000000,2194.000000,61781.000000,41650.000000
61332.000000,2179.000000,61773.000000,41650.000000
61302.000000,2159.000000,61785.000000,41631.000000
61297.000000,2168.000000,61774.000000,41633.000000
61289.000000,2148.000000,61769.000000,41642.000000
61281.000000,2150.000000,61754.000000,41636.000000
61290.000000,2195.000000,61751.000000,41651.000000
61311.000000,2181.000000,61773.000000,41645.000000
61281.000000,2190.000000,61777.000000,41658.000000
61280.000000,2157.000000,61754.000000,41645.000000
61268.000000,2148.000000,61730.000000,41635.000000
61288.000000,2156.000000,61759.000000,41641.000000
61272.000000,2174.000000,61774.000000,41637.000000
61312.000000,2158.000000,61749.000000,41638.000000
61257.000000,2159.000000,61748.000000,41621.000000
61314.000000,2182.000000,61732.000000,41618.000000
61272.000000,2157.000000,61738.000000,41615.000000
61282.000000,2142.000000,61727.000000,41642.000000
61293.000000,2150.000000,61737.000000,41615.000000
61274.000000,2133.000000,61724.000000,41637.000000
61251.000000,2155.000000,61700.000000,41643.000000
61243.000000,2133.000000,61710.000000,41637.000000
61238.000000,2130.000000,61697.000000,41612.000000
61252.000000,2134.000000,61683.000000,41646.000000
61262.000000,2131.000000,61675.000000,41608.000000
61227.000000,2101.000000,61644.000000,41624.000000
61239.000000,2085.000000,61648.000000,41611.000000
61217.000000,2122.000000,61653.000000,41623.000000
61201.000000,2112.000000,61614.000000,41602.000000
61228.000000,2087.000000,61629.000000,41591.000000
61202.000000,2052.000000,61605.000000,41578.000000
61179.000000,2082.000000,61622.000000,41577.000000
61156.000000,2062.000000,61571.000000,41560.000000
61181.000000,2088.000000,61609.000000,41567.000000
61140.000000,2005.000000,61564.000000,41571.000000
61117.000000,2049.000000,61586.000000,41570.000000
61141.000000,2026.000000,61568.000000,41571.000000
61130.000000,2008.000000,61613.000000,41555.000000
61146.000000,2014.000000,61571.000000,41572.000000
61118.000000,2032.000000,61589.000000,41583.000000
61110.000000,2005.000000,61567.000000,41565.000000
61127.000000,2024.000000,61598.000000,41568.000000
61108.000000,2004.000000,61575.000000,41567.000000
61125.000000,2009.000000,61561.000000,41578.000000
61116.000000,2010.000000,61603.000000,41570.000000
61100.000000,2014.000000,61598.000000,41571.000000
61160.000000,2037.000000,61602.000000,41546.000000
61113.000000,2046.000000,61605.000000,41544.000000
61112.000000,2015.000000,61630.000000,41571.000000
61112.000000,2013.000000,61595.000000,41549.000000
61122.000000,2034.000000,61650.000000,41564.000000
61138.000000,2017.000000,61642.000000,41548.000000
61152.000000,2020.000000,61675.000000,41556.000000
61120.000000,2022.000000,61656.000000,41580.000000
61164.000000,2036.000000,61685.000000,41553.000000
61141.000000,2045.000000,61712.000000,41586.000000
61178.000000,2059.000000,61679.000000,41588.000000
61176.000000,2057.000000,61721.000000,41595.000000
61169.000000,2041.000000,61741.000000,41560.000000
61174.000000,2038.000000,61765.000000,41589.000000
61197.000000,2100.000000,61827.000000,41595.000000
61239.000000,2092.000000,61846.000000,41612.000000
61238.000000,2096.000000,61856.000000,41617.000000
61258.000000,2134.000000,61907.000000,41621.000000
61301.000000,2140.000000,61896.000000,41632.000000
61305.000000,2157.000000,61892.000000,41638.000000
61325.000000,2212.000000,61908.000000,41637.000000
61346.000000,2228.000000,61948.000000,41686.000000
61365.000000,2219.000000,61931.000000,41690.000000
61382.000000,2252.000000,61960.000000,41700.000000
61394.000000,2271.000000,61999.000000,41727.000000
61417.000000,2257.000000,62002.000000,41712.000000
61456.000000,2295.000000,61991.000000,41726.000000
61459.000000,2314.000000,62014.000000,41746.000000
61483.000000,2329.000000,62017.000000,41708.000000
61481.000000,2343.000000,62008.000000,41773.000000
61491.000000,2305.000000,62014.000000,41753.000000
61510.000000,2343.000000,61993.000000,41759.000000
61523.000000,2360.000000,62030.000000,41775.000000
61547.000000,2369.000000,62036.000000,41776.000000
61536.000000,2366.000000,62018.000000,41787.000000
61543.000000,2389.000000,62025.000000,41790.000000
61537.000000,2392.000000,62015.000000,41783.000000
61554.000000,2363.000000,62018.000000,41769.000000
61553.000000,2387.000000,61983.000000,41758.000000
61549.000000,2357.000000,61993.000000,41793.000000
61544.000000,2365.000000,62010.000000,41753.000000
61516.000000,2374.000000,61998.000000,41797.000000
61542.000000,2350.000000,61991.000000,41754.000000
61515.000000,2340.000000,61994.000000,41776.000000
61517.000000,2318.000000,61974.000000,41759.000000
61498.000000,2358.000000,62002.000000,41754.000000
61501.000000,2354.000000,61983.000000,41786.000000
61502.000000,2319.000000,62006.000000,41757.000000
61533.000000,2373.000000,61993.000000,41755.000000
61475.000000,2348.000000,61987.000000,41743.000000
61528.000000,2383.000000,61970.000000,41734.000000
61520.000000,2347.000000,61958.000000,41751.000000
61501.000000,2393.000000,61985.000000,41757.000000
61494.000000,2359.000000,61987.000000,41751.000000
61496.000000,2362.000000,61957.000000,41756.000000
61502.000000,2364.000000,61942.000000,41741.000000
61518.000000,2344.000000,61944.000000,41749.000000
61510.000000,2344.000000,61974.000000,41759.000000
61493.000000,2343.000000,61962.000000,41765.000000
61469.000000,2345.000000,61943.000000,41731.000000
61518.000000,2324.000000,61974.000000,41729.000000
61452.000000,2327.000000,61964.000000,41723.000000
61455.000000,2323.000000,61961.000000,41738.000000
61468.000000,2340.000000,61950.000000,41745.000000
61460.000000,2300.000000,61932.000000,41737.000000
61468.000000,2330.000000,61917.000000,41719.000000
61466.000000,2296.000000,61958.000000,41728.000000
61471.000000,2329.000000,61948.000000,41728.000000
61475.000000,2320.000000,61945.000000,41741.000000
61482.000000,2305.000000,61916.000000,41733.000000
61462.000000,2325.000000,61907.000000,41730.000000
61470.000000,2328.000000,61940.000000,41718.000000
61463.000000,2297.000000,61879.000000,41731.000000
61438.000000,2322.000000,61905.000000,41727.000000
61464.000000,2290.000000,61881.000000,41713.000000
61448.000000,2294.000000,61883.000000,41712.000000
61428.000000,2314.000000,61856.000000,41687.000000
61452.000000,2272.000000,61884.000000,41719.000000
61445.000000,2317.000000,61874.000000,41685.000000
61404.000000,2278.000000,61878.000000,41699.000000
61432.000000,2281.000000,61866.000000,41712.000000
61457.000000,2282.000000,61873.000000,41699.000000
61428.000000,2282.000000,61858.000000,41706.000000
61415.000000,2277.000000,61890.000000,41702.000000
61420.000000,2250.000000,61839.000000,41701.000000
61391.000000,2258.000000,61849.000000,41687.000000
61405.000000,2273.000000,61875.000000,41691.000000
61386.000000,2275.000000,61869.000000,41690.000000
61393.000000,2278.000000,61860.000000,41687.000000
61407.000000,2308.000000,61834.000000,41714.000000
61371.000000,2258.000000,61874.000000,41679.000000
61399.000000,2249.000000,61833.000000,41673.000000
61402.000000,2270.000000,61828.000000,41695.000000
61390.000000,2218.000000,61818.000000,41681.000000
61390.000000,2254.000000,61837.000000,41684.000000
61355.000000,2244.000000,61841.000000,41689.000000
61340.000000,2245.000000,61813.000000,41681.000000
61374.000000,2238.000000,61805.000000,41664.000000
61373.000000,2243.000000,61829.000000,41662.000000
61341.000000,2249.000000,61801.000000,41646.000000
61361.000000,2227.000000,61828.000000,41643.000000
61340.000000,2236.000000,61799.000000,41670.000000
61345.000000,2217.000000,61825.000000,41705.000000
61336.000000,2220.000000,61794.000000,41676.000000
61329.000000,2219.000000,61798.000000,41646.000000
61343.000000,2247.000000,61791.000000,41628.000000
61333.000000,2201.000000,61776.000000,41678.000000
61329.000000,2241.000000,61807.000000,41657.000000
61330.000000,2219.000000,61801.000000,41664.000000
61320.000000,2236.000000,61773.000000,41646.000000
61349.000000,2234.000000,61784.000000,41642.000000
61339.000000,2212.000000,61778.000000,41661.000000
61317.000000,2194.000000,61773.000000,41660.000000
61276.000000,2214.000000,61740.000000,41659.000000
61301.000000,2186.000000,61772.000000,41654.000000
61335.000000,2199.000000,61755.000000,41632.000000
61291.000000,2187.000000,61765.000000,41634.000000
61285.000000,2172.000000,61765.000000,41624.000000
61290.000000,2208.000000,61740.000000,41649.000000
61327.000000,2202.000000,61764.000000,41606.000000
61269.000000,2171.000000,61701.000000,41634.000000
61278.000000,2180.000000,61688.000000,41601.000000
61247.000000,2173.000000,61697.000000,41627.000000
61271.000000,2157.000000,61723.000000,41634.000000
61253.000000,2166.000000,61697.000000,41616.000000
61265.000000,2160.000000,61686.000000,41601.000000
61235.000000,2146.000000,61666.000000,41607.000000
61220.000000,2133.000000,61653.000000,41607.000000
61224.000000,2121.000000,61686.000000,41605.000000
61219.000000,2110.000000,61637.000000,41599.000000
61214.000000,2103.000000,61645.000000,41573.000000
61206.000000,2134.000000,61663.000000,41596.000000
61212.000000,2101.000000,61650.000000,41587.000000
61200.000000,2130.000000,61656.000000,41587.000000
61194.000000,2092.000000,61652.000000,41603.000000
61149.000000,2079.000000,61641.000000,41586.000000
61191.000000,2068.000000,61665.000000,41561.000000
61167.000000,2088.000000,61660.000000,41579.000000
61165.000000,2063.000000,61649.000000,41576.000000
61179.000000,2118.000000,61676.000000,41574.000000
61195.000000,2095.000000,61669.000000,41594.000000
61187.000000,2108.000000,61690.000000,41575.000000
61143.000000,2096.000000,61690.000000,41589.000000
61151.000000,2109.000000,61689.000000,41582.000000
61186.000000,2088.000000,61692.000000,41585.000000
61208.000000,2097.000000,61683.000000,41574.000000
61202.000000,2086.000000,61708.000000,41599.000000
61190.000000,2090.000000,61758.000000,41591.000000
61208.000000,2112.000000,61758.000000,41611.000000
61205.000000,2129.000000,61759.000000,41607.000000
61216.000000,2111.000000,61783.000000,41606.000000
61228.000000,2115.000000,61821.000000,41606.000000
61236.000000,2141.000000,61826.000000,41637.000000
61241.000000,2155.000000,61839.000000,41629.000000
61280.000000,2129.000000,61878.000000,41614.000000
61297.000000,2168.000000,61889.000000,41626.000000
61318.000000,2209.000000,61914.000000,41647.000000
61320.000000,2221.000000,61900.000000,41665.000000
61347.000000,2227.000000,61974.000000,41692.000000
61349.000000,2244.000000,61951.000000,41658.000000
61388.000000,2268.000000,61981.000000,41692.000000
61410.000000,2269.000000,62014.000000,41680.000000
61448.000000,2290.000000,62006.000000,41727.000000
61460.000000,2320.000000,62047.000000,41719.000000
61499.000000,2330.000000,62016.000000,41727.000000
61474.000000,2316.000000,62061.000000,41763.000000
61503.000000,2351.000000,62051.000000,41762.000000
61521.000000,2359.000000,62095.000000,41759.000000
61548.000000,2402.000000,62075.000000,41759.000000
61569.000000,2386.000000,62072.000000,41771.000000
61556.000000,2435.000000,62073.000000,41787.000000
61560.000000,2441.000000,62118.000000,41803.000000
61591.000000,2434.000000,62081.000000,41808.000000
61630.000000,2423.000000,62105.000000,41797.000000
61587.000000,2425.000000,62087.000000,41806.000000
61594.000000,2441.000000,62090.000000,41789.000000
61610.000000,2456.000000,62066.000000,41819.000000
61624.000000,2458.000000,62084.000000,41808.000000
61615.000000,2456.000000,62095.000000,41803.000000
61662.000000,2448.000000,62084.000000,41813.000000
61570.000000,2460.000000,62062.000000,41816.000000
61636.000000,2507.000000,62075.000000,41805.000000
61609.000000,2452.000000,62077.000000,41789.000000
61582.000000,2436.000000,62089.000000,41805.000000
61629.000000,2436.000000,62109.000000,41813.000000
61649.000000,2466.000000,62073.000000,41787.000000
61617.000000,2459.000000,62082.000000,41808.000000
61574.000000,2439.000000,62076.000000,41808.000000
61610.000000,2459.000000,62061.000000,41846.000000
61612.000000,2428.000000,62064.000000,41787.000000
61596.000000,2466.000000,62051.000000,41816.000000
61597.000000,2455.000000,62064.000000,41802.000000
61564.000000,2446.000000,62060.000000,41799.000000
61579.000000,2426.000000,62046.000000,41807.000000
61592.000000,2394.000000,62057.000000,41779.000000
61556.000000,2428.000000,62058.000000,41779.000000
61603.000000,2429.000000,62054.000000,41810.000000
61622.000000,2441.000000,62052.000000,41800.000000
61604.000000,2427.000000,62041.000000,41799.000000
61562.000000,2469.000000,62029.000000,41779.000000
61606.000000,2431.000000,62093.000000,41781.000000
61590.000000,2439.000000,62036.000000,41792.000000
61580.000000,2420.000000,62030.000000,41795.000000
61585.000000,2461.000000,62066.000000,41782.000000
61586.000000,2428.000000,62024.000000,41788.000000
61614.000000,2433.000000,62039.000000,41785.000000
61618.000000,2441.000000,62036.000000,41789.000000
61586.000000,2418.000000,62035.000000,41796.000000
61601.000000,2444.000000,62005.000000,41784.000000
61577.000000,2420.000000,62055.000000,41806.000000
61536.000000,2430.000000,62030.000000,41767.000000
61566.000000,2389.000000,62009.000000,41772.000000
61561.000000,2426.000000,62040.000000,41757.000000
61550.000000,2411.000000,61998.000000,41773.000000
61550.000000,2413.000000,62000.000000,41793.000000
61548.000000,2441.000000,62020.000000,41773.000000
61575.000000,2414.000000,62013.000000,41787.000000
61567.000000,2408.000000,61987.000000,41767.000000
61580.000000,2411.000000,61980.000000,41768.000000
61549.000000,2375.000000,61992.000000,41755.000000
61527.000000,2389.000000,61978.000000,41736.000000
61545.000000,2394.000000,61980.000000,41779.000000
61556.000000,2411.000000,61988.000000,41789.000000
61542.000000,2400.000000,61956.000000,41764.000000
61520.000000,2381.000000,62005.000000,41758.000000
61528.000000,2382.000000,61975.000000,41769.000000
61495.000000,2377.000000,62001.000000,41753.000000
61514.000000,2372.000000,61971.000000,41756.000000
61517.000000,2379.000000,61964.000000,41759.000000
61531.000000,2372.000000,61949.000000,41768.000000
61506.000000,2388.000000,61964.000000,41760.000000
61500.000000,2373.000000,61959.000000,41744.000000
61491.000000,2368.000000,61954.000000,41751.000000
61494.000000,2371.000000,61938.000000,41722.000000
61502.000000,2377.000000,61966.000000,41744.000000
61491.000000,2367.000000,61926.000000,41729.000000
61509.000000,2326.000000,61928.000000,41735.000000
61490.000000,2362.000000,61931.000000,41736.000000
61487.000000,2309.000000,61947.000000,41749.000000
61497.000000,2325.000000,61906.000000,41742.000000
61449.000000,2333.000000,61913.000000,41740.000000
61447.000000,2354.000000,61912.000000,41747.000000
61484.000000,2326.000000,61912.000000,41735.000000
61435.000000,2346.000000,61876.000000,41738.000000
61451.000000,2313.000000,61882.000000,41732.000000
61453.000000,2303.000000,61898.000000,41703.000000
61466.000000,2306.000000,61881.000000,41731.000000
61443.000000,2310.000000,61901.000000,41722.000000
61437.000000,2325.000000,61885.000000,41738.000000
61441.000000,2355.000000,61888.000000,41711.000000
61447.000000,2314.000000,61898.000000,41717.000000
61444.000000,2311.000000,61867.000000,41724.000000
61420.000000,2307.000000,61910.000000,41703.000000
61458.000000,2303.000000,61875.000000,41678.000000
61410.000000,2293.000000,61884.000000,41716.000000
61433.000000,2288.000000,61893.000000,41696.000000
61441.000000,2267.000000,61857.000000,41712.000000
61414.000000,2285.000000,61854.000000,41718.000000
61418.000000,2298.000000,61861.000000,41712.000000
61408.000000,2277.000000,61870.000000,41730.000000
61422.000000,2258.000000,61882.000000,41700.000000
61430.000000,2311.000000,61875.000000,41708.000000
61416.000000,2292.000000,61867.000000,41676.000000
61382.000000,2274.000000,61860.000000,41691.000000
61398.000000,2259.000000,61845.000000,41676.000000
61421.000000,2247.000000,61834.000000,41666.000000
61406.000000,2276.000000,61833.000000,41694.000000
61396.000000,2247.000000,61862.000000,41731.000000
61415.000000,2292.000000,61791.000000,41677.000000
61380.000000,2267.000000,61822.000000,41690.000000
61376.000000,2284.000000,61782.000000,41712.000000
61376.000000,2226.000000,61804.000000,41685.000000
61375.000000,2242.000000,61784.000000,41666.000000
61393.000000,2258.000000,61772.000000,41664.000000
61352.000000,2225.000000,61772.000000,41665.000000
61335.000000,2219.000000,61717.000000,41650.000000
61346.000000,2215.000000,61714.000000,41645.000000
61308.000000,2191.000000,61734.000000,41671.000000
61294.000000,2205.000000,61727.000000,41662.000000
61297.000000,2184.000000,61751.000000,41636.000000
61300.000000,2195.000000,61723.000000,41666.000000
61275.000000,2138.000000,61738.000000,41643.000000
61328.000000,2161.000000,61714.000000,41656.000000
61262.000000,2143.000000,61734.000000,41623.000000
61284.000000,2164.000000,61735.000000,41626.000000
61282.000000,2141.000000,61724.000000,41639.000000
61294.000000,2147.000000,61714.000000,41631.000000
61255.000000,2158.000000,61721.000000,41613.000000
61271.000000,2161.000000,61714.000000,41608.000000
61282.000000,2180.000000,61728.000000,41640.000000
61259.000000,2172.000000,61755.000000,41637.000000
61263.000000,2165.000000,61753.000000,41612.000000
61273.000000,2163.000000,61744.000000,41620.000000
61285.000000,2137.000000,61746.000000,41643.000000
61274.000000,2138.000000,61749.000000,41620.000000
61265.000000,2142.000000,61789.000000,41638.000000
61297.000000,2165.000000,61766.000000,41638.000000
61275.000000,2157.000000,61814.000000,41628.000000
61267.000000,2159.000000,61863.000000,41631.000000
61298.000000,2169.000000,61860.000000,41645.000000
61293.000000,2180.000000,61889.000000,41645.000000
61336.000000,2184.000000,61918.000000,41651.000000
61326.000000,2206.000000,61955.000000,41658.000000
61376.000000,2251.000000,61946.000000,41698.000000
61377.000000,2235.000000,61995.000000,41710.000000
61436.000000,2258.000000,61994.000000,41702.000000
61427.000000,2296.000000,62022.000000,41724.000000
61455.000000,2317.000000,62027.000000,41755.000000
61490.000000,2336.000000,62050.000000,41716.000000
61489.000000,2359.000000,62084.000000,41730.000000
61510.000000,2414.000000,62071.000000,41764.000000
61489.000000,2374.000000,62083.000000,41777.000000
61567.000000,2390.000000,62100.000000,41769.000000
61569.000000,2397.000000,62084.000000,41785.000000
61585.000000,2406.000000,62127.000000,41799.000000
61595.000000,2421.000000,62130.000000,41810.000000
61614.000000,2428.000000,62135.000000,41790.000000
61618.000000,2446.000000,62140.000000,41832.000000
61630.000000,2449.000000,62081.000000,41810.000000
61627.000000,2491.000000,62116.000000,41827.000000
61653.000000,2516.000000,62085.000000,41841.000000
61642.000000,2498.000000,62100.000000,41815.000000
61632.000000,2492.000000,62092.000000,41829.000000
61650.000000,2481.000000,62123.000000,41814.000000
61633.000000,2518.000000,62115.000000,41816.000000
61630.000000,2464.000000,62122.000000,41818.000000
61660.000000,2498.000000,62106.000000,41851.000000
61620.000000,2463.000000,62070.000000,41809.000000
61611.000000,2440.000000,62082.000000,41828.000000
61629.000000,2496.000000,62110.000000,41833.000000
61642.000000,2477.000000,62054.000000,41820.000000
61614.000000,2472.000000,62061.000000,41799.000000
61635.000000,2460.000000,62107.000000,41820.000000
61618.000000,2473.000000,62078.000000,41801.000000
61631.000000,2456.000000,62081.000000,41796.000000
61639.000000,2460.000000,62078.000000,41794.000000
61609.000000,2442.000000,62042.000000,41789.000000
61626.000000,2453.000000,62045.000000,41805.000000
61621.000000,2447.000000,62071.000000,41808.000000
61617.000000,2462.000000,62064.000000,41806.000000
61605.000000,2488.000000,62070.000000,41795.000000
61610.000000,2470.000000,62063.000000,41820.000000
61607.000000,2452.000000,62074.000000,41809.000000
61587.000000,2457.000000,62097.000000,41800.000000
61614.000000,2463.000000,62054.000000,41781.000000
61625.000000,2445.000000,62072.000000,41798.000000
61593.000000,2452.000000,62035.000000,41794.000000
61628.000000,2447.000000,62018.000000,41765.000000
61601.000000,2444.000000,62071.000000,41772.000000
61584.000000,2472.000000,62042.000000,41803.000000
61611.000000,2479.000000,62046.000000,41808.000000
61612.000000,2465.000000,62057.000000,41776.000000
61583.000000,2429.000000,62043.000000,41785.000000
61598.000000,2433.000000,62034.000000,41803.000000
61602.000000,2443.000000,62040.000000,41767.000000
61584.000000,2428.000000,62016.000000,41758.000000
61564.000000,2432.000000,62019.000000,41763.000000
61577.000000,2444.000000,62017.000000,41777.000000
61582.000000,2418.000000,62026.000000,41775.000000
61572.000000,2427.000000,62010.000000,41760.000000
61590.000000,2398.000000,62021.000000,41789.000000
61547.000000,2421.000000,62012.000000,41797.000000
61543.000000,2399.000000,62011.000000,41781.000000
61545.000000,2424.000000,62035.000000,41777.000000
61567.000000,2397.000000,61960.000000,41778.000000
61559.000000,2392.000000,61993.000000,41773.000000
61556.000000,2427.000000,61991.000000,41781.000000
61551.000000,2433.000000,62005.000000,41773.000000
61556.000000,2392.000000,62002.000000,41771.000000
61546.000000,2399.000000,61959.000000,41746.000000
61519.000000,2397.000000,61972.000000,41780.000000
61531.000000,2407.000000,61965.000000,41757.000000
61523.000000,2395.000000,62003.000000,41770.000000
61523.000000,2376.000000,61983.000000,41767.000000
61569.000000,2408.000000,61951.000000,41763.000000
61512.000000,2365.000000,61973.000000,41743.000000
61543.000000,2387.000000,61959.000000,41752.000000
61517.000000,2388.000000,61972.000000,41753.000000
61523.000000,2379.000000,61930.000000,41765.000000
61509.000000,2394.000000,61931.000000,41785.000000
61500.000000,2368.000000,61936.000000,41736.000000
61508.000000,2387.000000,61958.000000,41733.000000
61498.000000,2364.000000,61954.000000,41750.000000
61492.000000,2371.000000,61929.000000,41733.000000
61490.000000,2324.000000,61913.000000,41719.000000
61473.000000,2361.000000,61941.000000,41731.000000
61499.000000,2356.000000,61900.000000,41746.000000
61490.000000,2361.000000,61923.000000,41726.000000
61499.000000,2335.000000,61921.000000,41709.000000
61463.000000,2356.000000,61938.000000,41732.000000
61440.000000,2350.000000,61939.000000,41714.000000
61464.000000,2363.000000,61909.000000,41761.000000
61470.000000,2337.000000,61911.000000,41744.000000
61460.000000,2333.000000,61925.000000,41714.000000
61459.000000,2315.000000,61939.000000,41706.000000
61468.000000,2304.000000,61914.000000,41724.000000
61464.000000,2359.000000,61939.000000,41739.000000
61435.000000,2322.000000,61932.000000,41724.000000
61457.000000,2337.000000,61933.000000,41725.000000
61475.000000,2327.000000,61890.000000,41715.000000
61449.000000,2334.000000,61908.000000,41729.000000
61468.000000,2310.000000,61896.000000,41718.000000
61462.000000,2313.000000,61886.000000,41741.000000
61479.000000,2369.000000,61866.000000,41743.000000
61457.000000,2289.000000,61881.000000,41729.000000
61472.000000,2319.000000,61887.000000,41720.000000
61424.000000,2313.000000,61850.000000,41743.000000
61422.000000,2291.000000,61850.000000,41701.000000
61414.000000,2285.000000,61846.000000,41712.000000
61416.000000,2286.000000,61826.000000,41697.000000
61395.000000,2272.000000,61860.000000,41692.000000
61394.000000,2310.000000,61834.000000,41725.000000
61379.000000,2263.000000,61801.000000,41685.000000
61400.000000,2266.000000,61825.000000,41701.000000
61391.000000,2260.000000,61788.000000,41684.000000
61368.000000,2247.000000,61827.000000,41664.000000
61377.000000,2240.000000,61774.000000,41686.000000
61363.000000,2231.000000,61798.000000,41659.000000
61355.000000,2250.000000,61767.000000,41680.000000
61368.000000,2239.000000,61779.000000,41681.000000
61352.000000,2245.000000,61799.000000,41668.000000
61329.000000,2238.000000,61769.000000,41656.000000
61305.000000,2203.000000,61766.000000,41656.000000
61312.000000,2184.000000,61784.000000,41634.000000
61345.000000,2207.000000,61771.000000,41656.000000
61332.000000,2216.000000,61779.000000,41682.000000
61292.000000,2176.000000,61767.000000,41623.000000
61327.000000,2175.000000,61770.000000,41647.000000
61322.000000,2182.000000,61813.000000,41648.000000
61320.000000,2193.000000,61797.000000,41669.000000
61306.000000,2203.000000,61832.000000,41667.000000
61314.000000,2203.000000,61802.000000,41678.000000
61343.000000,2236.000000,61828.000000,41672.000000
61356.000000,2211.000000,61814.000000,41656.000000
61343.000000,2261.000000,61847.000000,41673.000000
61301.000000,2215.000000,61877.000000,41653.000000
61344.000000,2250.000000,61905.000000,41675.000000
61339.000000,2260.000000,61939.000000,41676.000000
61397.000000,2262.000000,61956.000000,41677.000000
61388.000000,2262.000000,61959.000000,41707.000000
61407.000000,2277.000000,61981.000000,41719.000000
61434.000000,2272.000000,62026.000000,41684.000000
61435.000000,2302.000000,62049.000000,41700.000000
61464.000000,2332.000000,62044.000000,41720.000000
61512.000000,2323.000000,62090.000000,41748.000000
61526.000000,2352.000000,62095.000000,41775.000000
61516.000000,2378.000000,62114.000000,41785.000000
61563.000000,2405.000000,62109.000000,41782.000000
61551.000000,2427.000000,62138.000000,41802.000000
61590.000000,2421.000000,62116.000000,41781.000000
61599.000000,2439.000000,62151.000000,41834.000000
61654.000000,2495.000000,62166.000000,41827.000000
61653.000000,2495.000000,62197.000000,41808.000000
61649.000000,2472.000000,62157.000000,41838.000000
61674.000000,2528.000000,62210.000000,41835.000000
61709.000000,2512.000000,62178.000000,41856.000000
61688.000000,2519.000000,62175.000000,41821.000000
61704.000000,2569.000000,62182.000000,41884.000000
61714.000000,2595.000000,62166.000000,41882.000000
61723.000000,2573.000000,62193.000000,41862.000000
61704.000000,2536.000000,62157.000000,41859.000000
61719.000000,2595.000000,62148.000000,41894.000000
61765.000000,2537.000000,62172.000000,41894.000000
61745.000000,2555.000000,62128.000000,41877.000000
61713.000000,2584.000000,62214.000000,41880.000000
61713.000000,2561.000000,62155.000000,41882.000000
61721.000000,2563.000000,62149.000000,41889.000000
61723.000000,2556.000000,62156.000000,41880.000000
61705.000000,2556.000000,62160.000000,41860.000000
61692.000000,2554.000000,62179.000000,41859.000000
61723.000000,2539.000000,62172.000000,41872.000000
61696.000000,2554.000000,62174.000000,41876.000000
61714.000000,2579.000000,62173.000000,41863.000000
61713.000000,2543.000000,62167.000000,41864.000000
61675.000000,2537.000000,62129.000000,41867.000000
61690.000000,2556.000000,62154.000000,41879.000000
61703.000000,2537.000000,62131.000000,41859.000000
61682.000000,2537.000000,62135.000000,41826.000000
61694.000000,2549.000000,62157.000000,41859.000000
61709.000000,2531.000000,62157.000000,41862.000000
61697.000000,2522.000000,62170.000000,41877.000000
61663.000000,2526.000000,62125.000000,41873.000000
61669.000000,2537.000000,62123.000000,41845.000000
61680.000000,2520.000000,62116.000000,41841.000000
61674.000000,2530.000000,62132.000000,41853.000000
61675.000000,2536.000000,62133.000000,41879.000000
61677.000000,2547.000000,62152.000000,41860.000000
61633.000000,2543.000000,62117.000000,41845.000000
61684.000000,2495.000000,62135.000000,41838.000000
61684.000000,2511.000000,62138.000000,41857.000000
61668.000000,2541.000000,62135.000000,41860.000000
61662.000000,2530.000000,62122.000000,41838.000000
61667.000000,2501.000000,62136.000000,41862.000000
61658.000000,2536.000000,62125.000000,41852.000000
61689.000000,2507.000000,62110.000000,41821.000000
61685.000000,2507.000000,62111.000000,41861.000000
61685.000000,2532.000000,62098.000000,41850.000000
61657.000000,2511.000000,62116.000000,41834.000000
61666.000000,2542.000000,62087.000000,41852.000000
61649.000000,2526.000000,62088.000000,41856.000000
61657.000000,2483.000000,62097.000000,41836.000000
61648.000000,2500.000000,62066.000000,41839.000000
61669.000000,2472.000000,62091.000000,41848.000000
61634.000000,2499.000000,62066.000000,41829.000000
61619.000000,2503.000000,62062.000000,41804.000000
61644.000000,2512.000000,62078.000000,41811.000000
61665.000000,2495.000000,62077.000000,41832.000000
61645.000000,2496.000000,62060.000000,41819.000000
61610.000000,2476.000000,62063.000000,41841.000000
61631.000000,2496.000000,62044.000000,41830.000000
61648.000000,2479.000000,62054.000000,41824.000000
61608.000000,2469.000000,62036.000000,41816.000000
61625.000000,2453.000000,62061.000000,41818.000000
61607.000000,2455.000000,62052.000000,41810.000000
61602.000000,2468.000000,62029.000000,41841.000000
61614.000000,2442.000000,62042.000000,41794.000000
61586.000000,2475.000000,62033.000000,41798.000000
61598.000000,2433.000000,62015.000000,41783.000000
61591.000000,2463.000000,62010.000000,41810.000000
61594.000000,2435.000000,61993.000000,41824.000000
61586.000000,2428.000000,61997.000000,41798.000000
61570.000000,2429.000000,61991.000000,41815.000000
61591.000000,2435.000000,61977.000000,41782.000000
61572.000000,2419.000000,61991.000000,41803.000000
61566.000000,2410.000000,61966.000000,41775.000000
61513.000000,2399.000000,62005.000000,41778.000000
61543.000000,2444.000000,62013.000000,41780.000000
61554.000000,2418.000000,62013.000000,41789.000000
61541.000000,2415.000000,61977.000000,41795.000000
61555.000000,2393.000000,61975.000000,41747.000000
61565.000000,2428.000000,61991.000000,41788.000000
61545.000000,2407.000000,61979.000000,41773.000000
61525.000000,2369.000000,61973.000000,41769.000000
61557.000000,2371.000000,61961.000000,41769.000000
61530.000000,2409.000000,61986.000000,41782.000000
61515.000000,2398.000000,61982.000000,41792.000000
61568.000000,2395.000000,61962.000000,41790.000000
61527.000000,2342.000000,61958.000000,41769.000000
61502.000000,2416.000000,61939.000000,41737.000000
61514.000000,2387.000000,61930.000000,41777.000000
61507.000000,2358.000000,61955.000000,41773.000000
61523.000000,2403.000000,61930.000000,41761.000000
61477.000000,2404.000000,61959.000000,41757.000000
61514.000000,2401.000000,61935.000000,41747.000000
61473.000000,2390.000000,61906.000000,41758.000000
61494.000000,2359.000000,61905.000000,41760.000000
61473.000000,2389.000000,61927.000000,41740.000000
61464.000000,2353.000000,61894.000000,41739.000000
61476.000000,2362.000000,61925.000000,41742.000000
61472.000000,2374.000000,61871.000000,41755.000000
61456.000000,2373.000000,61868.000000,41755.000000
61464.000000,2358.000000,61858.000000,41749.000000
61465.000000,2314.000000,61876.000000,41744.000000
61484.000000,2338.000000,61875.000000,41755.000000
61446.000000,2307.000000,61841.000000,41725.000000
61436.000000,2303.000000,61828.000000,41733.000000
61426.000000,2305.000000,61808.000000,41705.000000
61421.000000,2300.000000,61802.000000,41706.000000
61419.000000,2299.000000,61804.000000,41718.000000
61414.000000,2300.000000,61801.000000,41739.000000
61365.000000,2270.000000,61745.000000,41715.000000
61376.000000,2245.000000,61756.000000,41696.000000
61365.000000,2215.000000,61781.000000,41699.000000
61308.000000,2242.000000,61773.000000,41692.000000
61335.000000,2233.000000,61792.000000,41700.000000
61310.000000,2214.000000,61772.000000,41677.000000
61323.000000,2217.000000,61788.000000,41678.000000
61318.000000,2221.000000,61789.000000,41676.000000
61352.000000,2186.000000,61783.000000,41681.000000
61319.000000,2191.000000,61812.000000,41644.000000
61329.000000,2236.000000,61774.000000,41682.000000
61323.000000,2240.000000,61823.000000,41679.000000
61321.000000,2205.000000,61796.000000,41676.000000
61348.000000,2259.000000,61822.000000,41692.000000
61346.000000,2232.000000,61812.000000,41707.000000
61339.000000,2227.000000,61831.000000,41686.000000
61353.000000,2233.000000,61829.000000,41692.000000
61324.000000,2275.000000,61852.000000,41690.000000
61358.000000,2216.000000,61848.000000,41685.000000
61330.000000,2252.000000,61870.000000,41666.000000
61361.000000,2277.000000,61919.000000,41718.000000
61359.000000,2271.000000,61920.000000,41724.000000
61376.000000,2274.000000,61925.000000,41714.000000
61365.000000,2274.000000,61951.000000,41728.000000
61408.000000,2297.000000,62000.000000,41717.000000
61417.000000,2288.000000,62019.000000,41720.000000
61427.000000,2323.000000,62047.000000,41740.000000
61439.000000,2345.000000,62061.000000,41749.000000
61504.000000,2349.000000,62091.000000,41787.000000
61527.000000,2345.000000,62127.000000,41774.000000
61538.000000,2414.000000,62181.000000,41767.000000
61560.000000,2421.000000,62156.000000,41792.000000
61589.000000,2463.000000,62215.000000,41796.000000
61611.000000,2468.000000,62207.000000,41817.000000
61647.000000,2495.000000,62249.000000,41832.000000
61666.000000,2501.000000,62246.000000,41876.000000
61702.000000,2520.000000,62257.000000,41861.000000
61709.000000,2572.000000,62291.000000,41880.000000
61740.000000,2554.000000,62290.000000,41894.000000
61771.000000,2609.000000,62307.000000,41911.000000
61793.000000,2618.000000,62306.000000,41910.000000
61775.000000,2629.000000,62334.000000,41912.000000
61778.000000,2648.000000,62316.000000,41925.000000
61811.000000,2635.000000,62323.000000,41913.000000
61840.000000,2663.000000,62299.000000,41940.000000
61854.000000,2695.000000,62305.000000,41969.000000
61845.000000,2673.000000,62320.000000,41980.000000
61851.000000,2689.000000,62304.000000,41941.000000
61851.000000,2688.000000,62319.000000,41980.000000
61832.000000,2652.000000,62338.000000,41938.000000
61835.000000,2649.000000,62287.000000,41967.000000
61885.000000,2672.000000,62290.000000,41957.000000
61835.000000,2672.000000,62281.000000,41967.000000
61857.000000,2659.000000,62310.000000,41948.000000
61828.000000,2692.000000,62306.000000,41955.000000
61852.000000,2710.000000,62314.000000,41985.000000
61830.000000,2651.000000,62301.000000,41954.000000
61806.000000,2635.000000,62311.000000,41956.000000
61828.000000,2668.000000,62277.000000,41961.000000
61843.000000,2682.000000,62276.000000,41983.000000
61829.000000,2639.000000,62266.000000,41963.000000
61826.000000,2652.000000,62264.000000,41946.000000
61822.000000,2656.000000,62261.000000,41972.000000
61831.000000,2646.000000,62235.000000,41964.000000
61801.000000,2650.000000,62263.000000,41938.000000
61840.000000,2653.000000,62265.000000,41953.000000
61836.000000,2654.000000,62261.000000,41941.000000
61820.000000,2646.000000,62252.000000,41934.000000
61805.000000,2616.000000,62245.000000,41934.000000
61793.000000,2624.000000,62219.000000,41912.000000
61797.000000,2631.000000,62259.000000,41931.000000
61796.000000,2631.000000,62237.000000,41951.000000
61803.000000,2623.000000,62239.000000,41925.000000
61801.000000,2616.000000,62253.000000,41938.000000
61775.000000,2608.000000,62223.000000,41939.000000
61791.000000,2618.000000,62217.000000,41930.000000
61752.000000,2568.000000,62198.000000,41891.000000
61769.000000,2610.000000,62204.000000,41931.000000
61758.000000,2630.000000,62216.000000,41913.000000
61777.000000,2621.000000,62210.000000,41933.000000
61781.000000,2636.000000,62228.000000,41923.000000
61716.000000,2608.000000,62210.000000,41935.000000
61765.000000,2618.000000,62195.000000,41897.000000
61722.000000,2599.000000,62183.000000,41900.000000
61725.000000,2572.000000,62181.000000,41883.000000
61738.000000,2608.000000,62223.000000,41885.000000
61724.000000,2614.000000,62192.000000,41926.000000
61739.000000,2593.000000,62197.000000,41895.000000
61737.000000,2612.000000,62198.000000,41910.000000
61712.000000,2587.000000,62207.000000,41901.000000
61705.000000,2587.000000,62194.000000,41891.000000
61726.000000,2577.000000,62150.000000,41877.000000
61720.000000,2590.000000,62173.000000,41889.000000
61743.000000,2595.000000,62188.000000,41866.000000
61720.000000,2592.000000,62160.000000,41888.000000
61704.000000,2574.000000,62157.000000,41897.000000
61714.000000,2583.000000,62168.000000,41885.000000
61700.000000,2559.000000,62139.000000,41884.000000
61705.000000,2572.000000,62145.000000,41844.000000
61693.000000,2544.000000,62154.000000,41872.000000
61668.000000,2546.000000,62141.000000,41859.000000
61685.000000,2551.000000,62151.000000,41880.000000
61683.000000,2522.000000,62120.000000,41862.000000
61694.000000,2558.000000,62132.000000,41884.000000
61655.000000,2529.000000,62116.000000,41857.000000
61708.000000,2554.000000,62109.000000,41878.000000
61693.000000,2533.000000,62110.000000,41861.000000
61654.000000,2514.000000,62094.000000,41832.000000
61683.000000,2517.000000,62103.000000,41852.000000
61669.000000,2523.000000,62080.000000,41885.000000
61657.000000,2518.000000,62054.000000,41847.000000
61644.000000,2498.000000,62061.000000,41855.000000
61619.000000,2503.000000,62055.000000,41859.000000
61645.000000,2465.000000,62040.000000,41828.000000
61641.000000,2483.000000,62059.000000,41823.000000
61625.000000,2467.000000,62054.000000,41829.000000
61643.000000,2497.000000,62036.000000,41865.000000
61620.000000,2475.000000,62039.000000,41820.000000
61604.000000,2467.000000,62037.000000,41822.000000
61613.000000,2479.000000,61992.000000,41802.000000
61613.000000,2456.000000,62004.000000,41802.000000
61609.000000,2470.000000,61988.000000,41788.000000
61582.000000,2463.000000,61989.000000,41831.000000
61585.000000,2454.000000,61994.000000,41828.000000
61593.000000,2467.000000,61998.000000,41790.000000
61571.000000,2447.000000,61977.000000,41795.000000
61535.000000,2404.000000,61970.000000,41811.000000
61544.000000,2415.000000,61966.000000,41791.000000
61562.000000,2417.000000,61954.000000,41789.000000
61515.000000,2392.000000,61960.000000,41788.000000
61518.000000,2431.000000,61976.000000,41776.000000
61538.000000,2435.000000,61978.000000,41782.000000
61504.000000,2439.000000,61959.000000,41783.000000
61510.000000,2422.000000,62001.000000,41791.000000
61506.000000,2419.000000,61971.000000,41793.000000
61511.000000,2384.000000,61973.000000,41783.000000
61511.000000,2375.000000,61965.000000,41755.000000
61515.000000,2395.000000,61950.000000,41760.000000
61504.000000,2387.000000,61962.000000,41784.000000
61514.000000,2399.000000,61944.000000,41775.000000
61508.000000,2409.000000,61938.000000,41750.000000
61505.000000,2390.000000,61936.000000,41751.000000
61503.000000,2379.000000,61900.000000,41782.000000
61495.000000,2358.000000,61890.000000,41767.000000
61476.000000,2376.000000,61877.000000,41743.000000
61474.000000,2376.000000,61884.000000,41753.000000
61476.000000,2364.000000,61865.000000,41749.000000
61468.000000,2325.000000,61878.000000,41735.000000
61446.000000,2347.000000,61837.000000,41740.000000
61476.000000,2313.000000,61827.000000,41747.000000
61446.000000,2333.000000,61804.000000,41724.000000
61421.000000,2287.000000,61786.000000,41734.000000
61427.000000,2317.000000,61798.000000,41740.000000
61393.000000,2282.000000,61797.000000,41718.000000
61392.000000,2271.000000,61762.000000,41710.000000
61364.000000,2249.000000,61764.000000,41688.000000
61364.000000,2241.000000,61780.000000,41698.000000
61354.000000,2227.000000,61787.000000,41677.000000
61353.000000,2246.000000,61751.000000,41676.000000
61339.000000,2211.000000,61763.000000,41701.000000
61348.000000,2246.000000,61766.000000,41675.000000
61324.000000,2238.000000,61755.000000,41692.000000
61338.000000,2208.000000,61789.000000,41673.000000
61338.000000,2244.000000,61733.000000,41696.000000
61337.000000,2215.000000,61737.000000,41658.000000
61314.000000,2190.000000,61747.000000,41657.000000
61312.000000,2215.000000,61789.000000,41675.000000
61328.000000,2229.000000,61766.000000,41682.000000
61342.000000,2196.000000,61777.000000,41664.000000
61282.000000,2212.000000,61772.000000,41637.000000
61282.000000,2188.000000,61771.000000,41675.000000
61305.000000,2196.000000,61798.000000,41695.000000
61313.000000,2227.000000,61801.000000,41704.000000
61307.000000,2216.000000,61826.000000,41652.000000
61319.000000,2221.000000,61865.000000,41672.000000
61350.000000,2253.000000,61873.000000,41689.000000
61382.000000,2228.000000,61878.000000,41674.000000
61370.000000,2248.000000,61917.000000,41688.000000
61351.000000,2236.000000,61927.000000,41679.000000
61389.000000,2272.000000,61927.000000,41697.000000
61421.000000,2294.000000,61986.000000,41728.000000
61439.000000,2308.000000,61969.000000,41711.000000
61432.000000,2349.000000,62052.000000,41706.000000
61426.000000,2326.000000,62055.000000,41732.000000
61477.000000,2353.000000,62068.000000,41743.000000
61496.000000,2373.000000,62123.000000,41743.000000
61489.000000,2385.000000,62124.000000,41773.000000
61547.000000,2416.000000,62179.000000,41754.000000
61560.000000,2416.000000,62188.000000,41787.000000
61584.000000,2423.000000,62204.000000,41800.000000
61628.000000,2483.000000,62215.000000,41811.000000
61630.000000,2478.000000,62226.000000,41804.000000
61655.000000,2507.000000,62234.000000,41866.000000
61689.000000,2517.000000,62200.000000,41851.000000
61684.000000,2552.000000,62239.000000,41855.000000
61722.000000,2558.000000,62286.000000,41896.000000
61723.000000,2588.000000,62255.000000,41862.000000
61739.000000,2575.000000,62242.000000,41880.000000
61741.000000,2620.000000,62220.000000,41860.000000
61767.000000,2580.000000,62224.000000,41914.000000
61685.000000,2617.000000,62222.000000,41864.000000
61774.000000,2596.000000,62226.000000,41884.000000
61754.000000,2642.000000,62220.000000,41875.000000
61769.000000,2611.000000,62210.000000,41911.000000
61787.000000,2627.000000,62233.000000,41906.000000
61733.000000,2631.000000,62200.000000,41911.000000
61759.000000,2625.000000,62206.000000,41913.000000
61764.000000,2605.000000,62200.000000,41883.000000
61741.000000,2613.000000,62218.000000,41892.000000
61734.000000,2604.000000,62221.000000,41876.000000
61743.000000,2623.000000,62195.000000,41899.000000
61735.000000,2616.000000,62209.000000,41889.000000
61750.000000,2623.000000,62182.000000,41892.000000
61740.000000,2618.000000,62180.000000,41857.000000
61697.000000,2576.000000,62178.000000,41869.000000
61722.000000,2607.000000,62186.000000,41867.000000
61731.000000,2574.000000,62198.000000,41884.000000
61723.000000,2569.000000,62181.000000,41868.000000
61719.000000,2569.000000,62169.000000,41846.000000
61706.000000,2599.000000,62165.000000,41852.000000
61716.000000,2561.000000,62135.000000,41860.000000
61716.000000,2574.000000,62191.000000,41850.000000
61680.000000,2573.000000,62183.000000,41865.000000
61672.000000,2598.000000,62178.000000,41870.000000
61683.000000,2588.000000,62154.000000,41878.000000
61714.000000,2591.000000,62173.000000,41874.000000
61717.000000,2574.000000,62170.000000,41862.000000
61669.000000,2574.000000,62186.000000,41892.000000
61704.000000,2557.000000,62187.000000,41856.000000
61698.000000,2567.000000,62170.000000,41880.000000
61693.000000,2551.000000,62155.000000,41851.000000
61717.000000,2583.000000,62150.000000,41893.000000
61704.000000,2549.000000,62169.000000,41845.000000
61686.000000,2560.000000,62161.000000,41887.000000
61685.000000,2569.000000,62133.000000,41877.000000
61673.000000,2551.000000,62129.000000,41856.000000
61684.000000,2558.000000,62113.000000,41874.000000
61673.000000,2521.000000,62136.000000,41850.000000
61655.000000,2544.000000,62152.000000,41844.000000
61668.000000,2579.000000,62134.000000,41855.000000
61690.000000,2561.000000,62154.000000,41856.000000
61677.000000,2556.000000,62124.000000,41841.000000
61654.000000,2558.000000,62137.000000,41845.000000
61658.000000,2564.000000,62100.000000,41866.000000
61659.000000,2541.000000,62101.000000,41833.000000
61634.000000,2540.000000,62087.000000,41823.000000
61637.000000,2521.000000,62111.000000,41829.000000
61677.000000,2539.000000,62103.000000,41844.000000
61646.000000,2576.000000,62111.000000,41809.000000
61618.000000,2538.000000,62135.000000,41841.000000
61616.000000,2529.000000,62098.000000,41852.000000
61615.000000,2536.000000,62107.000000,41824.000000
61629.000000,2531.000000,62093.000000,41816.000000
61636.000000,2509.000000,62090.000000,41828.000000
61641.000000,2495.000000,62062.000000,41800.000000
61617.000000,2476.000000,62080.000000,41856.000000
61603.000000,2495.000000,62078.000000,41813.000000
61631.000000,2493.000000,62043.000000,41831.000000
61572.000000,2474.000000,62054.000000,41820.000000
61621.000000,2465.000000,62092.000000,41827.000000
61582.000000,2505.000000,62055.000000,41825.000000
61603.000000,2534.000000,62068.000000,41839.000000
61614.000000,2471.000000,62072.000000,41811.000000
61586.000000,2452.000000,62057.000000,41794.000000
61595.000000,2527.000000,62051.000000,41825.000000
61580.000000,2488.000000,62043.000000,41824.000000
61570.000000,2523.000000,62048.000000,41798.000000
61587.000000,2490.000000,62016.000000,41829.000000
61571.000000,2464.000000,62017.000000,41814.000000
61572.000000,2459.000000,62005.000000,41798.000000
61551.000000,2461.000000,62006.000000,41820.000000
61565.000000,2451.000000,62024.000000,41805.000000
61545.000000,2443.000000,61987.000000,41782.000000
61557.000000,2441.000000,62013.000000,41787.000000
61554.000000,2458.000000,61975.000000,41776.000000
61531.000000,2446.000000,62004.000000,41804.000000
61513.000000,2452.000000,61973.000000,41790.000000
61505.000000,2418.000000,61988.000000,41788.000000
61527.000000,2413.000000,61987.000000,41769.000000
61488.000000,2411.000000,61958.000000,41758.000000
61493.000000,2442.000000,61977.000000,41781.000000
61499.000000,2428.000000,61965.000000,41734.000000
61478.000000,2399.000000,61992.000000,41786.000000
61494.000000,2431.000000,61943.000000,41741.000000
61482.000000,2402.000000,61954.000000,41750.000000
61473.000000,2396.000000,61963.000000,41766.000000
61487.000000,2395.000000,61944.000000,41774.000000
61478.000000,2396.000000,61955.000000,41745.000000
61482.000000,2386.000000,61932.000000,41759.000000
61449.000000,2366.000000,61927.000000,41758.000000
61465.000000,2403.000000,61918.000000,41764.000000
61451.000000,2411.000000,61959.000000,41755.000000
61429.000000,2378.000000,61918.000000,41732.000000
61432.000000,2382.000000,61893.000000,41740.000000
61435.000000,2370.000000,61907.000000,41765.000000
61452.000000,2339.000000,61885.000000,41754.000000
61420.000000,2375.000000,61878.000000,41719.000000
61435.000000,2366.000000,61851.000000,41737.000000
61426.000000,2324.000000,61839.000000,41725.000000
61415.000000,2334.000000,61843.000000,41753.000000
61384.000000,2308.000000,61842.000000,41718.000000
61413.000000,2314.000000,61823.000000,41739.000000
61364.000000,2322.000000,61828.000000,41710.000000
61351.000000,2295.000000,61806.000000,41710.000000
61320.000000,2284.000000,61805.000000,41715.000000
61315.000000,2310.000000,61776.000000,41700.000000
61347.000000,2289.000000,61804.000000,41662.000000
61323.000000,2260.000000,61790.000000,41654.000000
61293.000000,2238.000000,61770.000000,41682.000000
61315.000000,2264.000000,61773.000000,41689.000000
61310.000000,2264.000000,61786.000000,41679.000000
61282.000000,2261.000000,61759.000000,41666.000000
61257.000000,2250.000000,61799.000000,41669.000000
61309.000000,2257.000000,61803.000000,41689.000000
61263.000000,2237.000000,61784.000000,41663.000000
61279.000000,2232.000000,61779.000000,41663.000000
61295.000000,2219.000000,61796.000000,41666.000000
61274.000000,2215.000000,61798.000000,41697.000000
61289.000000,2232.000000,61810.000000,41666.000000
61280.000000,2252.000000,61810.000000,41664.000000
61279.000000,2237.000000,61826.000000,41658.000000
61276.000000,2231.000000,61816.000000,41681.000000
61278.000000,2218.000000,61862.000000,41684.000000
61285.000000,2211.000000,61848.000000,41685.000000
61271.000000,2274.000000,61911.000000,41704.000000
61301.000000,2283.000000,61891.000000,41692.000000
61312.000000,2303.000000,61906.000000,41698.000000
61292.000000,2268.000000,61934.000000,41683.000000
61330.000000,2288.000000,61933.000000,41680.000000
61351.000000,2283.000000,61971.000000,41684.000000
61366.000000,2322.000000,61983.000000,41709.000000
61367.000000,2332.000000,61986.000000,41743.000000
61385.000000,2358.000000,62051.000000,41735.000000
61425.000000,2340.000000,62087.000000,41741.000000
61419.000000,2380.000000,62090.000000,41743.000000
61469.000000,2376.000000,62115.000000,41771.000000
61480.000000,2415.000000,62081.000000,41765.000000
61511.000000,2441.000000,62169.000000,41779.000000
61534.000000,2465.000000,62192.000000,41796.000000
61527.000000,2478.000000,62210.000000,41816.000000
61573.000000,2488.000000,62255.000000,41831.000000
61608.000000,2507.000000,62237.000000,41831.000000
61623.000000,2536.000000,62258.000000,41845.000000
61659.000000,2571.000000,62283.000000,41882.000000
61673.000000,2584.000000,62311.000000,41871.000000
61671.000000,2583.000000,62292.000000,41872.000000
61714.000000,2614.000000,62319.000000,41934.000000
61722.000000,2647.000000,62323.000000,41914.000000
61758.000000,2667.000000,62307.000000,41900.000000
61742.000000,2670.000000,62300.000000,41934.000000
61779.000000,2680.000000,62318.000000,41963.000000
61775.000000,2665.000000,62298.000000,41914.000000
61783.000000,2680.000000,62334.000000,41942.000000
61800.000000,2691.000000,62309.000000,41964.000000
61818.000000,2685.000000,62290.000000,41943.000000
61794.000000,2696.000000,62313.000000,41933.000000
61789.000000,2697.000000,62277.000000,41935.000000
61781.000000,2661.000000,62299.000000,41945.000000
61801.000000,2696.000000,62278.000000,41956.000000
61780.000000,2715.000000,62285.000000,41939.000000
61776.000000,2674.000000,62305.000000,41932.000000
61775.000000,2680.000000,62302.000000,41940.000000
61764.000000,2666.000000,62285.000000,41930.000000
61771.000000,2708.000000,62246.000000,41928.000000
61740.000000,2673.000000,62276.000000,41925.000000
61775.000000,2685.000000,62279.000000,41937.000000
61744.000000,2677.000000,62283.000000,41942.000000
61773.000000,2706.000000,62305.000000,41936.000000
61752.000000,2669.000000,62273.000000,41930.000000
61734.000000,2679.000000,62249.000000,41924.000000
61733.000000,2671.000000,62266.000000,41945.000000
61733.000000,2679.000000,62282.000000,41924.000000
61740.000000,2642.000000,62269.000000,41918.000000
61749.000000,2677.000000,62280.000000,41950.000000
61751.000000,2677.000000,62261.000000,41913.000000
61748.000000,2667.000000,62246.000000,41910.000000
61732.000000,2656.000000,62254.000000,41918.000000
61708.000000,2683.000000,62265.000000,41913.000000
61751.000000,2658.000000,62236.000000,41921.000000
61734.000000,2653.000000,62242.000000,41919.000000
61740.000000,2668.000000,62260.000000,41938.000000
61721.000000,2669.000000,62224.000000,41924.000000
61715.000000,2655.000000,62242.000000,41890.000000
61711.000000,2654.000000,62239.000000,41918.000000
61733.000000,2634.000000,62260.000000,41919.000000
61718.000000,2641.000000,62245.000000,41909.000000
61703.000000,2658.000000,62243.000000,41914.000000
61677.000000,2654.000000,62223.000000,41898.000000
61677.000000,2643.000000,62189.000000,41904.000000
61699.000000,2598.000000,62250.000000,41898.000000
61711.000000,2636.000000,62222.000000,41893.000000
61705.000000,2637.000000,62223.000000,41910.000000
61707.000000,2647.000000,62220.000000,41914.000000
61689.000000,2659.000000,62227.000000,41909.000000
61662.000000,2609.000000,62198.000000,41896.000000
61720.000000,2606.000000,62185.000000,41888.000000
61695.000000,2602.000000,62204.000000,41921.000000
61678.000000,2624.000000,62185.000000,41891.000000
61692.000000,2618.000000,62207.000000,41892.000000
61686.000000,2606.000000,62221.000000,41886.000000
61664.000000,2570.000000,62179.000000,41873.000000
61657.000000,2591.000000,62167.000000,41881.000000
61663.000000,2611.000000,62179.000000,41881.000000
61650.000000,2592.000000,62150.000000,41864.000000
61646.000000,2592.000000,62144.000000,41913.000000
61671.000000,2590.000000,62175.000000,41867.000000
61615.000000,2567.000000,62135.000000,41890.000000
61641.000000,2544.000000,62130.000000,41891.000000
61645.000000,2579.000000,62113.000000,41858.000000
61660.000000,2562.000000,62139.000000,41834.000000
61606.000000,2550.000000,62146.000000,41885.000000
61609.000000,2582.000000,62129.000000,41859.000000
61606.000000,2547.000000,62100.000000,41870.000000
61602.000000,2541.000000,62097.000000,41876.000000
61607.000000,2561.000000,62090.000000,41841.000000
61570.000000,2535.000000,62099.000000,41868.000000
61574.000000,2530.000000,62085.000000,41864.000000
61615.000000,2528.000000,62108.000000,41840.000000
61580.000000,2506.000000,62080.000000,41859.000000
61562.000000,2508.000000,62100.000000,41822.000000
61559.000000,2489.000000,62075.000000,41853.000000
61577.000000,2486.000000,62055.000000,41833.000000
61515.000000,2486.000000,62094.000000,41802.000000
61539.000000,2503.000000,62044.000000,41826.000000
61541.000000,2493.000000,62070.000000,41825.000000
61554.000000,2488.000000,62040.000000,41844.000000
61525.000000,2485.000000,62058.000000,41805.000000
61524.000000,2454.000000,62058.000000,41818.000000
61540.000000,2462.000000,62062.000000,41806.000000
61497.000000,2466.000000,62044.000000,41810.000000
61554.000000,2465.000000,62082.000000,41808.000000
61525.000000,2463.000000,62036.000000,41827.000000
61542.000000,2480.000000,62040.000000,41817.000000
61523.000000,2470.000000,62032.000000,41817.000000
61527.000000,2460.000000,62037.000000,41816.000000
61522.000000,2453.000000,62021.000000,41828.000000
61499.000000,2460.000000,62013.000000,41804.000000
61498.000000,2477.000000,62013.000000,41814.000000
61507.000000,2460.000000,62012.000000,41805.000000
61512.000000,2458.000000,62004.000000,41808.000000
61516.000000,2428.000000,61959.000000,41799.000000
61493.000000,2448.000000,61964.000000,41796.000000
61499.000000,2394.000000,61957.000000,41795.000000
61484.000000,2418.000000,61945.000000,41785.000000
61498.000000,2403.000000,61948.000000,41793.000000
61479.000000,2407.000000,61907.000000,41781.000000
61438.000000,2386.000000,61906.000000,41777.000000
61441.000000,2400.000000,61911.000000,41774.000000
61410.000000,2383.000000,61906.000000,41781.000000
61403.000000,2369.000000,61893.000000,41761.000000
61376.000000,2363.000000,61853.000000,41766.000000
61373.000000,2321.000000,61850.000000,41758.000000
61383.000000,2295.000000,61875.000000,41748.000000
61348.000000,2324.000000,61876.000000,41732.000000
61352.000000,2317.000000,61850.000000,41757.000000
61352.000000,2293.000000,61866.000000,41746.000000
61349.000000,2306.000000,61880.000000,41718.000000
61287.000000,2315.000000,61854.000000,41706.000000
61348.000000,2284.000000,61857.000000,41724.000000
61329.000000,2299.000000,61860.000000,41729.000000
61336.000000,2295.000000,61876.000000,41734.000000
61342.000000,2301.000000,61894.000000,41736.000000
61326.000000,2306.000000,61917.000000,41711.000000
61319.000000,2288.000000,61905.000000,41693.000000
61313.000000,2307.000000,61891.000000,41719.000000
61366.000000,2291.000000,61884.000000,41740.000000
61306.000000,2299.000000,61919.000000,41736.000000
61336.000000,2301.000000,61905.000000,41738.000000
61353.000000,2313.000000,61925.000000,41722.000000
61378.000000,2287.000000,61921.000000,41749.000000
61369.000000,2308.000000,61960.000000,41755.000000
61350.000000,2325.000000,61931.000000,41746.000000
61379.000000,2325.000000,61970.000000,41724.000000
61368.000000,2303.000000,61971.000000,41743.000000
61401.000000,2333.000000,62013.000000,41751.000000
61406.000000,2350.000000,62022.000000,41738.000000
61420.000000,2339.000000,62061.000000,41741.000000
61380.000000,2371.000000,62071.000000,41744.000000
61439.000000,2355.000000,62114.000000,41781.000000
61434.000000,2368.000000,62144.000000,41759.000000
61436.000000,2419.000000,62154.000000,41788.000000
61499.000000,2406.000000,62194.000000,41815.000000
61537.000000,2477.000000,62236.000000,41782.000000
61536.000000,2471.000000,62233.000000,41806.000000
61552.000000,2493.000000,62252.000000,41866.000000
61575.000000,2508.000000,62305.000000,41850.000000
61642.000000,2525.000000,62302.000000,41874.000000
61627.000000,2559.000000,62311.000000,41884.000000
61692.000000,2578.000000,62322.000000,41910.000000
61708.000000,2622.000000,62312.000000,41916.000000
61722.000000,2616.000000,62356.000000,41911.000000
61744.000000,2648.000000,62393.000000,41945.000000
61738.000000,2680.000000,62354.000000,41981.000000
61793.000000,2676.000000,62386.000000,41966.000000
61761.000000,2688.000000,62368.000000,41958.000000
61792.000000,2702.000000,62371.000000,41951.000000
61794.000000,2710.000000,62387.000000,41954.000000
61831.000000,2714.000000,62369.000000,41950.000000
61828.000000,2720.000000,62372.000000,41996.000000
61831.000000,2722.000000,62364.000000,41962.000000
61846.000000,2736.000000,62356.000000,41964.000000
61820.000000,2740.000000,62370.000000,41979.000000
61818.000000,2720.000000,62366.000000,42004.000000
61822.000000,2707.000000,62365.000000,41970.000000
61802.000000,2738.000000,62342.000000,41994.000000
61822.000000,2701.000000,62363.000000,41966.000000
61801.000000,2715.000000,62348.000000,41963.000000
61820.000000,2714.000000,62331.000000,41966.000000
61800.000000,2731.000000,62330.000000,41975.000000
61798.000000,2724.000000,62367.000000,41972.000000
61816.000000,2716.000000,62339.000000,41965.000000
61793.000000,2713.000000,62350.000000,41950.000000
61777.000000,2732.000000,62330.000000,41972.000000
61796.000000,2699.000000,62317.000000,41965.000000
61788.000000,2706.000000,62331.000000,41932.000000
61788.000000,2702.000000,62351.000000,41971.000000
61783.000000,2694.000000,62332.000000,41970.000000
61802.000000,2720.000000,62290.000000,41944.000000
61779.000000,2692.000000,62308.000000,41962.000000
61774.000000,2677.000000,62310.000000,41957.000000
61772.000000,2704.000000,62323.000000,41970.000000
61778.000000,2680.000000,62312.000000,41941.000000
61794.000000,2672.000000,62294.000000,41963.000000
61739.000000,2673.000000,62300.000000,41931.000000
61739.000000,2674.000000,62295.000000,41924.000000
61761.000000,2643.000000,62297.000000,41948.000000
61753.000000,2677.000000,62267.000000,41973.000000
61748.000000,2669.000000,62291.000000,41954.000000
61760.000000,2693.000000,62288.000000,41945.000000
61753.000000,2651.000000,62274.000000,41951.000000
61720.000000,2667.000000,62278.000000,41929.000000
61757.000000,2666.000000,62260.000000,41945.000000
61761.000000,2667.000000,62249.000000,41942.000000
61736.000000,2645.000000,62239.000000,41947.000000
61731.000000,2656.000000,62257.000000,41938.000000
61720.000000,2675.000000,62257.000000,41945.000000
61721.000000,2631.000000,62252.000000,41936.000000
61699.000000,2621.000000,62260.000000,41913.000000
61692.000000,2617.000000,62213.000000,41931.000000
61733.000000,2633.000000,62206.000000,41918.000000
61733.000000,2606.000000,62236.000000,41898.000000
61702.000000,2661.000000,62224.000000,41909.000000
61689.000000,2623.000000,62238.000000,41910.000000
61721.000000,2625.000000,62230.000000,41903.000000
61692.000000,2623.000000,62200.000000,41895.000000
61688.000000,2597.000000,62224.000000,41899.000000
61707.000000,2619.000000,62238.000000,41903.000000
61700.000000,2602.000000,62196.000000,41911.000000
61701.000000,2622.000000,62178.000000,41902.000000
61667.000000,2590.000000,62193.000000,41893.000000
61668.000000,2578.000000,62212.000000,41882.000000
61667.000000,2598.000000,62190.000000,41903.000000
61641.000000,2585.000000,62178.000000,41895.000000
61672.000000,2589.000000,62180.000000,41901.000000
61666.000000,2583.000000,62203.000000,41868.000000
61667.000000,2582.000000,62170.000000,41900.000000
61646.000000,2592.000000,62160.000000,41872.000000
61664.000000,2585.000000,62184.000000,41899.000000
61657.000000,2581.000000,62197.000000,41877.000000
61619.000000,2576.000000,62163.000000,41895.000000
61642.000000,2543.000000,62169.000000,41881.000000
61628.000000,2565.000000,62174.000000,41873.000000
61656.000000,2539.000000,62175.000000,41860.000000
61638.000000,2543.000000,62178.000000,41906.000000
61608.000000,2538.000000,62206.000000,41890.000000
61606.000000,2571.000000,62154.000000,41876.000000
61620.000000,2540.000000,62131.000000,41880.000000
61641.000000,2533.000000,62117.000000,41852.000000
61608.000000,2549.000000,62108.000000,41862.000000
61644.000000,2543.000000,62148.000000,41896.000000
61631.000000,2567.000000,62143.000000,41870.000000
61570.000000,2566.000000,62123.000000,41901.000000
61606.000000,2536.000000,62112.000000,41868.000000
61581.000000,2543.000000,62099.000000,41873.000000
61576.000000,2512.000000,62082.000000,41866.000000
61583.000000,2519.000000,62085.000000,41858.000000
61556.000000,2521.000000,62057.000000,41854.000000
61594.000000,2512.000000,62054.000000,41844.000000
61567.000000,2497.000000,62054.000000,41826.000000
61550.000000,2458.000000,62046.000000,41826.000000
61542.000000,2477.000000,62009.000000,41842.000000
61510.000000,2458.000000,62000.000000,41852.000000
61537.000000,2441.000000,62001.000000,41817.000000
61490.000000,2467.000000,62010.000000,41827.000000
61483.000000,2416.000000,61998.000000,41813.000000
61477.000000,2436.000000,62001.000000,41825.000000
61492.000000,2429.000000,61995.000000,41800.000000
61423.000000,2416.000000,61972.000000,41772.000000
61512.000000,2419.000000,61971.000000,41811.000000
61473.000000,2414.000000,61984.000000,41771.000000
61441.000000,2409.000000,61995.000000,41799.000000
61457.000000,2376.000000,61963.000000,41782.000000
61462.000000,2407.000000,61979.000000,41784.000000
61466.000000,2416.000000,61976.000000,41779.000000
61413.000000,2413.000000,61977.000000,41774.000000
61447.000000,2371.000000,61990.000000,41796.000000
61432.000000,2346.000000,61979.000000,41777.000000
61449.000000,2373.000000,61995.000000,41775.000000
61434.000000,2395.000000,62011.000000,41783.000000
61466.000000,2418.000000,62010.000000,41769.000000
61438.000000,2389.000000,62028.000000,41775.000000
61452.000000,2412.000000,62025.000000,41774.000000
61430.000000,2390.000000,62036.000000,41789.000000
61480.000000,2378.000000,62054.000000,41803.000000
61459.000000,2396.000000,62053.000000,41787.000000
61461.000000,2394.000000,62075.000000,41786.000000
61479.000000,2389.000000,62080.000000,41823.000000
61482.000000,2424.000000,62121.000000,41822.000000
61492.000000,2443.000000,62146.000000,41830.000000
61506.000000,2440.000000,62179.000000,41804.000000
61526.000000,2442.000000,62205.000000,41834.000000
61519.000000,2448.000000,62222.000000,41830.000000
61532.000000,2474.000000,62250.000000,41848.000000
61547.000000,2499.000000,62291.000000,41828.000000
61630.000000,2529.000000,62291.000000,41853.000000
61633.000000,2515.000000,62320.000000,41840.000000
61640.000000,2562.000000,62353.000000,41895.000000
61686.000000,2613.000000,62377.000000,41887.000000
61704.000000,2590.000000,62374.000000,41908.000000
61741.000000,2634.000000,62416.000000,41918.000000
61743.000000,2679.000000,62397.000000,41933.000000
61747.000000,2667.000000,62443.000000,41939.000000
61806.000000,2703.000000,62400.000000,41955.000000
61807.000000,2703.000000,62431.000000,41961.000000
61817.000000,2714.000000,62416.000000,41943.000000
61849.000000,2741.000000,62422.000000,41963.000000
61871.000000,2769.000000,62452.000000,41989.000000
61883.000000,2786.000000,62448.000000,41989.000000
61877.000000,2773.000000,62427.000000,41986.000000
61880.000000,2792.000000,62429.000000,41976.000000
61891.000000,2790.000000,62437.000000,41971.000000
61866.000000,2770.000000,62411.000000,42006.000000
61869.000000,2767.000000,62405.000000,41975.000000
61880.000000,2766.000000,62421.000000,42038.000000
61846.000000,2744.000000,62413.000000,42001.000000
61858.000000,2763.000000,62395.000000,41979.000000
61865.000000,2756.000000,62381.000000,42015.000000
61891.000000,2768.000000,62407.000000,42000.000000
61831.000000,2748.000000,62406.000000,41980.000000
61865.000000,2747.000000,62403.000000,42006.000000
61862.000000,2753.000000,62412.000000,41996.000000
61858.000000,2758.000000,62396.000000,41998.000000
61854.000000,2750.000000,62372.000000,41982.000000
61866.000000,2736.000000,62404.000000,42024.000000
61853.000000,2732.000000,62397.000000,41967.000000
61822.000000,2767.000000,62394.000000,42004.000000
61839.000000,2730.000000,62382.000000,41995.000000
61811.000000,2757.000000,62394.000000,41981.000000
61800.000000,2727.000000,62390.000000,41989.000000
61847.000000,2717.000000,62375.000000,41977.000000
61854.000000,2741.000000,62369.000000,41984.000000
61847.000000,2737.000000,62384.000000,41983.000000
61843.000000,2766.000000,62345.000000,41974.000000
61814.000000,2717.000000,62370.000000,41987.000000
61815.000000,2744.000000,62358.000000,42005.000000
61815.000000,2745.000000,62345.000000,41945.000000
61815.000000,2710.000000,62349.000000,41956.000000
61827.000000,2749.000000,62340.000000,41960.000000
61793.000000,2732.000000,62324.000000,41967.000000
61801.000000,2737.000000,62322.000000,41962.000000
61806.000000,2727.000000,62335.000000,42009.000000
