660nm,730nm,850nm,940nm
19451.000000,10213.000000,15986.000000,54452.000000
19402.000000,10172.000000,15993.000000,54511.000000
19403.000000,10133.000000,15982.000000,54459.000000
19394.000000,10133.000000,15928.000000,54449.000000
19355.000000,10124.000000,15927.000000,54422.000000
19365.000000,10127.000000,15880.000000,54427.000000
19318.000000,10066.000000,15848.000000,54389.000000
19283.000000,10116.000000,15852.000000,54416.000000
19251.000000,10062.000000,15827.000000,54387.000000
19218.000000,10077.000000,15840.000000,54324.000000
19232.000000,10039.000000,15782.000000,54372.000000
19170.000000,10006.000000,15798.000000,54333.000000
19205.000000,10002.000000,15738.000000,54332.000000
19158.000000,9996.000000,15754.000000,54311.000000
19151.000000,9989.000000,15719.000000,54341.000000
19142.000000,9962.000000,15688.000000,54275.000000
19108.000000,9939.000000,15642.000000,54280.000000
19083.000000,9949.000000,15656.000000,54254.000000
19039.000000,9926.000000,15621.000000,54201.000000
19034.000000,9908.000000,15568.000000,54238.000000
18972.000000,9863.000000,15545.000000,54194.000000
18995.000000,9846.000000,15535.000000,54181.000000
18954.000000,9831.000000,15541.000000,54198.000000
18919.000000,9840.000000,15465.000000,54149.000000
18873.000000,9796.000000,15485.000000,54142.000000
18910.000000,9848.000000,15412.000000,54143.000000
18840.000000,9747.000000,15417.000000,54100.000000
18821.000000,9795.000000,15377.000000,54098.000000
18843.000000,9745.000000,15374.000000,54108.000000
18780.000000,9761.000000,15379.000000,54073.000000
18778.000000,9738.000000,15336.000000,54089.000000
18758.000000,9750.000000,15345.000000,54064.000000
18760.000000,9679.000000,15346.000000,54072.000000
18713.000000,9721.000000,15334.000000,54089.000000
18780.000000,9703.000000,15376.000000,54112.000000
18787.000000,9712.000000,15359.000000,54115.000000
18783.000000,9755.000000,15384.000000,54071.000000
18790.000000,9757.000000,15387.000000,54123.000000
18826.000000,9756.000000,15381.000000,54138.000000
18808.000000,9778.000000,15406.000000,54093.000000
18844.000000,9751.000000,15407.000000,54155.000000
18821.000000,9761.000000,15432.000000,54144.000000
18874.000000,9778.000000,15430.000000,54162.000000
18842.000000,9790.000000,15473.000000,54191.000000
18867.000000,9783.000000,15478.000000,54175.000000
18909.000000,9791.000000,15500.000000,54184.000000
18946.000000,9818.000000,15532.000000,54204.000000
19003.000000,9861.000000,15588.000000,54239.000000
18998.000000,9872.000000,15611.000000,54280.000000
19041.000000,9882.000000,15676.000000,54306.000000
19041.000000,9920.000000,15715.000000,54345.000000
19104.000000,9972.000000,15782.000000,54349.000000
19145.000000,10003.000000,15819.000000,54385.000000
19172.000000,9984.000000,15865.000000,54481.000000
19218.000000,10034.000000,15900.000000,54466.000000
19300.000000,10095.000000,15994.000000,54523.000000
19359.000000,10123.000000,16083.000000,54536.000000
19455.000000,10174.000000,16131.000000,54594.000000
19507.000000,10265.000000,16188.000000,54674.000000
19543.000000,10252.000000,16269.000000,54712.000000
19620.000000,10332.000000,16336.000000,54745.000000
19652.000000,10417.000000,16404.000000,54760.000000
19750.000000,10402.000000,16483.000000,54830.000000
19825.000000,10476.000000,16581.000000,54854.000000
19910.000000,10574.000000,16637.000000,54949.000000
20008.000000,10607.000000,16714.000000,54933.000000
20109.000000,10692.000000,16790.000000,54998.000000
20135.000000,10723.000000,16885.000000,55029.000000
20210.000000,10759.000000,16961.000000,55061.000000
20248.000000,10807.000000,17023.000000,55144.000000
20321.000000,10882.000000,17073.000000,55126.000000
20392.000000,10888.000000,17124.000000,55177.000000
20418.000000,10969.000000,17192.000000,55203.000000
20471.000000,10980.000000,17239.000000,55225.000000
20500.000000,11036.000000,17288.000000,55267.000000
20547.000000,11053.000000,17305.000000,55286.000000
20579.000000,11094.000000,17350.000000,55260.000000
20610.000000,11101.000000,17348.000000,55303.000000
20632.000000,11106.000000,17347.000000,55298.000000
20659.000000,11129.000000,17347.000000,55295.000000
20691.000000,11121.000000,17311.000000,55315.000000
20660.000000,11149.000000,17371.000000,55292.000000
20652.000000,11105.000000,17352.000000,55309.000000
20689.000000,11155.000000,17312.000000,55260.000000
20635.000000,11107.000000,17307.000000,55311.000000
20620.000000,11098.000000,17322.000000,55233.000000
20597.000000,11076.000000,17281.000000,55253.000000
20604.000000,11057.000000,17261.000000,55236.000000
20524.000000,11073.000000,17251.000000,55251.000000
20549.000000,11034.000000,17232.000000,55220.000000
20508.000000,10999.000000,17197.000000,55224.000000
20489.000000,11007.000000,17215.000000,55218.000000
20492.000000,10995.000000,17185.000000,55172.000000
20441.000000,10966.000000,17179.000000,55173.000000
20432.000000,10960.000000,17168.000000,55191.000000
20406.000000,10990.000000,17163.000000,55177.000000
20404.000000,10958.000000,17146.000000,55156.000000
20405.000000,10949.000000,17088.000000,55138.000000
20396.000000,10932.000000,17089.000000,55158.000000
20356.000000,10933.000000,17093.000000,55158.000000
20372.000000,10908.000000,17066.000000,55133.000000
20373.000000,10934.000000,17028.000000,55147.000000
20370.000000,10884.000000,17023.000000,55120.000000
20350.000000,10899.000000,17013.000000,55108.000000
20359.000000,10868.000000,16989.000000,55076.000000
20320.000000,10850.000000,17007.000000,55111.000000
20299.000000,10889.000000,16993.000000,55083.000000
20299.000000,10872.000000,16947.000000,55046.000000
20269.000000,10828.000000,16940.000000,55092.000000
20260.000000,10831.000000,16938.000000,55084.000000
20241.000000,10813.000000,16938.000000,55053.000000
20249.000000,10799.000000,16913.000000,55051.000000
20237.000000,10776.000000,16880.000000,55004.000000
20220.000000,10795.000000,16842.000000,55023.000000
20221.000000,10755.000000,16855.000000,55007.000000
20213.000000,10786.000000,16817.000000,55016.000000
20177.000000,10791.000000,16835.000000,55015.000000
20180.000000,10772.000000,16867.000000,54996.000000
20201.000000,10794.000000,16812.000000,54993.000000
20135.000000,10746.000000,16810.000000,54977.000000
20131.000000,10731.000000,16780.000000,54962.000000
20118.000000,10731.000000,16782.000000,54964.000000
20101.000000,10726.000000,16721.000000,54950.000000
20047.000000,10691.000000,16733.000000,54910.000000
20017.000000,10694.000000,16670.000000,54888.000000
20025.000000,10686.000000,16697.000000,54900.000000
19977.000000,10644.000000,16605.000000,54858.000000
19969.000000,10619.000000,16613.000000,54862.000000
19944.000000,10615.000000,16586.000000,54830.000000
19973.000000,10575.000000,16570.000000,54838.000000
19918.000000,10558.000000,16527.000000,54830.000000
19919.000000,10546.000000,16522.000000,54806.000000
19877.000000,10560.000000,16478.000000,54787.000000
19905.000000,10531.000000,16439.000000,54794.000000
19857.000000,10537.000000,16455.000000,54752.000000
19829.000000,10493.000000,16442.000000,54771.000000
19800.000000,10485.000000,16453.000000,54761.000000
19801.000000,10457.000000,16372.000000,54755.000000
19782.000000,10421.000000,16404.000000,54705.000000
19736.000000,10479.000000,16360.000000,54737.000000
19782.000000,10420.000000,16357.000000,54706.000000
19702.000000,10411.000000,16344.000000,54722.000000
19710.000000,10403.000000,16302.000000,54680.000000
19664.000000,10412.000000,16319.000000,54681.000000
19693.000000,10377.000000,16297.000000,54663.000000
19641.000000,10353.000000,16248.000000,54671.000000
19668.000000,10375.000000,16241.000000,54631.000000
19631.000000,10352.000000,16240.000000,54627.000000
19624.000000,10335.000000,16187.000000,54622.000000
19591.000000,10346.000000,16156.000000,54595.000000
19585.000000,10298.000000,16188.000000,54594.000000
19554.000000,10275.000000,16147.000000,54569.000000
19571.000000,10294.000000,16126.000000,54561.000000
19520.000000,10243.000000,16142.000000,54587.000000
19533.000000,10245.000000,16071.000000,54548.000000
19483.000000,10232.000000,16090.000000,54547.000000
19480.000000,10222.000000,16038.000000,54542.000000
19470.000000,10215.000000,16049.000000,54508.000000
19437.000000,10202.000000,16022.000000,54496.000000
19438.000000,10163.000000,15995.000000,54495.000000
19402.000000,10199.000000,15943.000000,54494.000000
19346.000000,10121.000000,15938.000000,54469.000000
19321.000000,10105.000000,15940.000000,54473.000000
19351.000000,10096.000000,15895.000000,54442.000000
19330.000000,10127.000000,15893.000000,54448.000000
19351.000000,10061.000000,15843.000000,54444.000000
19321.000000,10109.000000,15872.000000,54428.000000
19362.000000,10127.000000,15849.000000,54430.000000
19356.000000,10118.000000,15848.000000,54426.000000
19328.000000,10103.000000,15834.000000,54405.000000
19345.000000,10085.000000,15843.000000,54409.000000
19347.000000,10086.000000,15814.000000,54410.000000
19281.000000,10032.000000,15814.000000,54414.000000
19306.000000,10050.000000,15800.000000,54392.000000
19228.000000,10037.000000,15770.000000,54362.000000
19251.000000,10013.000000,15734.000000,54345.000000
19200.000000,10033.000000,15711.000000,54355.000000
19130.000000,10021.000000,15706.000000,54307.000000
19102.000000,9979.000000,15670.000000,54274.000000
19067.000000,9921.000000,15609.000000,54273.000000
19034.000000,9917.000000,15571.000000,54235.000000
18971.000000,9877.000000,15527.000000,54255.000000
18983.000000,9843.000000,15549.000000,54208.000000
18948.000000,9819.000000,15515.000000,54243.000000
18947.000000,9826.000000,15477.000000,54210.000000
18917.000000,9825.000000,15447.000000,54188.000000
18915.000000,9799.000000,15477.000000,54182.000000
18843.000000,9782.000000,15428.000000,54162.000000
18840.000000,9764.000000,15451.000000,54180.000000
18840.000000,9801.000000,15417.000000,54185.000000
18877.000000,9751.000000,15461.000000,54183.000000
18878.000000,9776.000000,15474.000000,54174.000000
18839.000000,9767.000000,15448.000000,54173.000000
18875.000000,9758.000000,15472.000000,54183.000000
18869.000000,9813.000000,15501.000000,54241.000000
18909.000000,9817.000000,15501.000000,54248.000000
18924.000000,9818.000000,15523.000000,54233.000000
18972.000000,9852.000000,15551.000000,54258.000000
18982.000000,9863.000000,15591.000000,54270.000000
19024.000000,9898.000000,15633.000000,54313.000000
19037.000000,9941.000000,15709.000000,54331.000000
19103.000000,9961.000000,15706.000000,54343.000000
19149.000000,9946.000000,15733.000000,54367.000000
19139.000000,9964.000000,15769.000000,54395.000000
19175.000000,9994.000000,15825.000000,54423.000000
19218.000000,10022.000000,15844.000000,54433.000000
19220.000000,10051.000000,15880.000000,54460.000000
19382.000000,10168.000000,16075.000000,54567.000000
19448.000000,10185.000000,16140.000000,54602.000000
19504.000000,10251.000000,16230.000000,54653.000000
19557.000000,10273.000000,16255.000000,54688.000000
19603.000000,10309.000000,16363.000000,54738.000000
19686.000000,10410.000000,16443.000000,54759.000000
19751.000000,10443.000000,16519.000000,54805.000000
19837.000000,10500.000000,16600.000000,54880.000000
19905.000000,10548.000000,16658.000000,54938.000000
19969.000000,10611.000000,16691.000000,54965.000000
20029.000000,10629.000000,16776.000000,55024.000000
20082.000000,10708.000000,16867.000000,55046.000000
20155.000000,10747.000000,16944.000000,55094.000000
20205.000000,10775.000000,16990.000000,55120.000000
20272.000000,10849.000000,17049.000000,55146.000000
20331.000000,10894.000000,17133.000000,55171.000000
20415.000000,10927.000000,17203.000000,55230.000000
20450.000000,10952.000000,17251.000000,55241.000000
20480.000000,11007.000000,17254.000000,55270.000000
20541.000000,11010.000000,17312.000000,55283.000000
20544.000000,11088.000000,17348.000000,55298.000000
20584.000000,11125.000000,17353.000000,55325.000000
20638.000000,11133.000000,17418.000000,55321.000000
20656.000000,11110.000000,17392.000000,55356.000000
20618.000000,11170.000000,17399.000000,55330.000000
20657.000000,11160.000000,17372.000000,55328.000000
20651.000000,11137.000000,17417.000000,55316.000000
20648.000000,11148.000000,17373.000000,55321.000000
20637.000000,11144.000000,17348.000000,55313.000000
20600.000000,11092.000000,17346.000000,55321.000000
20614.000000,11062.000000,17321.000000,55313.000000
20591.000000,11095.000000,17325.000000,55295.000000
20558.000000,11084.000000,17306.000000,55276.000000
20552.000000,11083.000000,17305.000000,55256.000000
20538.000000,11031.000000,17250.000000,55264.000000
20487.000000,11071.000000,17246.000000,55233.000000
20475.000000,11023.000000,17255.000000,55270.000000
20466.000000,11014.000000,17219.000000,55218.000000
20491.000000,10982.000000,17197.000000,55205.000000
20458.000000,10984.000000,17230.000000,55229.000000
20482.000000,11019.000000,17217.000000,55235.000000
20405.000000,10997.000000,17205.000000,55212.000000
20435.000000,10984.000000,17168.000000,55178.000000
20432.000000,10950.000000,17175.000000,55195.000000
20424.000000,10988.000000,17158.000000,55158.000000
20431.000000,10980.000000,17136.000000,55161.000000
20388.000000,10961.000000,17137.000000,55148.000000
20384.000000,10897.000000,17111.000000,55132.000000
20348.000000,10918.000000,17099.000000,55124.000000
20338.000000,10922.000000,17050.000000,55126.000000
20317.000000,10881.000000,17032.000000,55114.000000
20303.000000,10917.000000,17034.000000,55106.000000
20285.000000,10873.000000,17013.000000,55112.000000
20273.000000,10856.000000,17003.000000,55057.000000
20222.000000,10820.000000,16927.000000,55070.000000
20238.000000,10841.000000,16930.000000,55058.000000
20236.000000,10812.000000,16934.000000,55048.000000
20222.000000,10800.000000,16912.000000,55052.000000
20226.000000,10808.000000,16884.000000,55037.000000
20210.000000,10814.000000,16889.000000,55025.000000
20199.000000,10799.000000,16852.000000,55017.000000
20200.000000,10795.000000,16864.000000,54985.000000
20163.000000,10773.000000,16812.000000,54993.000000
20152.000000,10745.000000,16840.000000,55010.000000
20107.000000,10740.000000,16807.000000,54984.000000
20116.000000,10746.000000,16756.000000,54974.000000
20089.000000,10713.000000,16758.000000,54946.000000
20043.000000,10710.000000,16736.000000,54952.000000
20029.000000,10689.000000,16731.000000,54946.000000
20016.000000,10670.000000,16707.000000,54930.000000
20006.000000,10663.000000,16683.000000,54909.000000
19990.000000,10653.000000,16666.000000,54893.000000
19967.000000,10630.000000,16658.000000,54902.000000
19977.000000,10632.000000,16643.000000,54897.000000
19991.000000,10611.000000,16632.000000,54918.000000
20015.000000,10641.000000,16612.000000,54861.000000
19972.000000,10603.000000,16577.000000,54890.000000
19989.000000,10614.000000,16575.000000,54868.000000
19914.000000,10592.000000,16558.000000,54804.000000
19893.000000,10554.000000,16510.000000,54813.000000
19869.000000,10546.000000,16465.000000,54786.000000
19828.000000,10514.000000,16437.000000,54807.000000
19813.000000,10496.000000,16393.000000,54768.000000
19774.000000,10467.000000,16419.000000,54741.000000
19760.000000,10443.000000,16404.000000,54755.000000
19738.000000,10445.000000,16343.000000,54738.000000
19725.000000,10448.000000,16363.000000,54724.000000
19734.000000,10413.000000,16327.000000,54745.000000
19709.000000,10428.000000,16290.000000,54719.000000
19707.000000,10414.000000,16326.000000,54678.000000
19701.000000,10411.000000,16279.000000,54686.000000
19674.000000,10390.000000,16287.000000,54660.000000
19686.000000,10377.000000,16235.000000,54645.000000
19709.000000,10365.000000,16228.000000,54645.000000
19635.000000,10343.000000,16214.000000,54654.000000
19658.000000,10345.000000,16190.000000,54634.000000
19630.000000,10353.000000,16206.000000,54618.000000
19617.000000,10340.000000,16192.000000,54642.000000
19579.000000,10360.000000,16167.000000,54602.000000
19589.000000,10298.000000,16137.000000,54588.000000
19553.000000,10260.000000,16123.000000,54581.000000
19579.000000,10263.000000,16105.000000,54587.000000
19526.000000,10250.000000,16107.000000,54592.000000
19539.000000,10263.000000,16088.000000,54584.000000
19536.000000,10235.000000,16065.000000,54581.000000
19537.000000,10215.000000,16039.000000,54565.000000
19482.000000,10215.000000,16022.000000,54564.000000
19465.000000,10192.000000,16007.000000,54544.000000
19455.000000,10186.000000,15972.000000,54531.000000
19435.000000,10213.000000,15993.000000,54532.000000
19414.000000,10172.000000,15965.000000,54484.000000
19442.000000,10156.000000,15927.000000,54484.000000
19394.000000,10147.000000,15945.000000,54457.000000
19377.000000,10099.000000,15903.000000,54459.000000
19386.000000,10127.000000,15866.000000,54416.000000
19328.000000,10078.000000,15861.000000,54440.000000
19292.000000,10089.000000,15831.000000,54424.000000
19282.000000,10069.000000,15786.000000,54375.000000
19266.000000,10038.000000,15782.000000,54396.000000
19252.000000,10026.000000,15703.000000,54361.000000
19155.000000,9972.000000,15707.000000,54328.000000
19153.000000,9980.000000,15694.000000,54331.000000
19134.000000,9922.000000,15631.000000,54306.000000
19078.000000,9922.000000,15617.000000,54300.000000
19090.000000,9903.000000,15617.000000,54278.000000
19044.000000,9915.000000,15594.000000,54253.000000
19035.000000,9867.000000,15551.000000,54262.000000
18980.000000,9869.000000,15521.000000,54219.000000
18990.000000,9865.000000,15504.000000,54214.000000
18969.000000,9852.000000,15479.000000,54216.000000
18965.000000,9812.000000,15513.000000,54203.000000
18926.000000,9838.000000,15492.000000,54226.000000
18938.000000,9845.000000,15481.000000,54241.000000
18970.000000,9835.000000,15495.000000,54232.000000
18967.000000,9851.000000,15500.000000,54233.000000
18939.000000,9785.000000,15480.000000,54221.000000
18927.000000,9840.000000,15481.000000,54215.000000
18939.000000,9826.000000,15500.000000,54234.000000
18954.000000,9843.000000,15483.000000,54222.000000
18933.000000,9830.000000,15510.000000,54245.000000
18956.000000,9854.000000,15524.000000,54252.000000
18942.000000,9841.000000,15527.000000,54244.000000
18974.000000,9864.000000,15582.000000,54255.000000
18985.000000,9858.000000,15572.000000,54282.000000
18996.000000,9864.000000,15604.000000,54302.000000
19018.000000,9876.000000,15646.000000,54316.000000
19048.000000,9901.000000,15665.000000,54321.000000
19107.000000,9944.000000,15701.000000,54325.000000
19095.000000,9965.000000,15733.000000,54389.000000
19153.000000,9950.000000,15769.000000,54412.000000
19173.000000,9955.000000,15815.000000,54412.000000
19214.000000,10019.000000,15836.000000,54491.000000
19259.000000,10043.000000,15944.000000,54508.000000
19326.000000,10110.000000,16006.000000,54525.000000
19374.000000,10149.000000,16032.000000,54571.000000
19469.000000,10175.000000,16115.000000,54619.000000
19495.000000,10239.000000,16208.000000,54668.000000
19552.000000,10325.000000,16272.000000,54724.000000
19618.000000,10315.000000,16321.000000,54746.000000
19691.000000,10394.000000,16394.000000,54784.000000
19734.000000,10431.000000,16476.000000,54827.000000
19825.000000,10477.000000,16541.000000,54878.000000
19880.000000,10519.000000,16620.000000,54931.000000
19917.000000,10578.000000,16657.000000,54946.000000
19979.000000,10663.000000,16737.000000,55000.000000
20063.000000,10655.000000,16804.000000,55007.000000
20141.000000,10703.000000,16878.000000,55032.000000
20200.000000,10754.000000,16939.000000,55098.000000
20267.000000,10809.000000,16980.000000,55154.000000
20325.000000,10846.000000,17055.000000,55134.000000
20373.000000,10911.000000,17065.000000,55209.000000
20440.000000,10959.000000,17167.000000,55239.000000
20508.000000,10994.000000,17237.000000,55249.000000
20577.000000,11026.000000,17251.000000,55337.000000
20595.000000,11047.000000,17287.000000,55312.000000
20647.000000,11128.000000,17372.000000,55317.000000
20685.000000,11195.000000,17383.000000,55355.000000
20699.000000,11188.000000,17403.000000,55363.000000
20728.000000,11204.000000,17431.000000,55376.000000
20743.000000,11208.000000,17417.000000,55384.000000
20747.000000,11178.000000,17419.000000,55376.000000
20786.000000,11181.000000,17417.000000,55370.000000
20709.000000,11210.000000,17412.000000,55366.000000
20724.000000,11184.000000,17371.000000,55376.000000
20681.000000,11163.000000,17379.000000,55354.000000
20683.000000,11157.000000,17344.000000,55366.000000
20652.000000,11130.000000,17363.000000,55312.000000
20602.000000,11110.000000,17286.000000,55296.000000
20602.000000,11065.000000,17286.000000,55260.000000
20562.000000,11042.000000,17239.000000,55269.000000
20520.000000,11029.000000,17214.000000,55242.000000
20489.000000,11011.000000,17222.000000,55253.000000
20450.000000,10987.000000,17139.000000,55196.000000
20454.000000,11012.000000,17183.000000,55174.000000
20402.000000,10992.000000,17163.000000,55197.000000
20426.000000,10972.000000,17145.000000,55190.000000
20441.000000,10912.000000,17105.000000,55185.000000
20406.000000,10961.000000,17115.000000,55167.000000
20395.000000,10958.000000,17136.000000,55172.000000
20419.000000,10957.000000,17075.000000,55175.000000
20397.000000,10961.000000,17110.000000,55174.000000
20405.000000,10938.000000,17076.000000,55165.000000
20402.000000,10923.000000,17067.000000,55159.000000
20390.000000,10928.000000,17042.000000,55154.000000
20350.000000,10948.000000,17041.000000,55145.000000
20341.000000,10904.000000,17010.000000,55135.000000
20358.000000,10877.000000,17002.000000,55124.000000
20307.000000,10918.000000,16982.000000,55092.000000
20317.000000,10851.000000,16967.000000,55117.000000
20299.000000,10831.000000,16938.000000,55086.000000
20286.000000,10833.000000,16932.000000,55080.000000
20290.000000,10853.000000,16910.000000,55075.000000
20273.000000,10828.000000,16902.000000,55067.000000
20279.000000,10846.000000,16850.000000,55038.000000
20239.000000,10784.000000,16869.000000,55056.000000
20246.000000,10781.000000,16862.000000,55042.000000
20256.000000,10781.000000,16842.000000,55066.000000
20204.000000,10778.000000,16842.000000,55051.000000
20181.000000,10769.000000,16809.000000,55018.000000
20181.000000,10763.000000,16793.000000,55015.000000
20169.000000,10736.000000,16780.000000,55021.000000
20138.000000,10742.000000,16723.000000,55001.000000
20147.000000,10744.000000,16711.000000,54976.000000
20116.000000,10730.000000,16729.000000,54986.000000
20090.000000,10673.000000,16681.000000,54966.000000
20062.000000,10653.000000,16651.000000,54943.000000
20086.000000,10698.000000,16632.000000,54915.000000
20075.000000,10647.000000,16627.000000,54919.000000
20066.000000,10681.000000,16622.000000,54907.000000
20045.000000,10684.000000,16614.000000,54905.000000
20014.000000,10683.000000,16625.000000,54907.000000
20048.000000,10652.000000,16565.000000,54881.000000
20010.000000,10633.000000,16566.000000,54857.000000
20019.000000,10602.000000,16549.000000,54875.000000
19975.000000,10625.000000,16522.000000,54831.000000
19963.000000,10601.000000,16489.000000,54848.000000
19953.000000,10589.000000,16499.000000,54831.000000
19952.000000,10586.000000,16484.000000,54810.000000
19918.000000,10537.000000,16448.000000,54801.000000
19895.000000,10562.000000,16389.000000,54790.000000
19899.000000,10506.000000,16367.000000,54788.000000
19854.000000,10484.000000,16363.000000,54762.000000
19845.000000,10483.000000,16345.000000,54711.000000
19793.000000,10438.000000,16361.000000,54769.000000
19784.000000,10485.000000,16318.000000,54723.000000
19760.000000,10410.000000,16286.000000,54729.000000
19764.000000,10413.000000,16257.000000,54691.000000
19730.000000,10399.000000,16234.000000,54682.000000
19676.000000,10364.000000,16200.000000,54681.000000
19656.000000,10379.000000,16185.000000,54659.000000
19646.000000,10383.000000,16186.000000,54655.000000
19699.000000,10349.000000,16177.000000,54648.000000
19654.000000,10350.000000,16178.000000,54630.000000
19679.000000,10341.000000,16149.000000,54631.000000
19597.000000,10314.000000,16157.000000,54622.000000
19620.000000,10325.000000,16143.000000,54621.000000
19607.000000,10326.000000,16115.000000,54619.000000
19600.000000,10276.000000,16128.000000,54631.000000
19591.000000,10284.000000,16125.000000,54597.000000
19586.000000,10266.000000,16056.000000,54602.000000
19531.000000,10284.000000,16076.000000,54593.000000
19538.000000,10291.000000,16049.000000,54575.000000
19509.000000,10277.000000,16044.000000,54576.000000
19496.000000,10227.000000,15995.000000,54575.000000
19476.000000,10197.000000,16013.000000,54573.000000
19465.000000,10190.000000,15976.000000,54533.000000
19431.000000,10167.000000,15903.000000,54514.000000
19415.000000,10137.000000,15910.000000,54483.000000
19376.000000,10142.000000,15859.000000,54469.000000
19368.000000,10119.000000,15827.000000,54430.000000
19359.000000,10080.000000,15843.000000,54439.000000
19346.000000,10093.000000,15835.000000,54482.000000
19336.000000,10062.000000,15805.000000,54450.000000
19325.000000,10056.000000,15771.000000,54408.000000
19265.000000,10054.000000,15781.000000,54421.000000
19300.000000,10069.000000,15758.000000,54381.000000
19244.000000,10046.000000,15767.000000,54351.000000
19223.000000,10065.000000,15708.000000,54363.000000
19218.000000,10016.000000,15712.000000,54361.000000
19201.000000,9966.000000,15661.000000,54325.000000
19182.000000,9982.000000,15655.000000,54345.000000
19104.000000,9953.000000,15613.000000,54318.000000
19115.000000,9947.000000,15567.000000,54314.000000
19099.000000,9937.000000,15579.000000,54292.000000
19056.000000,9866.000000,15559.000000,54269.000000
19024.000000,9861.000000,15548.000000,54271.000000
18984.000000,9883.000000,15519.000000,54281.000000
18992.000000,9883.000000,15508.000000,54270.000000
18988.000000,9878.000000,15504.000000,54243.000000
18937.000000,9863.000000,15483.000000,54260.000000
18954.000000,9842.000000,15519.000000,54237.000000
18916.000000,9841.000000,15476.000000,54251.000000
18950.000000,9873.000000,15480.000000,54288.000000
18981.000000,9841.000000,15560.000000,54303.000000
18938.000000,9874.000000,15539.000000,54279.000000
18953.000000,9885.000000,15550.000000,54292.000000
18978.000000,9864.000000,15556.000000,54311.000000
19009.000000,9866.000000,15579.000000,54306.000000
18998.000000,9917.000000,15617.000000,54313.000000
19010.000000,9937.000000,15629.000000,54308.000000
19035.000000,9918.000000,15634.000000,54333.000000
19065.000000,9928.000000,15700.000000,54335.000000
19102.000000,9946.000000,15717.000000,54341.000000
19084.000000,9969.000000,15723.000000,54350.000000
19121.000000,9973.000000,15760.000000,54394.000000
19113.000000,9953.000000,15752.000000,54450.000000
19161.000000,10035.000000,15829.000000,54438.000000
19198.000000,10015.000000,15902.000000,54462.000000
19237.000000,10063.000000,15929.000000,54513.000000
19323.000000,10115.000000,15995.000000,54533.000000
19372.000000,10136.000000,16065.000000,54553.000000
19426.000000,10198.000000,16138.000000,54639.000000
19481.000000,10247.000000,16196.000000,54667.000000
19544.000000,10264.000000,16252.000000,54757.000000
19643.000000,10365.000000,16325.000000,54735.000000
19684.000000,10379.000000,16397.000000,54786.000000
19754.000000,10404.000000,16450.000000,54849.000000
19832.000000,10526.000000,16549.000000,54896.000000
19909.000000,10553.000000,16640.000000,54945.000000
19967.000000,10573.000000,16698.000000,54963.000000
20087.000000,10642.000000,16775.000000,55032.000000
20107.000000,10732.000000,16860.000000,55071.000000
20198.000000,10762.000000,16927.000000,55125.000000
20259.000000,10818.000000,16976.000000,55173.000000
20316.000000,10857.000000,17059.000000,55171.000000
20371.000000,10903.000000,17163.000000,55230.000000
20453.000000,10949.000000,17204.000000,55243.000000
20496.000000,11035.000000,17260.000000,55291.000000
20599.000000,11052.000000,17298.000000,55316.000000
20620.000000,11079.000000,17340.000000,55358.000000
20657.000000,11115.000000,17373.000000,55361.000000
20658.000000,11169.000000,17395.000000,55399.000000
20740.000000,11182.000000,17445.000000,55388.000000
20756.000000,11193.000000,17476.000000,55384.000000
20724.000000,11197.000000,17457.000000,55409.000000
20733.000000,11183.000000,17448.000000,55405.000000
20693.000000,11169.000000,17420.000000,55384.000000
20677.000000,11196.000000,17422.000000,55374.000000
20688.000000,11148.000000,17368.000000,55369.000000
20613.000000,11134.000000,17397.000000,55322.000000
20619.000000,11126.000000,17355.000000,55321.000000
20609.000000,11091.000000,17307.000000,55326.000000
20606.000000,11085.000000,17311.000000,55293.000000
20600.000000,11112.000000,17286.000000,55312.000000
20590.000000,11082.000000,17303.000000,55322.000000
20564.000000,11071.000000,17281.000000,55286.000000
20568.000000,11064.000000,17278.000000,55276.000000
20545.000000,11083.000000,17270.000000,55270.000000
20552.000000,11074.000000,17264.000000,55275.000000
20526.000000,11084.000000,17235.000000,55274.000000
20553.000000,11034.000000,17222.000000,55256.000000
20575.000000,11040.000000,17230.000000,55271.000000
20542.000000,11036.000000,17213.000000,55256.000000
20528.000000,11035.000000,17214.000000,55258.000000
20515.000000,11021.000000,17203.000000,55237.000000
20490.000000,11022.000000,17176.000000,55259.000000
20501.000000,11015.000000,17202.000000,55229.000000
20498.000000,11004.000000,17170.000000,55239.000000
20469.000000,10988.000000,17166.000000,55232.000000
20475.000000,10993.000000,17145.000000,55222.000000
20467.000000,10993.000000,17160.000000,55215.000000
20439.000000,10975.000000,17110.000000,55201.000000
20406.000000,10963.000000,17104.000000,55179.000000
20419.000000,10918.000000,17070.000000,55191.000000
20374.000000,10912.000000,17059.000000,55193.000000
20369.000000,10932.000000,17040.000000,55175.000000
20337.000000,10905.000000,17012.000000,55155.000000
20320.000000,10887.000000,16996.000000,55112.000000
20275.000000,10886.000000,16974.000000,55110.000000
20272.000000,10855.000000,16952.000000,55123.000000
20268.000000,10840.000000,16938.000000,55115.000000
20230.000000,10823.000000,16895.000000,55103.000000
20231.000000,10841.000000,16885.000000,55045.000000
20230.000000,10807.000000,16861.000000,55046.000000
20210.000000,10800.000000,16844.000000,55054.000000
20177.000000,10781.000000,16860.000000,55018.000000
20160.000000,10778.000000,16825.000000,55012.000000
20135.000000,10727.000000,16810.000000,55012.000000
20133.000000,10750.000000,16807.000000,54993.000000
20113.000000,10704.000000,16769.000000,54977.000000
20104.000000,10723.000000,16724.000000,54996.000000
20069.000000,10703.000000,16762.000000,54971.000000
20029.000000,10696.000000,16716.000000,54953.000000
20043.000000,10731.000000,16755.000000,54953.000000
20035.000000,10696.000000,16697.000000,54940.000000
20011.000000,10671.000000,16629.000000,54931.000000
20028.000000,10635.000000,16614.000000,54950.000000
19975.000000,10639.000000,16631.000000,54904.000000
19995.000000,10645.000000,16603.000000,54895.000000
19959.000000,10604.000000,16585.000000,54886.000000
19908.000000,10612.000000,16564.000000,54850.000000
19955.000000,10572.000000,16525.000000,54857.000000
19899.000000,10590.000000,16526.000000,54834.000000
19878.000000,10541.000000,16514.000000,54824.000000
19860.000000,10572.000000,16452.000000,54819.000000
19817.000000,10524.000000,16464.000000,54820.000000
19784.000000,10476.000000,16424.000000,54783.000000
19710.000000,10441.000000,16397.000000,54785.000000
19709.000000,10438.000000,16366.000000,54746.000000
19662.000000,10409.000000,16359.000000,54740.000000
19648.000000,10397.000000,16316.000000,54711.000000
19628.000000,10387.000000,16288.000000,54700.000000
19610.000000,10352.000000,16252.000000,54697.000000
19602.000000,10329.000000,16277.000000,54675.000000
19609.000000,10362.000000,16237.000000,54660.000000
19560.000000,10362.000000,16216.000000,54642.000000
19590.000000,10318.000000,16213.000000,54651.000000
19558.000000,10313.000000,16201.000000,54661.000000
19535.000000,10299.000000,16193.000000,54638.000000
19521.000000,10279.000000,16163.000000,54636.000000
19503.000000,10311.000000,16153.000000,54646.000000
19504.000000,10266.000000,16149.000000,54592.000000
19496.000000,10260.000000,16100.000000,54574.000000
19479.000000,10223.000000,16088.000000,54635.000000
19445.000000,10235.000000,16113.000000,54569.000000
19451.000000,10217.000000,16052.000000,54536.000000
19381.000000,10200.000000,16066.000000,54549.000000
19375.000000,10179.000000,16016.000000,54559.000000
19344.000000,10134.000000,15982.000000,54505.000000
19350.000000,10155.000000,15952.000000,54507.000000
19305.000000,10086.000000,15935.000000,54458.000000
19285.000000,10071.000000,15938.000000,54453.000000
19269.000000,10072.000000,15898.000000,54459.000000
19237.000000,10054.000000,15879.000000,54457.000000
19192.000000,10053.000000,15829.000000,54431.000000
19195.000000,10054.000000,15842.000000,54425.000000
19123.000000,10038.000000,15824.000000,54406.000000
19126.000000,9979.000000,15791.000000,54383.000000
19128.000000,10009.000000,15769.000000,54363.000000
19061.000000,9992.000000,15744.000000,54365.000000
19061.000000,9939.000000,15746.000000,54357.000000
19012.000000,9932.000000,15682.000000,54345.000000
19020.000000,9941.000000,15690.000000,54328.000000
18998.000000,9912.000000,15652.000000,54320.000000
18949.000000,9883.000000,15624.000000,54298.000000
18967.000000,9859.000000,15601.000000,54255.000000
18898.000000,9843.000000,15574.000000,54289.000000
18904.000000,9806.000000,15540.000000,54249.000000
18859.000000,9827.000000,15527.000000,54201.000000
18844.000000,9790.000000,15495.000000,54209.000000
18802.000000,9758.000000,15463.000000,54186.000000
18810.000000,9726.000000,15446.000000,54200.000000
18739.000000,9736.000000,15435.000000,54189.000000
18741.000000,9765.000000,15442.000000,54188.000000
18691.000000,9705.000000,15445.000000,54168.000000
18701.000000,9668.000000,15389.000000,54182.000000
18656.000000,9695.000000,15401.000000,54180.000000
18677.000000,9674.000000,15415.000000,54156.000000
18649.000000,9666.000000,15424.000000,54143.000000
18595.000000,9683.000000,15387.000000,54155.000000
18629.000000,9692.000000,15394.000000,54131.000000
18631.000000,9690.000000,15426.000000,54155.000000
18638.000000,9684.000000,15470.000000,54180.000000
18671.000000,9686.000000,15449.000000,54179.000000
18691.000000,9702.000000,15469.000000,54215.000000
18685.000000,9704.000000,15518.000000,54197.000000
18746.000000,9724.000000,15503.000000,54243.000000
18770.000000,9757.000000,15570.000000,54268.000000
18789.000000,9800.000000,15603.000000,54267.000000
18822.000000,9817.000000,15626.000000,54302.000000
18886.000000,9820.000000,15673.000000,54335.000000
18901.000000,9869.000000,15715.000000,54374.000000
18944.000000,9871.000000,15774.000000,54398.000000
18990.000000,9910.000000,15837.000000,54413.000000
19063.000000,9962.000000,15890.000000,54451.000000
19102.000000,10016.000000,15931.000000,54473.000000
19150.000000,10060.000000,15982.000000,54523.000000
19214.000000,10101.000000,16034.000000,54558.000000
19288.000000,10101.000000,16134.000000,54585.000000
19351.000000,10174.000000,16193.000000,54650.000000
19371.000000,10203.000000,16251.000000,54691.000000
19455.000000,10244.000000,16329.000000,54709.000000
19503.000000,10319.000000,16406.000000,54748.000000
19544.000000,10365.000000,16481.000000,54778.000000
19618.000000,10413.000000,16558.000000,54818.000000
19655.000000,10468.000000,16622.000000,54881.000000
19730.000000,10485.000000,16686.000000,54915.000000
19775.000000,10578.000000,16747.000000,54932.000000
19916.000000,10622.000000,16847.000000,55006.000000
19950.000000,10680.000000,16894.000000,55043.000000
20160.000000,10815.000000,17075.000000,55101.000000
20240.000000,10881.000000,17156.000000,55174.000000
20288.000000,10872.000000,17150.000000,55206.000000
20311.000000,10956.000000,17231.000000,55233.000000
20378.000000,10967.000000,17260.000000,55277.000000
20405.000000,10986.000000,17291.000000,55253.000000
20442.000000,10998.000000,17319.000000,55272.000000
20490.000000,11065.000000,17308.000000,55304.000000
20461.000000,11044.000000,17325.000000,55294.000000
20442.000000,11023.000000,17330.000000,55279.000000
20440.000000,11039.000000,17327.000000,55288.000000
20435.000000,11015.000000,17301.000000,55287.000000
20409.000000,10998.000000,17302.000000,55248.000000
20365.000000,10979.000000,17262.000000,55243.000000
20315.000000,11011.000000,17228.000000,55232.000000
20338.000000,10936.000000,17231.000000,55209.000000
20323.000000,10950.000000,17241.000000,55224.000000
20287.000000,10914.000000,17205.000000,55197.000000
20299.000000,10919.000000,17201.000000,55219.000000
20266.000000,10889.000000,17203.000000,55204.000000
20285.000000,10943.000000,17195.000000,55206.000000
20274.000000,10925.000000,17200.000000,55190.000000
20278.000000,10938.000000,17174.000000,55159.000000
20262.000000,10896.000000,17156.000000,55160.000000
20261.000000,10902.000000,17137.000000,55188.000000
20244.000000,10896.000000,17160.000000,55162.000000
20244.000000,10866.000000,17098.000000,55141.000000
20212.000000,10848.000000,17064.000000,55133.000000
20184.000000,10852.000000,17029.000000,55132.000000
20181.000000,10844.000000,17046.000000,55100.000000
20177.000000,10843.000000,17033.000000,55105.000000
20165.000000,10806.000000,17010.000000,55090.000000
20146.000000,10814.000000,16999.000000,55104.000000
20129.000000,10809.000000,17003.000000,55046.000000
20116.000000,10788.000000,16972.000000,55085.000000
20117.000000,10793.000000,16997.000000,55063.000000
20105.000000,10771.000000,16973.000000,55033.000000
20136.000000,10805.000000,16935.000000,55054.000000
20063.000000,10763.000000,16922.000000,54999.000000
20042.000000,10747.000000,16888.000000,55013.000000
20042.000000,10763.000000,16868.000000,55024.000000
20029.000000,10716.000000,16855.000000,54991.000000
20021.000000,10703.000000,16835.000000,54989.000000
19975.000000,10707.000000,16825.000000,54974.000000
19985.000000,10705.000000,16815.000000,54958.000000
19985.000000,10671.000000,16801.000000,54974.000000
19914.000000,10673.000000,16766.000000,54932.000000
19921.000000,10692.000000,16767.000000,54927.000000
19900.000000,10669.000000,16755.000000,54939.000000
19892.000000,10610.000000,16725.000000,54929.000000
19881.000000,10622.000000,16672.000000,54899.000000
19908.000000,10614.000000,16667.000000,54958.000000
19901.000000,10621.000000,16653.000000,54899.000000
19869.000000,10601.000000,16663.000000,54901.000000
19848.000000,10617.000000,16671.000000,54896.000000
19862.000000,10586.000000,16647.000000,54881.000000
19840.000000,10577.000000,16614.000000,54891.000000
19821.000000,10575.000000,16616.000000,54864.000000
19803.000000,10542.000000,16606.000000,54879.000000
19802.000000,10572.000000,16553.000000,54844.000000
19785.000000,10548.000000,16551.000000,54842.000000
19770.000000,10503.000000,16545.000000,54813.000000
19759.000000,10514.000000,16501.000000,54804.000000
19687.000000,10496.000000,16482.000000,54787.000000
19719.000000,10446.000000,16482.000000,54785.000000
19648.000000,10446.000000,16429.000000,54771.000000
19629.000000,10414.000000,16418.000000,54778.000000
19583.000000,10389.000000,16416.000000,54731.000000
19582.000000,10377.000000,16380.000000,54744.000000
19541.000000,10365.000000,16347.000000,54708.000000
19539.000000,10335.000000,16327.000000,54695.000000
19502.000000,10320.000000,16282.000000,54662.000000
19515.000000,10318.000000,16271.000000,54684.000000
19481.000000,10253.000000,16246.000000,54659.000000
19451.000000,10309.000000,16227.000000,54646.000000
19466.000000,10277.000000,16220.000000,54613.000000
19425.000000,10268.000000,16204.000000,54644.000000
19403.000000,10255.000000,16190.000000,54622.000000
19405.000000,10229.000000,16184.000000,54598.000000
19405.000000,10221.000000,16147.000000,54613.000000
19379.000000,10214.000000,16147.000000,54559.000000
19372.000000,10205.000000,16128.000000,54575.000000
19364.000000,10196.000000,16125.000000,54545.000000
19382.000000,10191.000000,16081.000000,54553.000000
19338.000000,10196.000000,16071.000000,54524.000000
19335.000000,10157.000000,16048.000000,54526.000000
19300.000000,10151.000000,16078.000000,54523.000000
19311.000000,10124.000000,16021.000000,54526.000000
19252.000000,10114.000000,15994.000000,54481.000000
19215.000000,10124.000000,15978.000000,54492.000000
19216.000000,10092.000000,15980.000000,54477.000000
19162.000000,10065.000000,15918.000000,54461.000000
19164.000000,10049.000000,15907.000000,54441.000000
19086.000000,10050.000000,15890.000000,54440.000000
19086.000000,9999.000000,15874.000000,54432.000000
19054.000000,10020.000000,15840.000000,54422.000000
19037.000000,9992.000000,15846.000000,54399.000000
19017.000000,9959.000000,15809.000000,54366.000000
19000.000000,9966.000000,15787.000000,54357.000000
18960.000000,9961.000000,15772.000000,54356.000000
18981.000000,9935.000000,15743.000000,54343.000000
18942.000000,9936.000000,15721.000000,54345.000000
18921.000000,9909.000000,15710.000000,54308.000000
18905.000000,9891.000000,15687.000000,54307.000000
18906.000000,9902.000000,15643.000000,54295.000000
18894.000000,9864.000000,15614.000000,54264.000000
18879.000000,9844.000000,15578.000000,54235.000000
18814.000000,9795.000000,15555.000000,54217.000000
18816.000000,9779.000000,15550.000000,54228.000000
18733.000000,9759.000000,15525.000000,54206.000000
18763.000000,9761.000000,15477.000000,54213.000000
18742.000000,9729.000000,15474.000000,54184.000000
18721.000000,9724.000000,15454.000000,54168.000000
18691.000000,9724.000000,15440.000000,54174.000000
18657.000000,9699.000000,15417.000000,54189.000000
18676.000000,9709.000000,15421.000000,54164.000000
18661.000000,9686.000000,15383.000000,54133.000000
18675.000000,9707.000000,15405.000000,54141.000000
18643.000000,9701.000000,15361.000000,54138.000000
18670.000000,9694.000000,15371.000000,54116.000000
18674.000000,9679.000000,15375.000000,54152.000000
18661.000000,9674.000000,15415.000000,54162.000000
18669.000000,9694.000000,15373.000000,54176.000000
18645.000000,9708.000000,15389.000000,54199.000000
18697.000000,9703.000000,15420.000000,54209.000000
18703.000000,9730.000000,15450.000000,54192.000000
18715.000000,9749.000000,15464.000000,54183.000000
18752.000000,9762.000000,15479.000000,54190.000000
18754.000000,9777.000000,15520.000000,54208.000000
18783.000000,9797.000000,15531.000000,54229.000000
18813.000000,9805.000000,15528.000000,54258.000000
18813.000000,9795.000000,15567.000000,54248.000000
18842.000000,9830.000000,15580.000000,54271.000000
18867.000000,9822.000000,15643.000000,54288.000000
18900.000000,9833.000000,15672.000000,54337.000000
18908.000000,9880.000000,15735.000000,54346.000000
18944.000000,9882.000000,15734.000000,54374.000000
18952.000000,9912.000000,15805.000000,54373.000000
19005.000000,9973.000000,15828.000000,54425.000000
19076.000000,10000.000000,15891.000000,54481.000000
19135.000000,10022.000000,15937.000000,54487.000000
19178.000000,10035.000000,15996.000000,54538.000000
19257.000000,10090.000000,16063.000000,54554.000000
19300.000000,10123.000000,16127.000000,54611.000000
19418.000000,10159.000000,16205.000000,54629.000000
19421.000000,10221.000000,16271.000000,54711.000000
19467.000000,10283.000000,16362.000000,54754.000000
19531.000000,10291.000000,16445.000000,54791.000000
19605.000000,10375.000000,16483.000000,54850.000000
19714.000000,10412.000000,16588.000000,54889.000000
19759.000000,10477.000000,16657.000000,54909.000000
19834.000000,10548.000000,16736.000000,54971.000000
19940.000000,10649.000000,16832.000000,55028.000000
19987.000000,10678.000000,16917.000000,55063.000000
20054.000000,10725.000000,16926.000000,55099.000000
20142.000000,10785.000000,17006.000000,55121.000000
20178.000000,10815.000000,17057.000000,55171.000000
20258.000000,10841.000000,17136.000000,55190.000000
20284.000000,10908.000000,17194.000000,55200.000000
20329.000000,10961.000000,17213.000000,55195.000000
20388.000000,11005.000000,17256.000000,55259.000000
20443.000000,10975.000000,17255.000000,55242.000000
20408.000000,10998.000000,17294.000000,55275.000000
20447.000000,11014.000000,17297.000000,55269.000000
20463.000000,11047.000000,17302.000000,55281.000000
20488.000000,11029.000000,17345.000000,55296.000000
20449.000000,11029.000000,17324.000000,55271.000000
20507.000000,11063.000000,17330.000000,55277.000000
20517.000000,11036.000000,17304.000000,55277.000000
20464.000000,11037.000000,17293.000000,55295.000000
20433.000000,11012.000000,17273.000000,55274.000000
20428.000000,11038.000000,17287.000000,55265.000000
20424.000000,10997.000000,17281.000000,55268.000000
20366.000000,11012.000000,17236.000000,55221.000000
20387.000000,10982.000000,17238.000000,55233.000000
20371.000000,10985.000000,17220.000000,55207.000000
20390.000000,10955.000000,17183.000000,55197.000000
20313.000000,10923.000000,17184.000000,55174.000000
20319.000000,10918.000000,17118.000000,55208.000000
20316.000000,10914.000000,17159.000000,55154.000000
20290.000000,10889.000000,17123.000000,55187.000000
20286.000000,10890.000000,17128.000000,55146.000000
20263.000000,10871.000000,17114.000000,55163.000000
20328.000000,10906.000000,17116.000000,55167.000000
20280.000000,10905.000000,17106.000000,55152.000000
20289.000000,10920.000000,17114.000000,55162.000000
20260.000000,10900.000000,17067.000000,55129.000000
20259.000000,10861.000000,17057.000000,55150.000000
20238.000000,10867.000000,17016.000000,55113.000000
20262.000000,10890.000000,17012.000000,55121.000000
20217.000000,10840.000000,17034.000000,55086.000000
20240.000000,10815.000000,17001.000000,55112.000000
20222.000000,10825.000000,16981.000000,55095.000000
20198.000000,10834.000000,16992.000000,55095.000000
20166.000000,10807.000000,16961.000000,55084.000000
20160.000000,10776.000000,16925.000000,55058.000000
20109.000000,10762.000000,16940.000000,55061.000000
20106.000000,10757.000000,16907.000000,55040.000000
20084.000000,10761.000000,16867.000000,55034.000000
20034.000000,10704.000000,16850.000000,55023.000000
20049.000000,10711.000000,16813.000000,55015.000000
19997.000000,10691.000000,16801.000000,55009.000000
19987.000000,10672.000000,16795.000000,54977.000000
19975.000000,10666.000000,16745.000000,54940.000000
19942.000000,10639.000000,16712.000000,54954.000000
19927.000000,10650.000000,16732.000000,54939.000000
19898.000000,10618.000000,16670.000000,54917.000000
19874.000000,10586.000000,16664.000000,54892.000000
19872.000000,10594.000000,16670.000000,54910.000000
19853.000000,10629.000000,16627.000000,54906.000000
19862.000000,10563.000000,16640.000000,54878.000000
19859.000000,10568.000000,16622.000000,54902.000000
19798.000000,10589.000000,16619.000000,54842.000000
19810.000000,10580.000000,16601.000000,54873.000000
19785.000000,10522.000000,16532.000000,54826.000000
19792.000000,10517.000000,16539.000000,54840.000000
19795.000000,10482.000000,16523.000000,54820.000000
19732.000000,10491.000000,16504.000000,54802.000000
19729.000000,10486.000000,16501.000000,54775.000000
19721.000000,10447.000000,16486.000000,54788.000000
19680.000000,10428.000000,16429.000000,54744.000000
19663.000000,10410.000000,16416.000000,54740.000000
19617.000000,10401.000000,16372.000000,54752.000000
19630.000000,10384.000000,16365.000000,54722.000000
19585.000000,10378.000000,16334.000000,54707.000000
19563.000000,10346.000000,16332.000000,54702.000000
19535.000000,10321.000000,16296.000000,54689.000000
19539.000000,10309.000000,16281.000000,54680.000000
19526.000000,10303.000000,16280.000000,54683.000000
19489.000000,10280.000000,16222.000000,54644.000000
19492.000000,10287.000000,16222.000000,54627.000000
19458.000000,10258.000000,16211.000000,54624.000000
19458.000000,10266.000000,16193.000000,54605.000000
19429.000000,10243.000000,16189.000000,54610.000000
19398.000000,10225.000000,16152.000000,54566.000000
19397.000000,10195.000000,16142.000000,54551.000000
19359.000000,10165.000000,16124.000000,54579.000000
19333.000000,10199.000000,16077.000000,54561.000000
19330.000000,10173.000000,16087.000000,54548.000000
19321.000000,10183.000000,16039.000000,54528.000000
19322.000000,10158.000000,16028.000000,54502.000000
19288.000000,10136.000000,15970.000000,54496.000000
19255.000000,10131.000000,15968.000000,54478.000000
19269.000000,10081.000000,15935.000000,54463.000000
19218.000000,10094.000000,15940.000000,54466.000000
19213.000000,10069.000000,15930.000000,54473.000000
19222.000000,10066.000000,15934.000000,54450.000000
19197.000000,10066.000000,15916.000000,54489.000000
19201.000000,10075.000000,15899.000000,54486.000000
19208.000000,10077.000000,15892.000000,54458.000000
19225.000000,10054.000000,15910.000000,54437.000000
19214.000000,10072.000000,15875.000000,54437.000000
19207.000000,10045.000000,15871.000000,54438.000000
19198.000000,10048.000000,15848.000000,54435.000000
19171.000000,10006.000000,15835.000000,54428.000000
19145.000000,10005.000000,15814.000000,54409.000000
19126.000000,9987.000000,15791.000000,54383.000000
19095.000000,10016.000000,15738.000000,54368.000000
19065.000000,9996.000000,15744.000000,54362.000000
19037.000000,10004.000000,15761.000000,54346.000000
19015.000000,9969.000000,15715.000000,54340.000000
18987.000000,9912.000000,15699.000000,54327.000000
18951.000000,9875.000000,15688.000000,54343.000000
18949.000000,9893.000000,15634.000000,54299.000000
18939.000000,9893.000000,15630.000000,54277.000000
18898.000000,9865.000000,15575.000000,54290.000000
18892.000000,9824.000000,15578.000000,54292.000000
18880.000000,9828.000000,15521.000000,54265.000000
18850.000000,9817.000000,15513.000000,54234.000000
18825.000000,9809.000000,15488.000000,54247.000000
18836.000000,9804.000000,15503.000000,54234.000000
18811.000000,9761.000000,15461.000000,54205.000000
18819.000000,9770.000000,15459.000000,54212.000000
18747.000000,9763.000000,15448.000000,54206.000000
18749.000000,9728.000000,15414.000000,54209.000000
18714.000000,9700.000000,15394.000000,54183.000000
18701.000000,9726.000000,15379.000000,54167.000000
18694.000000,9721.000000,15398.000000,54163.000000
18680.000000,9701.000000,15373.000000,54148.000000
18702.000000,9691.000000,15392.000000,54146.000000
18695.000000,9697.000000,15380.000000,54171.000000
18674.000000,9654.000000,15371.000000,54124.000000
18708.000000,9700.000000,15373.000000,54149.000000
18691.000000,9711.000000,15423.000000,54154.000000
18702.000000,9708.000000,15430.000000,54171.000000
18762.000000,9714.000000,15448.000000,54173.000000
18770.000000,9776.000000,15457.000000,54198.000000
18820.000000,9725.000000,15481.000000,54190.000000
18833.000000,9761.000000,15508.000000,54249.000000
18896.000000,9799.000000,15542.000000,54270.000000
18900.000000,9810.000000,15583.000000,54279.000000
18972.000000,9860.000000,15636.000000,54336.000000
18995.000000,9933.000000,15702.000000,54376.000000
19022.000000,9907.000000,15705.000000,54377.000000
19052.000000,9929.000000,15783.000000,54387.000000
19112.000000,9973.000000,15804.000000,54420.000000
19127.000000,10012.000000,15860.000000,54472.000000
19163.000000,10037.000000,15914.000000,54507.000000
19243.000000,10064.000000,16008.000000,54533.000000
19283.000000,10123.000000,16028.000000,54575.000000
19400.000000,10118.000000,16128.000000,54609.000000
19450.000000,10231.000000,16187.000000,54668.000000
19520.000000,10241.000000,16302.000000,54739.000000
19547.000000,10321.000000,16303.000000,54748.000000
19613.000000,10369.000000,16407.000000,54839.000000
19697.000000,10431.000000,16526.000000,54860.000000
19792.000000,10495.000000,16610.000000,54934.000000
19872.000000,10545.000000,16680.000000,54964.000000
19925.000000,10592.000000,16753.000000,55005.000000
20034.000000,10596.000000,16824.000000,55038.000000
20059.000000,10708.000000,16863.000000,55102.000000
20121.000000,10726.000000,16961.000000,55126.000000
20164.000000,10771.000000,16987.000000,55173.000000
20260.000000,10808.000000,17090.000000,55185.000000
20301.000000,10890.000000,17136.000000,55217.000000
20383.000000,10920.000000,17201.000000,55255.000000
20390.000000,10967.000000,17264.000000,55260.000000
20494.000000,11013.000000,17252.000000,55288.000000
20522.000000,10996.000000,17339.000000,55311.000000
20593.000000,11082.000000,17352.000000,55345.000000
20635.000000,11087.000000,17420.000000,55369.000000
20655.000000,11134.000000,17393.000000,55391.000000
20674.000000,11145.000000,17422.000000,55365.000000
20629.000000,11191.000000,17421.000000,55383.000000
20662.000000,11157.000000,17424.000000,55392.000000
20643.000000,11167.000000,17387.000000,55368.000000
20672.000000,11120.000000,17367.000000,55384.000000
20583.000000,11121.000000,17379.000000,55312.000000
20588.000000,11140.000000,17377.000000,55328.000000
20570.000000,11081.000000,17337.000000,55300.000000
20507.000000,11054.000000,17318.000000,55301.000000
20506.000000,11047.000000,17295.000000,55245.000000
20453.000000,10996.000000,17241.000000,55284.000000
20416.000000,11017.000000,17234.000000,55229.000000
20436.000000,10969.000000,17244.000000,55267.000000
20371.000000,10997.000000,17231.000000,55167.000000
20379.000000,10963.000000,17193.000000,55233.000000
20332.000000,10943.000000,17198.000000,55174.000000
20348.000000,10975.000000,17146.000000,55212.000000
20334.000000,10925.000000,17173.000000,55186.000000
20352.000000,10954.000000,17149.000000,55211.000000
20313.000000,10892.000000,17170.000000,55206.000000
20328.000000,10932.000000,17163.000000,55225.000000
20341.000000,10919.000000,17120.000000,55177.000000
20311.000000,10955.000000,17144.000000,55136.000000
20311.000000,10884.000000,17093.000000,55170.000000
20287.000000,10899.000000,17049.000000,55184.000000
20244.000000,10876.000000,17060.000000,55155.000000
20261.000000,10871.000000,17017.000000,55149.000000
20264.000000,10872.000000,17020.000000,55121.000000
20222.000000,10858.000000,16998.000000,55117.000000
20223.000000,10815.000000,16993.000000,55097.000000
20184.000000,10818.000000,16989.000000,55092.000000
20182.000000,10817.000000,16964.000000,55063.000000
20183.000000,10808.000000,16949.000000,55064.000000
20168.000000,10755.000000,16924.000000,55081.000000
20083.000000,10783.000000,16894.000000,55048.000000
20131.000000,10729.000000,16907.000000,55036.000000
20069.000000,10751.000000,16851.000000,55015.000000
20092.000000,10744.000000,16872.000000,55027.000000
20089.000000,10750.000000,16863.000000,55021.000000
20094.000000,10751.000000,16845.000000,55017.000000
20045.000000,10738.000000,16827.000000,55017.000000
20076.000000,10724.000000,16822.000000,55027.000000
20037.000000,10731.000000,16806.000000,54960.000000
20056.000000,10715.000000,16781.000000,54994.000000
20029.000000,10686.000000,16753.000000,54966.000000
20006.000000,10655.000000,16729.000000,54962.000000
19957.000000,10655.000000,16676.000000,54950.000000
19976.000000,10621.000000,16679.000000,54959.000000
19909.000000,10604.000000,16667.000000,54913.000000
19906.000000,10620.000000,16623.000000,54909.000000
19899.000000,10587.000000,16649.000000,54908.000000
19861.000000,10575.000000,16597.000000,54889.000000
19832.000000,10576.000000,16617.000000,54902.000000
19872.000000,10556.000000,16587.000000,54893.000000
19807.000000,10555.000000,16549.000000,54855.000000
19854.000000,10545.000000,16542.000000,54820.000000
19809.000000,10516.000000,16515.000000,54833.000000
19801.000000,10530.000000,16457.000000,54852.000000
19787.000000,10503.000000,16534.000000,54785.000000
19746.000000,10454.000000,16420.000000,54827.000000
19724.000000,10466.000000,16441.000000,54767.000000
19672.000000,10449.000000,16408.000000,54764.000000
19690.000000,10441.000000,16436.000000,54756.000000
19671.000000,10414.000000,16341.000000,54739.000000
19663.000000,10386.000000,16308.000000,54723.000000
19618.000000,10402.000000,16370.000000,54735.000000
19634.000000,10387.000000,16318.000000,54704.000000
19653.000000,10379.000000,16323.000000,54674.000000
19624.000000,10360.000000,16270.000000,54692.000000
19621.000000,10394.000000,16295.000000,54661.000000
19627.000000,10397.000000,16271.000000,54707.000000
19617.000000,10375.000000,16293.000000,54694.000000
19623.000000,10364.000000,16238.000000,54727.000000
19610.000000,10360.000000,16247.000000,54699.000000
19571.000000,10355.000000,16173.000000,54684.000000
19572.000000,10307.000000,16228.000000,54673.000000
19532.000000,10353.000000,16153.000000,54663.000000
19536.000000,10294.000000,16167.000000,54622.000000
19524.000000,10249.000000,16142.000000,54633.000000
19510.000000,10287.000000,16140.000000,54618.000000
19508.000000,10248.000000,16138.000000,54593.000000
19485.000000,10234.000000,16083.000000,54589.000000
19459.000000,10203.000000,16095.000000,54598.000000
19432.000000,10196.000000,16090.000000,54584.000000
19419.000000,10218.000000,16046.000000,54580.000000
19407.000000,10207.000000,16043.000000,54551.000000
19398.000000,10166.000000,16026.000000,54532.000000
19378.000000,10158.000000,15951.000000,54540.000000
19343.000000,10138.000000,15930.000000,54535.000000
19296.000000,10138.000000,15912.000000,54467.000000
19312.000000,10088.000000,15922.000000,54448.000000
19302.000000,10068.000000,15882.000000,54482.000000
19249.000000,10065.000000,15856.000000,54464.000000
19267.000000,10045.000000,15885.000000,54424.000000
19249.000000,10056.000000,15842.000000,54437.000000
19220.000000,10034.000000,15814.000000,54440.000000
19191.000000,10052.000000,15790.000000,54441.000000
19136.000000,10005.000000,15801.000000,54423.000000
19157.000000,9992.000000,15782.000000,54424.000000
19166.000000,10020.000000,15763.000000,54354.000000
19087.000000,9999.000000,15706.000000,54370.000000
19047.000000,9969.000000,15681.000000,54324.000000
19022.000000,9884.000000,15671.000000,54312.000000
18982.000000,9887.000000,15601.000000,54319.000000
18948.000000,9884.000000,15576.000000,54305.000000
18962.000000,9840.000000,15624.000000,54272.000000
18963.000000,9841.000000,15561.000000,54246.000000
18911.000000,9847.000000,15524.000000,54256.000000
18905.000000,9836.000000,15504.000000,54232.000000
18924.000000,9774.000000,15515.000000,54244.000000
18891.000000,9806.000000,15476.000000,54273.000000
18874.000000,9795.000000,15476.000000,54215.000000
18866.000000,9813.000000,15493.000000,54208.000000
18885.000000,9819.000000,15462.000000,54232.000000
18875.000000,9811.000000,15473.000000,54271.000000
18834.000000,9833.000000,15494.000000,54244.000000
18885.000000,9768.000000,15510.000000,54255.000000
18898.000000,9812.000000,15505.000000,54279.000000
18875.000000,9824.000000,15511.000000,54281.000000
18902.000000,9833.000000,15579.000000,54267.000000
18938.000000,9841.000000,15583.000000,54297.000000
18938.000000,9855.000000,15559.000000,54294.000000
18947.000000,9883.000000,15629.000000,54348.000000
18965.000000,9870.000000,15655.000000,54357.000000
19007.000000,9856.000000,15656.000000,54368.000000
19002.000000,9929.000000,15679.000000,54393.000000
19033.000000,9926.000000,15708.000000,54362.000000
19113.000000,9933.000000,15732.000000,54390.000000
19097.000000,9948.000000,15771.000000,54430.000000
19082.000000,9991.000000,15796.000000,54427.000000
19157.000000,9987.000000,15887.000000,54453.000000
19206.000000,10016.000000,15910.000000,54516.000000
19205.000000,10067.000000,15937.000000,54548.000000
19253.000000,10115.000000,15996.000000,54568.000000
19360.000000,10116.000000,16082.000000,54631.000000
19403.000000,10174.000000,16107.000000,54662.000000
19459.000000,10215.000000,16203.000000,54673.000000
19542.000000,10276.000000,16267.000000,54708.000000
19601.000000,10316.000000,16338.000000,54788.000000
19649.000000,10363.000000,16418.000000,54824.000000
19736.000000,10408.000000,16513.000000,54833.000000
19866.000000,10486.000000,16576.000000,54915.000000
19889.000000,10551.000000,16641.000000,54974.000000
19963.000000,10618.000000,16724.000000,55012.000000
20084.000000,10631.000000,16838.000000,54993.000000
20117.000000,10715.000000,16851.000000,55103.000000
20169.000000,10812.000000,16928.000000,55167.000000
20248.000000,10792.000000,17038.000000,55163.000000
20349.000000,10852.000000,17074.000000,55191.000000
20409.000000,10946.000000,17098.000000,55239.000000
20466.000000,10984.000000,17210.000000,55243.000000
20512.000000,10991.000000,17268.000000,55293.000000
20594.000000,11041.000000,17292.000000,55321.000000
20595.000000,11113.000000,17323.000000,55361.000000
20664.000000,11138.000000,17397.000000,55358.000000
20715.000000,11149.000000,17427.000000,55390.000000
20686.000000,11164.000000,17399.000000,55415.000000
20683.000000,11134.000000,17360.000000,55419.000000
20700.000000,11166.000000,17384.000000,55370.000000
20721.000000,11133.000000,17402.000000,55392.000000
20673.000000,11121.000000,17370.000000,55339.000000
20612.000000,11136.000000,17349.000000,55353.000000
20636.000000,11111.000000,17331.000000,55332.000000
20633.000000,11095.000000,17351.000000,55305.000000
20558.000000,11093.000000,17317.000000,55315.000000
20554.000000,11035.000000,17254.000000,55275.000000
20569.000000,11032.000000,17280.000000,55283.000000
20545.000000,11062.000000,17238.000000,55277.000000
20503.000000,11046.000000,17238.000000,55292.000000
20466.000000,11036.000000,17270.000000,55251.000000
20544.000000,11010.000000,17266.000000,55245.000000
20495.000000,11054.000000,17240.000000,55312.000000
20497.000000,11053.000000,17215.000000,55240.000000
20480.000000,10998.000000,17219.000000,55226.000000
20515.000000,10958.000000,17198.000000,55219.000000
20443.000000,10985.000000,17153.000000,55255.000000
20402.000000,10987.000000,17173.000000,55227.000000
20429.000000,10974.000000,17124.000000,55198.000000
20427.000000,10940.000000,17093.000000,55196.000000
20371.000000,10939.000000,17077.000000,55152.000000
20341.000000,10870.000000,17058.000000,55132.000000
20332.000000,10885.000000,17018.000000,55167.000000
20290.000000,10877.000000,16999.000000,55163.000000
20259.000000,10885.000000,16992.000000,55105.000000
20262.000000,10829.000000,16986.000000,55118.000000
20277.000000,10815.000000,16955.000000,55124.000000
20250.000000,10855.000000,16923.000000,55122.000000
20234.000000,10842.000000,16945.000000,55084.000000
20263.000000,10776.000000,16954.000000,55065.000000
20212.000000,10788.000000,16899.000000,55105.000000
20180.000000,10807.000000,16881.000000,55067.000000
20185.000000,10815.000000,16899.000000,55053.000000
20233.000000,10750.000000,16905.000000,55063.000000
20203.000000,10778.000000,16841.000000,55084.000000
20148.000000,10809.000000,16836.000000,55074.000000
20151.000000,10736.000000,16859.000000,55045.000000
20153.000000,10730.000000,16793.000000,55033.000000
20135.000000,10745.000000,16781.000000,55045.000000
20094.000000,10741.000000,16787.000000,54990.000000
20104.000000,10722.000000,16767.000000,54953.000000
20128.000000,10696.000000,16762.000000,54997.000000
20068.000000,10711.000000,16705.000000,54993.000000
20065.000000,10698.000000,16717.000000,54991.000000
20071.000000,10646.000000,16711.000000,54926.000000
20052.000000,10630.000000,16642.000000,54952.000000
20017.000000,10682.000000,16655.000000,54961.000000
19988.000000,10650.000000,16622.000000,54927.000000
19973.000000,10628.000000,16638.000000,54897.000000
19933.000000,10636.000000,16570.000000,54929.000000
19939.000000,10640.000000,16576.000000,54872.000000
19953.000000,10555.000000,16580.000000,54850.000000
19938.000000,10590.000000,16521.000000,54880.000000
19881.000000,10584.000000,16469.000000,54867.000000
19830.000000,10533.000000,16495.000000,54801.000000
19897.000000,10544.000000,16487.000000,54842.000000
19851.000000,10528.000000,16448.000000,54832.000000
19812.000000,10535.000000,16441.000000,54820.000000
19831.000000,10503.000000,16453.000000,54798.000000
19866.000000,10470.000000,16461.000000,54824.000000
19890.000000,10482.000000,16416.000000,54850.000000
19815.000000,10505.000000,16419.000000,54800.000000
19811.000000,10484.000000,16439.000000,54777.000000
19845.000000,10446.000000,16381.000000,54781.000000
19821.000000,10453.000000,16345.000000,54793.000000
19710.000000,10456.000000,16329.000000,54731.000000
19696.000000,10376.000000,16323.000000,54704.000000
19680.000000,10418.000000,16248.000000,54706.000000
19622.000000,10362.000000,16214.000000,54702.000000
19608.000000,10339.000000,16218.000000,54669.000000
19606.000000,10308.000000,16208.000000,54615.000000
19566.000000,10266.000000,16177.000000,54636.000000
19511.000000,10317.000000,16108.000000,54643.000000
19494.000000,10250.000000,16134.000000,54590.000000
19518.000000,10196.000000,16116.000000,54564.000000
19480.000000,10222.000000,16084.000000,54598.000000
19451.000000,10227.000000,16064.000000,54609.000000
19470.000000,10189.000000,16047.000000,54531.000000
19457.000000,10183.000000,16056.000000,54548.000000
19410.000000,10217.000000,16014.000000,54573.000000
19390.000000,10183.000000,16007.000000,54522.000000
19426.000000,10146.000000,16042.000000,54541.000000
19390.000000,10173.000000,15963.000000,54533.000000
19370.000000,10141.000000,15948.000000,54498.000000
19329.000000,10127.000000,15936.000000,54475.000000
19393.000000,10053.000000,15952.000000,54485.000000
19339.000000,10115.000000,15861.000000,54517.000000
19367.000000,10105.000000,15904.000000,54498.000000
19338.000000,10058.000000,15913.000000,54462.000000
19336.000000,10061.000000,15864.000000,54492.000000
19242.000000,10100.000000,15816.000000,54505.000000
19246.000000,10033.000000,15838.000000,54425.000000
19251.000000,10007.000000,15842.000000,54419.000000
19203.000000,10028.000000,15783.000000,54462.000000
19139.000000,10028.000000,15758.000000,54433.000000
19174.000000,9971.000000,15748.000000,54342.000000
19159.000000,9939.000000,15718.000000,54362.000000
19071.000000,9941.000000,15652.000000,54392.000000
19025.000000,9929.000000,15629.000000,54364.000000
18996.000000,9882.000000,15621.000000,54285.000000
18997.000000,9806.000000,15586.000000,54304.000000
18929.000000,9869.000000,15553.000000,54303.000000
18914.000000,9880.000000,15512.000000,54249.000000
18890.000000,9795.000000,15501.000000,54202.000000
18928.000000,9789.000000,15487.000000,54249.000000
18878.000000,9798.000000,15458.000000,54243.000000
18846.000000,9764.000000,15454.000000,54176.000000
18868.000000,9750.000000,15488.000000,54208.000000
18895.000000,9763.000000,15449.000000,54273.000000
18840.000000,9712.000000,15421.000000,54196.000000
18838.000000,9786.000000,15413.000000,54264.000000
18831.000000,9781.000000,15448.000000,54257.000000
18870.000000,9789.000000,15454.000000,54265.000000
18867.000000,9758.000000,15464.000000,54235.000000
18907.000000,9829.000000,15486.000000,54265.000000
18909.000000,9790.000000,15529.000000,54221.000000
18911.000000,9830.000000,15528.000000,54298.000000
18973.000000,9794.000000,15534.000000,54300.000000
18967.000000,9812.000000,15577.000000,54346.000000
18974.000000,9846.000000,15594.000000,54341.000000
19029.000000,9904.000000,15649.000000,54368.000000
19080.000000,9908.000000,15658.000000,54368.000000
19108.000000,9928.000000,15687.000000,54378.000000
19151.000000,9925.000000,15703.000000,54432.000000
19133.000000,9956.000000,15785.000000,54438.000000
19205.000000,9995.000000,15842.000000,54475.000000
19280.000000,10060.000000,15856.000000,54496.000000
19319.000000,10066.000000,15916.000000,54541.000000
19309.000000,10095.000000,15974.000000,54563.000000
19383.000000,10137.000000,15979.000000,54567.000000
19438.000000,10161.000000,16073.000000,54617.000000
19474.000000,10205.000000,16119.000000,54642.000000
19520.000000,10268.000000,16211.000000,54687.000000
19600.000000,10329.000000,16267.000000,54744.000000
19659.000000,10386.000000,16346.000000,54776.000000
19729.000000,10390.000000,16389.000000,54826.000000
19784.000000,10454.000000,16500.000000,54886.000000
19901.000000,10485.000000,16540.000000,54924.000000
19982.000000,10589.000000,16668.000000,54946.000000
20029.000000,10644.000000,16745.000000,55018.000000
20099.000000,10702.000000,16799.000000,55080.000000
20179.000000,10752.000000,16879.000000,55086.000000
20241.000000,10774.000000,16970.000000,55100.000000
20292.000000,10831.000000,16978.000000,55160.000000
20359.000000,10859.000000,17084.000000,55169.000000
20419.000000,10905.000000,17108.000000,55222.000000
20515.000000,10955.000000,17145.000000,55273.000000
20528.000000,11002.000000,17230.000000,55279.000000
20589.000000,11023.000000,17249.000000,55300.000000
20643.000000,11078.000000,17281.000000,55336.000000
20690.000000,11087.000000,17308.000000,55343.000000
20720.000000,11127.000000,17336.000000,55356.000000
20731.000000,11162.000000,17349.000000,55372.000000
20737.000000,11168.000000,17351.000000,55371.000000
20769.000000,11165.000000,17413.000000,55374.000000
20741.000000,11164.000000,17350.000000,55369.000000
20732.000000,11124.000000,17321.000000,55354.000000
20701.000000,11122.000000,17337.000000,55368.000000
20664.000000,11116.000000,17300.000000,55333.000000
20658.000000,11101.000000,17307.000000,55322.000000
20618.000000,11069.000000,17262.000000,55324.000000
20625.000000,11052.000000,17245.000000,55304.000000
20606.000000,11048.000000,17227.000000,55287.000000
20589.000000,11034.000000,17213.000000,55286.000000
20563.000000,11016.000000,17196.000000,55290.000000
20542.000000,10988.000000,17183.000000,55250.000000
20557.000000,10978.000000,17200.000000,55254.000000
20514.000000,11009.000000,17151.000000,55234.000000
20546.000000,10999.000000,17119.000000,55237.000000
20552.000000,10970.000000,17123.000000,55209.000000
20530.000000,10967.000000,17115.000000,55206.000000
20518.000000,10984.000000,17086.000000,55225.000000
20486.000000,10938.000000,17067.000000,55212.000000
20476.000000,10960.000000,17089.000000,55205.000000
20422.000000,10932.000000,17022.000000,55197.000000
20422.000000,10921.000000,17042.000000,55169.000000
20384.000000,10903.000000,17003.000000,55175.000000
20390.000000,10905.000000,16986.000000,55142.000000
20372.000000,10867.000000,16971.000000,55125.000000
20377.000000,10889.000000,16966.000000,55163.000000
20325.000000,10860.000000,16975.000000,55125.000000
20340.000000,10851.000000,16937.000000,55133.000000
20339.000000,10845.000000,16918.000000,55109.000000
20277.000000,10833.000000,16904.000000,55073.000000
20288.000000,10813.000000,16891.000000,55071.000000
20262.000000,10810.000000,16864.000000,55072.000000
20256.000000,10793.000000,16856.000000,55052.000000
20256.000000,10766.000000,16823.000000,55040.000000
20220.000000,10759.000000,16798.000000,55053.000000
20202.000000,10768.000000,16803.000000,55029.000000
20200.000000,10753.000000,16759.000000,55000.000000
20161.000000,10733.000000,16743.000000,54978.000000
20151.000000,10694.000000,16694.000000,54977.000000
20148.000000,10737.000000,16695.000000,54997.000000
20128.000000,10730.000000,16673.000000,54965.000000
20130.000000,10716.000000,16677.000000,54964.000000
20114.000000,10683.000000,16615.000000,54953.000000
20129.000000,10679.000000,16612.000000,54944.000000
20076.000000,10658.000000,16616.000000,54931.000000
20027.000000,10672.000000,16594.000000,54928.000000
20068.000000,10659.000000,16590.000000,54927.000000
20035.000000,10609.000000,16549.000000,54919.000000
20011.000000,10611.000000,16523.000000,54876.000000
19984.000000,10564.000000,16507.000000,54876.000000
19951.000000,10570.000000,16494.000000,54848.000000
19922.000000,10559.000000,16446.000000,54814.000000
19889.000000,10522.000000,16423.000000,54827.000000
19865.000000,10519.000000,16434.000000,54811.000000
19849.000000,10481.000000,16380.000000,54785.000000
19819.000000,10462.000000,16387.000000,54793.000000
19797.000000,10438.000000,16338.000000,54783.000000
19787.000000,10429.000000,16341.000000,54754.000000
19745.000000,10429.000000,16292.000000,54726.000000
19717.000000,10452.000000,16293.000000,54738.000000
19748.000000,10415.000000,16263.000000,54715.000000
19726.000000,10391.000000,16274.000000,54748.000000
19733.000000,10380.000000,16265.000000,54730.000000
19754.000000,10359.000000,16212.000000,54707.000000
19727.000000,10388.000000,16203.000000,54685.000000
19694.000000,10354.000000,16193.000000,54662.000000
19695.000000,10356.000000,16165.000000,54678.000000
19680.000000,10314.000000,16142.000000,54671.000000
19660.000000,10331.000000,16177.000000,54656.000000
19668.000000,10321.000000,16129.000000,54629.000000
19637.000000,10297.000000,16132.000000,54644.000000
19609.000000,10315.000000,16077.000000,54657.000000
19616.000000,10265.000000,16100.000000,54660.000000
19607.000000,10291.000000,16089.000000,54604.000000
19613.000000,10290.000000,16081.000000,54626.000000
19568.000000,10259.000000,16055.000000,54616.000000
19550.000000,10250.000000,16043.000000,54605.000000
19561.000000,10243.000000,15987.000000,54589.000000
19532.000000,10230.000000,15998.000000,54569.000000
19530.000000,10226.000000,15963.000000,54568.000000
19514.000000,10170.000000,15939.000000,54527.000000
19472.000000,10140.000000,15928.000000,54529.000000
19463.000000,10164.000000,15908.000000,54523.000000
19458.000000,10125.000000,15882.000000,54500.000000
19439.000000,10124.000000,15850.000000,54497.000000
19395.000000,10126.000000,15831.000000,54490.000000
19395.000000,10114.000000,15831.000000,54484.000000
19381.000000,10129.000000,15815.000000,54471.000000
19369.000000,10097.000000,15809.000000,54456.000000
19371.000000,10064.000000,15772.000000,54447.000000
19338.000000,10076.000000,15773.000000,54458.000000
19317.000000,10067.000000,15744.000000,54442.000000
19333.000000,10054.000000,15743.000000,54450.000000
19345.000000,10046.000000,15727.000000,54394.000000
19265.000000,10055.000000,15698.000000,54391.000000
19224.000000,10013.000000,15668.000000,54401.000000
19249.000000,10007.000000,15654.000000,54345.000000
19205.000000,9982.000000,15613.000000,54340.000000
19200.000000,9959.000000,15590.000000,54326.000000
19169.000000,9944.000000,15554.000000,54306.000000
19101.000000,9910.000000,15534.000000,54292.000000
19095.000000,9913.000000,15503.000000,54314.000000
19118.000000,9890.000000,15480.000000,54276.000000
19052.000000,9897.000000,15498.000000,54264.000000
19065.000000,9883.000000,15455.000000,54263.000000
19041.000000,9874.000000,15448.000000,54230.000000
19038.000000,9839.000000,15412.000000,54241.000000
18984.000000,9830.000000,15448.000000,54264.000000
18994.000000,9831.000000,15430.000000,54290.000000
18974.000000,9811.000000,15413.000000,54255.000000
18981.000000,9794.000000,15398.000000,54253.000000
18975.000000,9830.000000,15424.000000,54238.000000
19000.000000,9820.000000,15409.000000,54243.000000
18975.000000,9822.000000,15409.000000,54280.000000
18964.000000,9843.000000,15446.000000,54280.000000
19009.000000,9831.000000,15466.000000,54296.000000
19029.000000,9845.000000,15466.000000,54281.000000
19040.000000,9884.000000,15519.000000,54320.000000
19096.000000,9905.000000,15517.000000,54361.000000
19086.000000,9879.000000,15501.000000,54352.000000
19062.000000,9899.000000,15568.000000,54340.000000
19095.000000,9888.000000,15554.000000,54342.000000
19091.000000,9917.000000,15606.000000,54353.000000
19089.000000,9920.000000,15602.000000,54357.000000
19110.000000,9911.000000,15629.000000,54380.000000
19143.000000,9945.000000,15673.000000,54394.000000
19135.000000,9972.000000,15694.000000,54413.000000
19188.000000,9990.000000,15752.000000,54415.000000
19179.000000,10008.000000,15756.000000,54466.000000
19229.000000,10019.000000,15800.000000,54487.000000
19290.000000,10027.000000,15835.000000,54509.000000
19319.000000,10050.000000,15896.000000,54549.000000
19395.000000,10116.000000,15950.000000,54591.000000
19454.000000,10158.000000,16024.000000,54612.000000
19512.000000,10178.000000,16087.000000,54664.000000
19596.000000,10257.000000,16179.000000,54707.000000
19663.000000,10308.000000,16285.000000,54749.000000
19775.000000,10375.000000,16304.000000,54813.000000
19876.000000,10439.000000,16415.000000,54833.000000
19911.000000,10494.000000,16480.000000,54925.000000
19975.000000,10570.000000,16598.000000,54944.000000
20050.000000,10648.000000,16666.000000,54983.000000
20154.000000,10675.000000,16714.000000,55028.000000
20203.000000,10746.000000,16795.000000,55064.000000
20281.000000,10781.000000,16883.000000,55116.000000
20329.000000,10825.000000,16940.000000,55172.000000
20412.000000,10859.000000,17017.000000,55180.000000
20443.000000,10905.000000,17060.000000,55218.000000
20536.000000,10957.000000,17132.000000,55256.000000
20564.000000,10977.000000,17148.000000,55257.000000
20596.000000,11035.000000,17181.000000,55280.000000
20633.000000,11011.000000,17220.000000,55285.000000
20655.000000,11081.000000,17226.000000,55286.000000
20637.000000,11047.000000,17236.000000,55297.000000
20678.000000,11057.000000,17255.000000,55321.000000
20683.000000,11066.000000,17250.000000,55303.000000
20669.000000,11092.000000,17237.000000,55295.000000
20675.000000,11060.000000,17240.000000,55291.000000
20675.000000,11059.000000,17214.000000,55289.000000
20666.000000,11070.000000,17212.000000,55295.000000
20639.000000,11031.000000,17209.000000,55287.000000
20621.000000,11026.000000,17181.000000,55290.000000
20629.000000,11032.000000,17157.000000,55284.000000
20604.000000,10990.000000,17131.000000,55284.000000
20635.000000,11029.000000,17115.000000,55247.000000
20575.000000,11043.000000,17153.000000,55254.000000
20581.000000,11006.000000,17097.000000,55227.000000
20556.000000,11013.000000,17054.000000,55244.000000
20500.000000,10967.000000,17047.000000,55227.000000
20518.000000,10954.000000,17078.000000,55197.000000
20466.000000,10943.000000,17005.000000,55168.000000
20462.000000,10942.000000,16965.000000,55180.000000
20441.000000,10913.000000,16952.000000,55144.000000
20442.000000,10885.000000,16985.000000,55155.000000
20395.000000,10886.000000,16956.000000,55155.000000
20393.000000,10869.000000,16904.000000,55103.000000
20375.000000,10852.000000,16886.000000,55117.000000
20398.000000,10864.000000,16884.000000,55111.000000
20339.000000,10844.000000,16842.000000,55108.000000
20357.000000,10844.000000,16845.000000,55103.000000
20342.000000,10862.000000,16854.000000,55104.000000
20261.000000,10822.000000,16829.000000,55084.000000
20286.000000,10778.000000,16813.000000,55087.000000
20299.000000,10774.000000,16779.000000,55052.000000
20247.000000,10769.000000,16757.000000,55046.000000
20249.000000,10786.000000,16744.000000,55037.000000
20232.000000,10767.000000,16698.000000,55020.000000
20236.000000,10749.000000,16708.000000,55001.000000
20194.000000,10767.000000,16652.000000,54994.000000
20188.000000,10750.000000,16676.000000,54993.000000
20181.000000,10717.000000,16666.000000,54986.000000
20178.000000,10720.000000,16636.000000,55003.000000
20154.000000,10711.000000,16655.000000,54982.000000
20153.000000,10703.000000,16623.000000,54988.000000
20144.000000,10721.000000,16625.000000,54966.000000
20171.000000,10713.000000,16599.000000,54945.000000
20157.000000,10695.000000,16604.000000,54947.000000
20143.000000,10704.000000,16582.000000,54951.000000
20151.000000,10666.000000,16578.000000,54933.000000
20120.000000,10683.000000,16552.000000,54913.000000
20079.000000,10657.000000,16529.000000,54919.000000
20064.000000,10624.000000,16504.000000,54920.000000
20066.000000,10607.000000,16497.000000,54894.000000
20009.000000,10627.000000,16486.000000,54883.000000
20040.000000,10577.000000,16460.000000,54877.000000
20009.000000,10568.000000,16423.000000,54904.000000
19953.000000,10561.000000,16413.000000,54841.000000
19950.000000,10544.000000,16425.000000,54816.000000
19948.000000,10493.000000,16353.000000,54818.000000
19877.000000,10481.000000,16325.000000,54792.000000
19886.000000,10468.000000,16317.000000,54793.000000
19860.000000,10459.000000,16295.000000,54761.000000
19828.000000,10440.000000,16260.000000,54756.000000
19841.000000,10419.000000,16240.000000,54760.000000
19815.000000,10384.000000,16249.000000,54733.000000
19776.000000,10400.000000,16218.000000,54727.000000
19761.000000,10371.000000,16216.000000,54706.000000
19757.000000,10372.000000,16161.000000,54714.000000
19735.000000,10373.000000,16175.000000,54708.000000
19711.000000,10356.000000,16112.000000,54692.000000
19735.000000,10353.000000,16127.000000,54679.000000
19686.000000,10323.000000,16086.000000,54695.000000
19704.000000,10293.000000,16086.000000,54665.000000
19665.000000,10308.000000,16092.000000,54675.000000
19638.000000,10298.000000,16086.000000,54658.000000
19646.000000,10300.000000,16075.000000,54631.000000
19601.000000,10302.000000,16024.000000,54633.000000
19606.000000,10299.000000,16044.000000,54603.000000
19591.000000,10255.000000,16032.000000,54595.000000
19593.000000,10250.000000,15988.000000,54592.000000
19533.000000,10216.000000,15996.000000,54609.000000
19528.000000,10198.000000,15941.000000,54554.000000
19527.000000,10219.000000,15933.000000,54563.000000
19498.000000,10200.000000,15908.000000,54537.000000
19490.000000,10209.000000,15904.000000,54549.000000
19484.000000,10184.000000,15865.000000,54517.000000
19468.000000,10145.000000,15861.000000,54512.000000
19453.000000,10131.000000,15811.000000,54497.000000
19434.000000,10077.000000,15776.000000,54450.000000
19365.000000,10076.000000,15770.000000,54432.000000
19366.000000,10046.000000,15764.000000,54432.000000
19344.000000,10061.000000,15721.000000,54420.000000
19303.000000,10042.000000,15690.000000,54397.000000
19249.000000,10041.000000,15674.000000,54401.000000
19268.000000,10001.000000,15655.000000,54386.000000
19250.000000,9972.000000,15636.000000,54377.000000
19199.000000,9956.000000,15593.000000,54337.000000
19231.000000,9925.000000,15616.000000,54347.000000
19207.000000,9948.000000,15595.000000,54331.000000
19172.000000,9948.000000,15581.000000,54334.000000
19186.000000,9935.000000,15550.000000,54344.000000
19139.000000,9894.000000,15549.000000,54307.000000
19126.000000,9895.000000,15514.000000,54336.000000
19095.000000,9893.000000,15479.000000,54297.000000
19066.000000,9894.000000,15431.000000,54292.000000
19049.000000,9855.000000,15428.000000,54253.000000
19015.000000,9810.000000,15409.000000,54232.000000
18961.000000,9809.000000,15374.000000,54217.000000
18919.000000,9802.000000,15334.000000,54235.000000
18925.000000,9777.000000,15311.000000,54202.000000
18886.000000,9733.000000,15329.000000,54212.000000
18900.000000,9747.000000,15296.000000,54202.000000
18876.000000,9720.000000,15361.000000,54177.000000
18852.000000,9702.000000,15278.000000,54190.000000
18841.000000,9730.000000,15353.000000,54170.000000
18924.000000,9755.000000,15366.000000,54233.000000
18871.000000,9735.000000,15365.000000,54233.000000
18896.000000,9751.000000,15387.000000,54201.000000
18879.000000,9781.000000,15372.000000,54200.000000
18890.000000,9783.000000,15379.000000,54259.000000
18933.000000,9785.000000,15410.000000,54280.000000
18983.000000,9803.000000,15452.000000,54257.000000
18945.000000,9824.000000,15477.000000,54271.000000
18959.000000,9838.000000,15490.000000,54320.000000
19016.000000,9847.000000,15516.000000,54328.000000
19041.000000,9840.000000,15567.000000,54360.000000
19043.000000,9860.000000,15587.000000,54370.000000
19121.000000,9916.000000,15620.000000,54374.000000
19148.000000,9960.000000,15669.000000,54391.000000
19219.000000,9991.000000,15723.000000,54463.000000
19278.000000,10019.000000,15728.000000,54470.000000
19368.000000,10058.000000,15804.000000,54541.000000
19409.000000,10078.000000,15891.000000,54557.000000
19402.000000,10130.000000,15923.000000,54570.000000
19467.000000,10150.000000,16014.000000,54604.000000
19537.000000,10219.000000,16099.000000,54640.000000
19598.000000,10270.000000,16136.000000,54710.000000
19673.000000,10323.000000,16210.000000,54758.000000
19729.000000,10393.000000,16285.000000,54775.000000
19796.000000,10406.000000,16390.000000,54823.000000
19865.000000,10443.000000,16439.000000,54888.000000
19939.000000,10515.000000,16530.000000,54943.000000
20016.000000,10559.000000,16566.000000,54973.000000
20056.000000,10639.000000,16648.000000,55027.000000
20150.000000,10663.000000,16735.000000,55069.000000
20223.000000,10734.000000,16845.000000,55083.000000
20269.000000,10766.000000,16925.000000,55109.000000
20340.000000,10848.000000,16969.000000,55172.000000
20419.000000,10914.000000,17003.000000,55207.000000
20441.000000,10931.000000,17101.000000,55222.000000
20578.000000,11001.000000,17141.000000,55263.000000
20589.000000,11022.000000,17187.000000,55272.000000
20663.000000,11011.000000,17224.000000,55305.000000
20675.000000,11072.000000,17256.000000,55294.000000
20713.000000,11061.000000,17265.000000,55345.000000
20725.000000,11128.000000,17291.000000,55383.000000
20770.000000,11112.000000,17261.000000,55338.000000
20758.000000,11116.000000,17274.000000,55358.000000
20775.000000,11147.000000,17272.000000,55363.000000
20733.000000,11112.000000,17298.000000,55321.000000
20733.000000,11132.000000,17258.000000,55325.000000
20748.000000,11107.000000,17247.000000,55344.000000
20707.000000,11083.000000,17231.000000,55308.000000
20699.000000,11083.000000,17233.000000,55313.000000
20682.000000,11042.000000,17212.000000,55308.000000
20673.000000,11041.000000,17195.000000,55298.000000
20663.000000,11050.000000,17156.000000,55286.000000
20639.000000,11051.000000,17156.000000,55304.000000
20601.000000,11002.000000,17167.000000,55289.000000
20586.000000,11014.000000,17149.000000,55265.000000
20579.000000,10992.000000,17111.000000,55256.000000
20586.000000,11011.000000,17096.000000,55272.000000
20552.000000,10997.000000,17093.000000,55242.000000
20516.000000,10979.000000,17079.000000,55221.000000
20529.000000,10929.000000,17044.000000,55195.000000
20445.000000,10950.000000,16981.000000,55200.000000
20468.000000,10916.000000,16987.000000,55185.000000
20479.000000,10915.000000,16988.000000,55201.000000
20402.000000,10906.000000,16977.000000,55165.000000
20387.000000,10892.000000,16948.000000,55175.000000
20424.000000,10880.000000,16919.000000,55164.000000
20401.000000,10854.000000,16924.000000,55113.000000
20417.000000,10841.000000,16898.000000,55136.000000
20393.000000,10857.000000,16882.000000,55133.000000
20386.000000,10838.000000,16862.000000,55116.000000
20365.000000,10824.000000,16854.000000,55089.000000
20361.000000,10821.000000,16854.000000,55124.000000
20324.000000,10812.000000,16835.000000,55086.000000
20308.000000,10809.000000,16818.000000,55081.000000
20330.000000,10782.000000,16835.000000,55100.000000
20334.000000,10818.000000,16832.000000,55070.000000
20322.000000,10821.000000,16790.000000,55071.000000
20301.000000,10761.000000,16779.000000,55075.000000
20276.000000,10778.000000,16760.000000,55078.000000
20227.000000,10813.000000,16752.000000,55057.000000
20254.000000,10750.000000,16719.000000,55040.000000
20211.000000,10727.000000,16723.000000,55022.000000
20209.000000,10755.000000,16669.000000,55006.000000
20175.000000,10711.000000,16654.000000,54999.000000
20144.000000,10743.000000,16661.000000,54980.000000
20144.000000,10689.000000,16630.000000,54956.000000
20105.000000,10679.000000,16589.000000,54956.000000
20073.000000,10654.000000,16594.000000,54914.000000
20033.000000,10649.000000,16543.000000,54901.000000
20026.000000,10619.000000,16546.000000,54903.000000
20000.000000,10611.000000,16497.000000,54884.000000
19980.000000,10564.000000,16467.000000,54845.000000
19931.000000,10579.000000,16429.000000,54810.000000
19937.000000,10552.000000,16415.000000,54826.000000
19951.000000,10494.000000,16405.000000,54809.000000
19921.000000,10522.000000,16391.000000,54814.000000
19903.000000,10526.000000,16374.000000,54816.000000
19894.000000,10495.000000,16369.000000,54820.000000
19862.000000,10527.000000,16355.000000,54802.000000
19880.000000,10483.000000,16352.000000,54802.000000
19871.000000,10494.000000,16363.000000,54795.000000
19842.000000,10471.000000,16286.000000,54781.000000
19848.000000,10464.000000,16255.000000,54781.000000
19772.000000,10441.000000,16265.000000,54754.000000
19792.000000,10469.000000,16236.000000,54751.000000
19771.000000,10411.000000,16242.000000,54734.000000
19725.000000,10371.000000,16206.000000,54691.000000
19685.000000,10359.000000,16151.000000,54693.000000
19685.000000,10335.000000,16166.000000,54672.000000
19643.000000,10330.000000,16157.000000,54684.000000
19610.000000,10319.000000,16142.000000,54685.000000
19624.000000,10324.000000,16133.000000,54656.000000
19582.000000,10298.000000,16086.000000,54651.000000
19595.000000,10281.000000,16058.000000,54635.000000
19540.000000,10238.000000,16039.000000,54589.000000
19542.000000,10260.000000,16039.000000,54570.000000
19566.000000,10221.000000,16019.000000,54586.000000
19541.000000,10246.000000,16013.000000,54597.000000
19520.000000,10238.000000,16001.000000,54584.000000
19518.000000,10217.000000,15961.000000,54569.000000
19504.000000,10223.000000,15947.000000,54543.000000
19518.000000,10201.000000,15939.000000,54583.000000
19473.000000,10183.000000,15910.000000,54528.000000
19488.000000,10170.000000,15913.000000,54535.000000
19473.000000,10165.000000,15852.000000,54528.000000
19460.000000,10133.000000,15877.000000,54504.000000
19452.000000,10120.000000,15853.000000,54531.000000
19399.000000,10134.000000,15829.000000,54495.000000
19410.000000,10118.000000,15810.000000,54490.000000
19397.000000,10113.000000,15782.000000,54475.000000
19419.000000,10070.000000,15799.000000,54455.000000
19375.000000,10083.000000,15764.000000,54424.000000
19362.000000,10065.000000,15745.000000,54421.000000
19347.000000,10045.000000,15711.000000,54424.000000
19338.000000,10034.000000,15717.000000,54428.000000
19307.000000,10037.000000,15694.000000,54407.000000
19310.000000,10026.000000,15699.000000,54403.000000
19353.000000,10025.000000,15668.000000,54379.000000
19293.000000,9985.000000,15634.000000,54370.000000
19294.000000,9975.000000,15645.000000,54381.000000
19248.000000,9985.000000,15599.000000,54351.000000
19212.000000,9949.000000,15592.000000,54347.000000
19168.000000,9972.000000,15552.000000,54353.000000
19158.000000,9922.000000,15519.000000,54319.000000
19148.000000,9908.000000,15475.000000,54300.000000
19111.000000,9919.000000,15477.000000,54294.000000
19072.000000,9837.000000,15462.000000,54257.000000
19060.000000,9848.000000,15409.000000,54296.000000
19053.000000,9840.000000,15420.000000,54293.000000
19014.000000,9817.000000,15413.000000,54256.000000
19012.000000,9810.000000,15391.000000,54277.000000
19025.000000,9806.000000,15405.000000,54246.000000
19017.000000,9828.000000,15375.000000,54262.000000
18995.000000,9821.000000,15395.000000,54237.000000
19034.000000,9810.000000,15379.000000,54254.000000
19026.000000,9834.000000,15398.000000,54274.000000
19061.000000,9848.000000,15416.000000,54284.000000
19094.000000,9845.000000,15461.000000,54290.000000
19129.000000,9869.000000,15455.000000,54311.000000
19149.000000,9866.000000,15483.000000,54334.000000
19137.000000,9878.000000,15497.000000,54333.000000
19148.000000,9912.000000,15543.000000,54383.000000
19164.000000,9925.000000,15527.000000,54387.000000
19195.000000,9937.000000,15561.000000,54377.000000
19171.000000,9949.000000,15626.000000,54406.000000
19183.000000,9963.000000,15650.000000,54388.000000
19245.000000,9956.000000,15637.000000,54440.000000
19266.000000,9964.000000,15695.000000,54436.000000
19255.000000,9988.000000,15708.000000,54445.000000
19297.000000,10025.000000,15737.000000,54482.000000
19317.000000,10034.000000,15791.000000,54515.000000
19392.000000,10086.000000,15831.000000,54545.000000
19397.000000,10092.000000,15864.000000,54579.000000
19435.000000,10142.000000,15953.000000,54601.000000
19494.000000,10177.000000,15993.000000,54644.000000
19580.000000,10219.000000,16069.000000,54690.000000
19625.000000,10284.000000,16123.000000,54722.000000
19719.000000,10317.000000,16203.000000,54763.000000
19797.000000,10394.000000,16300.000000,54817.000000
19892.000000,10433.000000,16394.000000,54879.000000
19990.000000,10547.000000,16481.000000,54924.000000
20086.000000,10616.000000,16579.000000,54962.000000
20199.000000,10689.000000,16680.000000,55069.000000
20294.000000,10721.000000,16744.000000,55089.000000
20310.000000,10765.000000,16827.000000,55152.000000
20381.000000,10827.000000,16933.000000,55181.000000
20462.000000,10869.000000,16972.000000,55221.000000
20545.000000,10942.000000,17052.000000,55289.000000
20577.000000,10959.000000,17118.000000,55286.000000
20610.000000,11017.000000,17145.000000,55310.000000
20684.000000,11083.000000,17213.000000,55360.000000
20726.000000,11059.000000,17267.000000,55364.000000
20781.000000,11114.000000,17273.000000,55380.000000
20823.000000,11099.000000,17295.000000,55399.000000
20843.000000,11145.000000,17305.000000,55414.000000
20851.000000,11178.000000,17331.000000,55409.000000
20883.000000,11194.000000,17326.000000,55425.000000
20865.000000,11124.000000,17303.000000,55386.000000
20851.000000,11155.000000,17311.000000,55401.000000
20856.000000,11176.000000,17267.000000,55387.000000
20861.000000,11155.000000,17301.000000,55364.000000
20762.000000,11120.000000,17275.000000,55375.000000
20785.000000,11113.000000,17250.000000,55354.000000
20750.000000,11077.000000,17233.000000,55347.000000
20741.000000,11062.000000,17205.000000,55359.000000
20683.000000,11057.000000,17209.000000,55320.000000
20689.000000,11030.000000,17154.000000,55303.000000
20629.000000,11003.000000,17189.000000,55292.000000
20653.000000,11036.000000,17165.000000,55277.000000
20629.000000,11026.000000,17162.000000,55278.000000
20589.000000,11005.000000,17155.000000,55288.000000
20618.000000,10985.000000,17116.000000,55279.000000
20582.000000,10985.000000,17116.000000,55277.000000
20528.000000,10951.000000,17072.000000,55241.000000
20516.000000,10944.000000,17073.000000,55263.000000
20485.000000,10928.000000,17034.000000,55207.000000
20482.000000,10941.000000,17001.000000,55212.000000
20436.000000,10911.000000,17005.000000,55203.000000
20409.000000,10865.000000,16948.000000,55205.000000
20390.000000,10849.000000,16948.000000,55170.000000
20410.000000,10863.000000,16968.000000,55144.000000
20376.000000,10860.000000,16938.000000,55164.000000
20392.000000,10858.000000,16921.000000,55133.000000
20363.000000,10817.000000,16924.000000,55147.000000
20335.000000,10806.000000,16872.000000,55120.000000
20314.000000,10824.000000,16855.000000,55118.000000
20291.000000,10779.000000,16845.000000,55109.000000
20272.000000,10792.000000,16845.000000,55075.000000
20234.000000,10780.000000,16830.000000,55072.000000
20240.000000,10745.000000,16829.000000,55100.000000
20246.000000,10773.000000,16781.000000,55065.000000
20214.000000,10757.000000,16786.000000,55062.000000
20219.000000,10762.000000,16755.000000,55058.000000
20229.000000,10710.000000,16774.000000,55050.000000
20188.000000,10727.000000,16764.000000,55051.000000
20214.000000,10746.000000,16752.000000,55053.000000
20223.000000,10728.000000,16712.000000,55066.000000
20216.000000,10739.000000,16729.000000,55060.000000
20225.000000,10722.000000,16709.000000,55034.000000
20218.000000,10721.000000,16716.000000,55042.000000
20177.000000,10701.000000,16693.000000,55013.000000
20152.000000,10701.000000,16691.000000,55014.000000
20157.000000,10692.000000,16651.000000,54989.000000
20108.000000,10685.000000,16634.000000,54980.000000
20096.000000,10668.000000,16601.000000,54991.000000
20071.000000,10653.000000,16603.000000,54966.000000
20052.000000,10639.000000,16591.000000,54936.000000
20044.000000,10629.000000,16550.000000,54940.000000
20007.000000,10610.000000,16541.000000,54947.000000
19997.000000,10571.000000,16516.000000,54901.000000
19971.000000,10581.000000,16505.000000,54901.000000
19979.000000,10568.000000,16461.000000,54868.000000
19949.000000,10551.000000,16435.000000,54865.000000
19971.000000,10527.000000,16474.000000,54856.000000
19937.000000,10553.000000,16438.000000,54863.000000
19899.000000,10530.000000,16436.000000,54865.000000
19919.000000,10523.000000,16372.000000,54856.000000
19921.000000,10486.000000,16391.000000,54848.000000
19912.000000,10539.000000,16394.000000,54816.000000
19893.000000,10520.000000,16332.000000,54814.000000
19850.000000,10511.000000,16310.000000,54798.000000
19818.000000,10490.000000,16334.000000,54798.000000
19816.000000,10462.000000,16309.000000,54745.000000
19769.000000,10444.000000,16264.000000,54734.000000
19749.000000,10417.000000,16267.000000,54737.000000
19723.000000,10398.000000,16262.000000,54753.000000
19730.000000,10381.000000,16236.000000,54711.000000
19675.000000,10389.000000,16205.000000,54721.000000
19658.000000,10368.000000,16180.000000,54687.000000
19631.000000,10340.000000,16169.000000,54677.000000
19610.000000,10297.000000,16134.000000,54660.000000
19614.000000,10282.000000,16119.000000,54672.000000
19553.000000,10249.000000,16094.000000,54653.000000
19563.000000,10270.000000,16127.000000,54658.000000
19583.000000,10245.000000,16090.000000,54635.000000
19568.000000,10268.000000,16033.000000,54617.000000
19567.000000,10284.000000,16070.000000,54609.000000
19560.000000,10237.000000,16063.000000,54598.000000
19553.000000,10246.000000,16033.000000,54592.000000
19540.000000,10225.000000,16009.000000,54587.000000
19543.000000,10236.000000,16001.000000,54572.000000
19515.000000,10229.000000,15987.000000,54610.000000
19490.000000,10195.000000,15939.000000,54565.000000
19469.000000,10146.000000,15936.000000,54545.000000
19448.000000,10194.000000,15956.000000,54537.000000
19439.000000,10159.000000,15921.000000,54561.000000
19416.000000,10149.000000,15892.000000,54538.000000
19421.000000,10112.000000,15888.000000,54514.000000
19419.000000,10158.000000,15862.000000,54519.000000
19396.000000,10123.000000,15858.000000,54527.000000
19365.000000,10098.000000,15825.000000,54474.000000
19339.000000,10071.000000,15789.000000,54476.000000
19309.000000,10047.000000,15804.000000,54430.000000
19295.000000,10029.000000,15773.000000,54443.000000
19277.000000,10033.000000,15755.000000,54426.000000
19222.000000,10030.000000,15695.000000,54402.000000
19221.000000,10003.000000,15712.000000,54406.000000
19196.000000,9988.000000,15683.000000,54384.000000
19153.000000,9970.000000,15639.000000,54348.000000
19104.000000,9928.000000,15595.000000,54375.000000
19080.000000,9898.000000,15571.000000,54329.000000
19032.000000,9878.000000,15517.000000,54339.000000
19000.000000,9879.000000,15527.000000,54322.000000
18984.000000,9827.000000,15473.000000,54301.000000
18958.000000,9829.000000,15504.000000,54286.000000
18968.000000,9829.000000,15468.000000,54267.000000
18956.000000,9821.000000,15438.000000,54296.000000
18939.000000,9804.000000,15447.000000,54292.000000
18970.000000,9858.000000,15470.000000,54298.000000
18998.000000,9836.000000,15485.000000,54335.000000
19024.000000,9852.000000,15493.000000,54318.000000
19015.000000,9859.000000,15528.000000,54313.000000
19015.000000,9834.000000,15537.000000,54348.000000
19036.000000,9891.000000,15543.000000,54329.000000
19047.000000,9870.000000,15555.000000,54346.000000
19089.000000,9915.000000,15593.000000,54379.000000
19097.000000,9967.000000,15615.000000,54372.000000
19094.000000,9909.000000,15587.000000,54387.000000
19093.000000,9914.000000,15648.000000,54425.000000
19115.000000,9928.000000,15666.000000,54397.000000
19132.000000,9949.000000,15699.000000,54428.000000
19161.000000,9979.000000,15712.000000,54448.000000
19157.000000,9973.000000,15713.000000,54459.000000
19200.000000,10002.000000,15771.000000,54482.000000
19188.000000,10007.000000,15803.000000,54496.000000
19218.000000,10011.000000,15867.000000,54536.000000
19269.000000,10082.000000,15912.000000,54554.000000
19322.000000,10088.000000,15939.000000,54568.000000
19377.000000,10114.000000,15973.000000,54587.000000
19445.000000,10148.000000,16026.000000,54640.000000
19504.000000,10205.000000,16134.000000,54690.000000
19560.000000,10282.000000,16202.000000,54715.000000
19636.000000,10320.000000,16286.000000,54762.000000
19682.000000,10343.000000,16373.000000,54842.000000
19790.000000,10426.000000,16428.000000,54904.000000
19827.000000,10507.000000,16532.000000,54923.000000
19867.000000,10538.000000,16586.000000,54959.000000
19969.000000,10583.000000,16632.000000,54979.000000
20040.000000,10638.000000,16702.000000,55031.000000
20099.000000,10675.000000,16811.000000,55070.000000
20150.000000,10725.000000,16849.000000,55103.000000
20269.000000,10771.000000,16898.000000,55146.000000
20285.000000,10822.000000,16985.000000,55187.000000
20372.000000,10876.000000,17051.000000,55253.000000
20449.000000,10958.000000,17111.000000,55261.000000
20495.000000,10977.000000,17192.000000,55286.000000
20548.000000,11038.000000,17242.000000,55294.000000
20618.000000,11045.000000,17247.000000,55351.000000
20672.000000,11097.000000,17300.000000,55368.000000
20688.000000,11119.000000,17364.000000,55358.000000
20724.000000,11111.000000,17359.000000,55384.000000
20719.000000,11131.000000,17354.000000,55392.000000
20704.000000,11142.000000,17370.000000,55387.000000
20734.000000,11130.000000,17355.000000,55392.000000
20718.000000,11124.000000,17334.000000,55404.000000
20625.000000,11140.000000,17313.000000,55373.000000
20663.000000,11087.000000,17310.000000,55372.000000
20599.000000,11072.000000,17296.000000,55378.000000
20596.000000,11082.000000,17270.000000,55361.000000
20581.000000,11082.000000,17250.000000,55332.000000
20569.000000,11039.000000,17263.000000,55313.000000
20498.000000,11023.000000,17217.000000,55278.000000
20548.000000,10995.000000,17191.000000,55300.000000
20477.000000,11002.000000,17190.000000,55312.000000
20509.000000,10971.000000,17166.000000,55301.000000
20475.000000,10954.000000,17169.000000,55269.000000
20498.000000,10979.000000,17117.000000,55268.000000
20469.000000,10935.000000,17098.000000,55279.000000
20469.000000,10953.000000,17093.000000,55269.000000
20453.000000,10949.000000,17078.000000,55252.000000
20439.000000,10926.000000,17049.000000,55191.000000
20391.000000,10906.000000,17030.000000,55193.000000
20406.000000,10883.000000,17006.000000,55201.000000
20362.000000,10899.000000,17003.000000,55197.000000
20399.000000,10869.000000,16962.000000,55185.000000
20391.000000,10888.000000,16976.000000,55140.000000
20360.000000,10855.000000,16948.000000,55156.000000
20340.000000,10885.000000,16931.000000,55186.000000
20333.000000,10854.000000,16957.000000,55118.000000
20325.000000,10851.000000,16917.000000,55154.000000
20285.000000,10829.000000,16897.000000,55150.000000
20283.000000,10815.000000,16876.000000,55139.000000
20258.000000,10784.000000,16848.000000,55104.000000
20257.000000,10816.000000,16806.000000,55085.000000
20243.000000,10770.000000,16836.000000,55067.000000
20190.000000,10732.000000,16811.000000,55058.000000
20213.000000,10762.000000,16789.000000,55083.000000
20170.000000,10733.000000,16759.000000,55066.000000
20185.000000,10736.000000,16709.000000,55040.000000
20151.000000,10724.000000,16721.000000,55032.000000
20128.000000,10739.000000,16726.000000,54999.000000
20144.000000,10689.000000,16766.000000,54994.000000
20121.000000,10691.000000,16698.000000,55006.000000
20126.000000,10670.000000,16662.000000,54998.000000
20093.000000,10649.000000,16659.000000,54952.000000
20055.000000,10648.000000,16598.000000,54955.000000
20028.000000,10663.000000,16629.000000,54960.000000
20022.000000,10617.000000,16582.000000,54949.000000
20006.000000,10599.000000,16566.000000,54927.000000
19967.000000,10572.000000,16515.000000,54908.000000
19962.000000,10559.000000,16509.000000,54912.000000
19922.000000,10551.000000,16495.000000,54888.000000
19913.000000,10534.000000,16469.000000,54876.000000
19852.000000,10512.000000,16454.000000,54855.000000
19852.000000,10479.000000,16404.000000,54836.000000
19813.000000,10469.000000,16448.000000,54856.000000
19814.000000,10463.000000,16398.000000,54837.000000
19779.000000,10434.000000,16365.000000,54800.000000
19792.000000,10431.000000,16336.000000,54785.000000
19733.000000,10410.000000,16306.000000,54790.000000
19710.000000,10382.000000,16276.000000,54783.000000
19691.000000,10371.000000,16290.000000,54762.000000
19657.000000,10354.000000,16267.000000,54731.000000
19669.000000,10371.000000,16223.000000,54731.000000
19663.000000,10348.000000,16233.000000,54733.000000
19602.000000,10352.000000,16212.000000,54704.000000
19612.000000,10306.000000,16161.000000,54688.000000
19568.000000,10308.000000,16179.000000,54701.000000
19574.000000,10260.000000,16157.000000,54676.000000
19539.000000,10311.000000,16140.000000,54668.000000
19569.000000,10284.000000,16134.000000,54700.000000
19515.000000,10256.000000,16103.000000,54639.000000
19528.000000,10251.000000,16112.000000,54642.000000
19496.000000,10226.000000,16081.000000,54626.000000
19479.000000,10242.000000,16093.000000,54639.000000
19480.000000,10211.000000,16041.000000,54637.000000
19465.000000,10226.000000,16006.000000,54612.000000
19450.000000,10195.000000,16013.000000,54592.000000
19461.000000,10170.000000,15991.000000,54578.000000
19427.000000,10192.000000,15987.000000,54555.000000
19453.000000,10161.000000,15936.000000,54580.000000
19385.000000,10153.000000,15951.000000,54561.000000
19388.000000,10130.000000,15955.000000,54529.000000
19400.000000,10153.000000,15910.000000,54564.000000
19363.000000,10126.000000,15906.000000,54522.000000
19379.000000,10098.000000,15895.000000,54519.000000
19362.000000,10093.000000,15883.000000,54515.000000
19328.000000,10058.000000,15864.000000,54503.000000
19302.000000,10101.000000,15853.000000,54481.000000
19248.000000,10044.000000,15799.000000,54514.000000
19255.000000,10054.000000,15825.000000,54509.000000
19281.000000,10032.000000,15792.000000,54483.000000
19225.000000,10026.000000,15782.000000,54480.000000
19202.000000,10007.000000,15743.000000,54425.000000
19200.000000,9986.000000,15751.000000,54439.000000
19160.000000,9994.000000,15717.000000,54438.000000
19164.000000,9964.000000,15692.000000,54396.000000
19117.000000,9957.000000,15678.000000,54403.000000
19049.000000,9910.000000,15645.000000,54379.000000
19070.000000,9903.000000,15584.000000,54362.000000
19027.000000,9885.000000,15577.000000,54344.000000
19012.000000,9872.000000,15529.000000,54330.000000
18984.000000,9858.000000,15514.000000,54297.000000
18959.000000,9849.000000,15495.000000,54303.000000
18898.000000,9822.000000,15490.000000,54288.000000
18923.000000,9800.000000,15461.000000,54306.000000
18885.000000,9804.000000,15422.000000,54288.000000
18864.000000,9815.000000,15422.000000,54265.000000
18832.000000,9768.000000,15403.000000,54246.000000
18858.000000,9723.000000,15385.000000,54225.000000
18878.000000,9732.000000,15387.000000,54260.000000
18839.000000,9735.000000,15387.000000,54225.000000
18849.000000,9739.000000,15380.000000,54268.000000
18845.000000,9747.000000,15390.000000,54262.000000
18847.000000,9749.000000,15393.000000,54229.000000
18834.000000,9761.000000,15430.000000,54274.000000
18879.000000,9792.000000,15433.000000,54276.000000
18865.000000,9778.000000,15420.000000,54223.000000
18857.000000,9787.000000,15442.000000,54274.000000
18860.000000,9765.000000,15467.000000,54294.000000
18834.000000,9791.000000,15496.000000,54267.000000
18872.000000,9812.000000,15459.000000,54306.000000
18906.000000,9807.000000,15506.000000,54350.000000
18930.000000,9829.000000,15547.000000,54349.000000
18987.000000,9863.000000,15592.000000,54372.000000
18971.000000,9872.000000,15605.000000,54383.000000
19011.000000,9890.000000,15628.000000,54407.000000
19035.000000,9885.000000,15684.000000,54434.000000
19092.000000,9933.000000,15725.000000,54430.000000
19098.000000,9974.000000,15744.000000,54472.000000
19134.000000,9970.000000,15788.000000,54509.000000
19198.000000,9990.000000,15832.000000,54523.000000
19207.000000,10044.000000,15879.000000,54570.000000
19296.000000,10073.000000,15923.000000,54584.000000
19348.000000,10113.000000,15968.000000,54624.000000
19400.000000,10156.000000,16045.000000,54675.000000
19467.000000,10196.000000,16152.000000,54707.000000
19560.000000,10239.000000,16231.000000,54736.000000
19636.000000,10316.000000,16319.000000,54823.000000
19706.000000,10372.000000,16409.000000,54892.000000
19779.000000,10427.000000,16460.000000,54933.000000
19824.000000,10496.000000,16561.000000,54963.000000
19909.000000,10532.000000,16603.000000,55015.000000
20009.000000,10599.000000,16713.000000,55071.000000
20051.000000,10662.000000,16806.000000,55118.000000
20131.000000,10732.000000,16867.000000,55130.000000
20222.000000,10749.000000,16932.000000,55171.000000
20287.000000,10804.000000,17001.000000,55227.000000
20337.000000,10859.000000,17038.000000,55243.000000
20382.000000,10916.000000,17125.000000,55278.000000
20481.000000,10944.000000,17140.000000,55296.000000
20480.000000,10991.000000,17159.000000,55301.000000
20528.000000,10989.000000,17188.000000,55335.000000
20567.000000,10998.000000,17212.000000,55354.000000
20586.000000,11019.000000,17241.000000,55318.000000
20596.000000,11058.000000,17228.000000,55350.000000
20547.000000,11026.000000,17231.000000,55322.000000
20567.000000,11021.000000,17222.000000,55319.000000
20593.000000,11038.000000,17197.000000,55326.000000
20506.000000,11008.000000,17202.000000,55289.000000
20549.000000,11005.000000,17183.000000,55307.000000
20502.000000,10979.000000,17154.000000,55289.000000
20470.000000,10966.000000,17137.000000,55279.000000
20468.000000,10977.000000,17121.000000,55264.000000
20452.000000,10970.000000,17106.000000,55225.000000
20437.000000,10972.000000,17122.000000,55238.000000
20462.000000,10964.000000,17097.000000,55226.000000
20440.000000,10939.000000,17079.000000,55248.000000
20437.000000,10937.000000,17055.000000,55242.000000
20416.000000,10909.000000,17032.000000,55217.000000
20388.000000,10888.000000,17053.000000,55241.000000
20368.000000,10910.000000,16982.000000,55189.000000
20380.000000,10900.000000,17000.000000,55166.000000
20335.000000,10844.000000,16988.000000,55211.000000
20277.000000,10833.000000,16957.000000,55153.000000
20271.000000,10834.000000,16956.000000,55179.000000
20262.000000,10821.000000,16923.000000,55159.000000
20250.000000,10797.000000,16880.000000,55145.000000
20249.000000,10828.000000,16904.000000,55136.000000
20234.000000,10784.000000,16875.000000,55127.000000
20196.000000,10785.000000,16840.000000,55095.000000
20174.000000,10779.000000,16828.000000,55084.000000
20168.000000,10774.000000,16807.000000,55094.000000
20158.000000,10734.000000,16807.000000,55079.000000
20156.000000,10734.000000,16775.000000,55054.000000
20129.000000,10702.000000,16749.000000,55075.000000
20114.000000,10711.000000,16728.000000,55043.000000
20107.000000,10695.000000,16707.000000,55032.000000
20065.000000,10705.000000,16680.000000,55023.000000
20065.000000,10701.000000,16674.000000,55008.000000
20058.000000,10682.000000,16678.000000,55002.000000
20065.000000,10705.000000,16635.000000,54997.000000
20045.000000,10669.000000,16593.000000,54991.000000
20028.000000,10645.000000,16597.000000,54975.000000
20031.000000,10628.000000,16572.000000,54943.000000
19984.000000,10648.000000,16563.000000,54930.000000
19957.000000,10584.000000,16545.000000,54928.000000
19959.000000,10586.000000,16507.000000,54940.000000
19919.000000,10601.000000,16504.000000,54923.000000
19920.000000,10556.000000,16508.000000,54901.000000
19925.000000,10539.000000,16475.000000,54916.000000
19945.000000,10552.000000,16471.000000,54911.000000
19903.000000,10562.000000,16436.000000,54885.000000
19894.000000,10538.000000,16442.000000,54897.000000
19881.000000,10537.000000,16415.000000,54878.000000
19862.000000,10549.000000,16417.000000,54880.000000
19860.000000,10531.000000,16394.000000,54838.000000
19866.000000,10489.000000,16378.000000,54882.000000
19818.000000,10467.000000,16329.000000,54849.000000
19785.000000,10438.000000,16324.000000,54827.000000
19765.000000,10435.000000,16271.000000,54806.000000
19698.000000,10420.000000,16283.000000,54803.000000
19768.000000,10394.000000,16264.000000,54808.000000
19719.000000,10403.000000,16225.000000,54778.000000
19691.000000,10385.000000,16201.000000,54736.000000
19672.000000,10372.000000,16202.000000,54747.000000
19649.000000,10380.000000,16161.000000,54730.000000
19611.000000,10328.000000,16151.000000,54725.000000
19624.000000,10336.000000,16161.000000,54713.000000
19576.000000,10323.000000,16146.000000,54729.000000
19578.000000,10313.000000,16110.000000,54701.000000
19577.000000,10295.000000,16118.000000,54669.000000
19517.000000,10256.000000,16063.000000,54691.000000
19533.000000,10241.000000,16065.000000,54653.000000
19502.000000,10211.000000,16054.000000,54659.000000
19492.000000,10214.000000,16019.000000,54627.000000
19463.000000,10210.000000,15985.000000,54652.000000
19423.000000,10154.000000,15972.000000,54588.000000
19425.000000,10181.000000,15905.000000,54587.000000
19428.000000,10150.000000,15896.000000,54557.000000
19399.000000,10144.000000,15919.000000,54576.000000
19372.000000,10128.000000,15840.000000,54542.000000
19349.000000,10103.000000,15877.000000,54549.000000
19338.000000,10092.000000,15863.000000,54531.000000
19357.000000,10113.000000,15844.000000,54515.000000
19357.000000,10086.000000,15825.000000,54512.000000
19342.000000,10088.000000,15790.000000,54510.000000
19330.000000,10085.000000,15811.000000,54517.000000
19299.000000,10078.000000,15814.000000,54499.000000
19312.000000,10073.000000,15769.000000,54502.000000
19305.000000,10091.000000,15760.000000,54490.000000
19288.000000,10041.000000,15766.000000,54482.000000
19300.000000,10032.000000,15729.000000,54487.000000
19254.000000,10022.000000,15722.000000,54480.000000
19222.000000,10038.000000,15716.000000,54493.000000
19199.000000,10011.000000,15706.000000,54451.000000
19185.000000,9988.000000,15681.000000,54447.000000
19164.000000,9969.000000,15641.000000,54408.000000
19124.000000,9949.000000,15669.000000,54403.000000
19108.000000,9926.000000,15595.000000,54385.000000
19077.000000,9934.000000,15570.000000,54377.000000
19017.000000,9883.000000,15545.000000,54381.000000
19029.000000,9879.000000,15502.000000,54343.000000
19009.000000,9866.000000,15502.000000,54345.000000
18986.000000,9822.000000,15437.000000,54313.000000
18964.000000,9812.000000,15433.000000,54299.000000
18944.000000,9810.000000,15380.000000,54293.000000
18934.000000,9784.000000,15396.000000,54287.000000
18909.000000,9784.000000,15382.000000,54267.000000
18864.000000,9776.000000,15320.000000,54272.000000
18849.000000,9743.000000,15332.000000,54266.000000
18849.000000,9752.000000,15334.000000,54220.000000
18831.000000,9745.000000,15300.000000,54226.000000
18805.000000,9737.000000,15290.000000,54234.000000
18785.000000,9747.000000,15297.000000,54225.000000
18845.000000,9724.000000,15259.000000,54216.000000
18840.000000,9698.000000,15325.000000,54239.000000
18851.000000,9748.000000,15325.000000,54251.000000
18851.000000,9738.000000,15329.000000,54242.000000
18887.000000,9760.000000,15355.000000,54283.000000
18910.000000,9761.000000,15355.000000,54267.000000
18914.000000,9797.000000,15366.000000,54302.000000
18922.000000,9789.000000,15444.000000,54334.000000
18979.000000,9806.000000,15429.000000,54310.000000
18985.000000,9845.000000,15450.000000,54318.000000
18985.000000,9847.000000,15473.000000,54341.000000
18967.000000,9861.000000,15490.000000,54377.000000
19004.000000,9870.000000,15508.000000,54374.000000
19066.000000,9858.000000,15571.000000,54418.000000
19046.000000,9891.000000,15580.000000,54422.000000
19067.000000,9918.000000,15621.000000,54436.000000
19107.000000,9926.000000,15639.000000,54472.000000
19149.000000,9965.000000,15691.000000,54495.000000
19148.000000,9993.000000,15754.000000,54519.000000
19227.000000,10005.000000,15763.000000,54536.000000
19251.000000,10036.000000,15806.000000,54557.000000
19310.000000,10081.000000,15846.000000,54565.000000
19307.000000,10083.000000,15905.000000,54613.000000
19380.000000,10125.000000,15978.000000,54652.000000
19457.000000,10193.000000,16037.000000,54678.000000
19521.000000,10203.000000,16100.000000,54744.000000
19562.000000,10265.000000,16207.000000,54766.000000
19590.000000,10353.000000,16276.000000,54835.000000
19676.000000,10374.000000,16371.000000,54903.000000
19811.000000,10468.000000,16483.000000,54939.000000
19891.000000,10522.000000,16598.000000,55026.000000
19975.000000,10595.000000,16684.000000,55042.000000
20022.000000,10690.000000,16742.000000,55108.000000
20115.000000,10709.000000,16816.000000,55116.000000
20197.000000,10763.000000,16884.000000,55194.000000
20258.000000,10809.000000,16966.000000,55209.000000
20308.000000,10843.000000,17040.000000,55241.000000
20384.000000,10910.000000,17056.000000,55280.000000
20432.000000,10951.000000,17130.000000,55312.000000
20506.000000,10997.000000,17185.000000,55323.000000
20532.000000,11003.000000,17177.000000,55334.000000
20540.000000,11035.000000,17206.000000,55331.000000
20552.000000,11032.000000,17199.000000,55338.000000
20574.000000,11027.000000,17179.000000,55339.000000
20527.000000,11007.000000,17224.000000,55359.000000
20508.000000,11047.000000,17214.000000,55337.000000
20514.000000,10983.000000,17193.000000,55333.000000
20482.000000,10989.000000,17180.000000,55334.000000
20484.000000,11008.000000,17184.000000,55313.000000
20464.000000,10996.000000,17122.000000,55293.000000
20428.000000,10944.000000,17100.000000,55288.000000
20418.000000,10926.000000,17111.000000,55263.000000
20399.000000,10950.000000,17104.000000,55286.000000
20395.000000,10927.000000,17050.000000,55258.000000
20357.000000,10922.000000,17039.000000,55240.000000
20365.000000,10938.000000,17073.000000,55230.000000
20348.000000,10926.000000,17060.000000,55262.000000
20341.000000,10896.000000,17005.000000,55236.000000
20309.000000,10876.000000,17018.000000,55241.000000
20301.000000,10873.000000,17006.000000,55234.000000
20335.000000,10892.000000,17002.000000,55229.000000
20293.000000,10832.000000,16987.000000,55235.000000
20247.000000,10835.000000,16970.000000,55188.000000
20229.000000,10842.000000,16953.000000,55192.000000
20231.000000,10821.000000,16926.000000,55175.000000
20191.000000,10794.000000,16919.000000,55151.000000
20164.000000,10808.000000,16887.000000,55132.000000
20150.000000,10784.000000,16843.000000,55144.000000
20124.000000,10768.000000,16856.000000,55114.000000
20113.000000,10737.000000,16836.000000,55133.000000
20084.000000,10763.000000,16816.000000,55119.000000
20075.000000,10738.000000,16805.000000,55080.000000
20048.000000,10746.000000,16785.000000,55096.000000
20046.000000,10710.000000,16750.000000,55063.000000
20076.000000,10717.000000,16749.000000,55055.000000
20045.000000,10691.000000,16733.000000,55029.000000
20023.000000,10724.000000,16712.000000,55041.000000
20023.000000,10707.000000,16726.000000,55078.000000
20009.000000,10702.000000,16684.000000,55043.000000
19974.000000,10667.000000,16678.000000,55038.000000
19987.000000,10661.000000,16659.000000,55016.000000
19965.000000,10658.000000,16669.000000,54992.000000
19951.000000,10645.000000,16626.000000,54970.000000
19934.000000,10617.000000,16624.000000,54989.000000
19871.000000,10600.000000,16563.000000,54948.000000
19830.000000,10590.000000,16541.000000,54945.000000
19847.000000,10581.000000,16511.000000,54936.000000
19817.000000,10544.000000,16536.000000,54929.000000
19800.000000,10551.000000,16459.000000,54880.000000
19770.000000,10524.000000,16475.000000,54895.000000
19786.000000,10494.000000,16444.000000,54870.000000
19709.000000,10490.000000,16422.000000,54851.000000
19713.000000,10475.000000,16425.000000,54838.000000
19702.000000,10462.000000,16404.000000,54857.000000
19660.000000,10446.000000,16355.000000,54868.000000
19653.000000,10418.000000,16343.000000,54802.000000
19589.000000,10385.000000,16288.000000,54794.000000
19587.000000,10410.000000,16291.000000,54808.000000
19583.000000,10369.000000,16267.000000,54773.000000
19576.000000,10361.000000,16271.000000,54742.000000
19582.000000,10351.000000,16230.000000,54743.000000
19538.000000,10330.000000,16200.000000,54729.000000
19479.000000,10296.000000,16166.000000,54701.000000
19478.000000,10298.000000,16145.000000,54700.000000
19446.000000,10286.000000,16117.000000,54673.000000
19408.000000,10243.000000,16087.000000,54676.000000
19420.000000,10244.000000,16105.000000,54673.000000
19398.000000,10205.000000,16084.000000,54662.000000
19400.000000,10206.000000,16045.000000,54660.000000
19394.000000,10216.000000,16039.000000,54683.000000
19385.000000,10184.000000,16028.000000,54639.000000
19384.000000,10168.000000,16001.000000,54659.000000
19381.000000,10180.000000,16024.000000,54646.000000
19330.000000,10153.000000,15965.000000,54611.000000
