660nm,730nm,850nm,940nm
23360.000000,15099.000000,15842.000000,51862.000000
23386.000000,15069.000000,15876.000000,51918.000000
23397.000000,15099.000000,15913.000000,51903.000000
23430.000000,15136.000000,15936.000000,51926.000000
23452.000000,15128.000000,16022.000000,51932.000000
23455.000000,15183.000000,15995.000000,51942.000000
23495.000000,15242.000000,16073.000000,51982.000000
23544.000000,15216.000000,16079.000000,51973.000000
23548.000000,15236.000000,16118.000000,51974.000000
23589.000000,15243.000000,16134.000000,52003.000000
23654.000000,15297.000000,16179.000000,52045.000000
23661.000000,15305.000000,16206.000000,52065.000000
23690.000000,15323.000000,16219.000000,52098.000000
23776.000000,15378.000000,16282.000000,52080.000000
23781.000000,15378.000000,16301.000000,52144.000000
23818.000000,15407.000000,16369.000000,52143.000000
23899.000000,15437.000000,16431.000000,52177.000000
23896.000000,15444.000000,16477.000000,52202.000000
23982.000000,15484.000000,16494.000000,52188.000000
24031.000000,15527.000000,16506.000000,52226.000000
24033.000000,15551.000000,16547.000000,52289.000000
24091.000000,15560.000000,16606.000000,52296.000000
24100.000000,15556.000000,16607.000000,52279.000000
24099.000000,15618.000000,16636.000000,52295.000000
24138.000000,15599.000000,16641.000000,52298.000000
24123.000000,15622.000000,16651.000000,52296.000000
24140.000000,15621.000000,16647.000000,52298.000000
24113.000000,15612.000000,16658.000000,52311.000000
24120.000000,15640.000000,16645.000000,52308.000000
24147.000000,15624.000000,16640.000000,52266.000000
24130.000000,15630.000000,16627.000000,52330.000000
24140.000000,15610.000000,16641.000000,52299.000000
24105.000000,15628.000000,16590.000000,52269.000000
24087.000000,15601.000000,16579.000000,52276.000000
24073.000000,15598.000000,16569.000000,52273.000000
24081.000000,15601.000000,16587.000000,52278.000000
24077.000000,15555.000000,16559.000000,52245.000000
24013.000000,15544.000000,16541.000000,52265.000000
24000.000000,15538.000000,16549.000000,52251.000000
24018.000000,15542.000000,16513.000000,52230.000000
24014.000000,15543.000000,16517.000000,52217.000000
23996.000000,15510.000000,16466.000000,52216.000000
23958.000000,15504.000000,16512.000000,52240.000000
23992.000000,15489.000000,16446.000000,52200.000000
23984.000000,15507.000000,16443.000000,52235.000000
23970.000000,15479.000000,16488.000000,52189.000000
23979.000000,15488.000000,16430.000000,52201.000000
23900.000000,15454.000000,16452.000000,52192.000000
23918.000000,15452.000000,16416.000000,52176.000000
23916.000000,15417.000000,16428.000000,52169.000000
23910.000000,15452.000000,16408.000000,52154.000000
23920.000000,15445.000000,16351.000000,52144.000000
23913.000000,15456.000000,16373.000000,52194.000000
23892.000000,15422.000000,16371.000000,52177.000000
23906.000000,15436.000000,16361.000000,52159.000000
23832.000000,15404.000000,16354.000000,52136.000000
23879.000000,15404.000000,16324.000000,52123.000000
23883.000000,15414.000000,16339.000000,52129.000000
23827.000000,15401.000000,16307.000000,52114.000000
23841.000000,15356.000000,16294.000000,52121.000000
23808.000000,15347.000000,16297.000000,52129.000000
23745.000000,15376.000000,16285.000000,52111.000000
23762.000000,15340.000000,16262.000000,52089.000000
23764.000000,15336.000000,16263.000000,52092.000000
23764.000000,15356.000000,16225.000000,52071.000000
23713.000000,15318.000000,16229.000000,52077.000000
23767.000000,15304.000000,16177.000000,52044.000000
23717.000000,15329.000000,16230.000000,52081.000000
23724.000000,15321.000000,16178.000000,52072.000000
23752.000000,15294.000000,16175.000000,52020.000000
23722.000000,15275.000000,16134.000000,52054.000000
23697.000000,15270.000000,16128.000000,52018.000000
23706.000000,15273.000000,16119.000000,52018.000000
23702.000000,15279.000000,16135.000000,52057.000000
23690.000000,15277.000000,16127.000000,52030.000000
23667.000000,15292.000000,16117.000000,52024.000000
23640.000000,15251.000000,16070.000000,52006.000000
23626.000000,15273.000000,16069.000000,52015.000000
23643.000000,15245.000000,16066.000000,51981.000000
23597.000000,15204.000000,16071.000000,51975.000000
23625.000000,15242.000000,16049.000000,51980.000000
23585.000000,15245.000000,16049.000000,51936.000000
23575.000000,15195.000000,16017.000000,51969.000000
23580.000000,15222.000000,15995.000000,51965.000000
23545.000000,15220.000000,16040.000000,51953.000000
23531.000000,15151.000000,15971.000000,51934.000000
23538.000000,15180.000000,15972.000000,51920.000000
23504.000000,15177.000000,15971.000000,51949.000000
23509.000000,15178.000000,15969.000000,51888.000000
23498.000000,15174.000000,15928.000000,51888.000000
23502.000000,15164.000000,15922.000000,51904.000000
23475.000000,15136.000000,15919.000000,51929.000000
23518.000000,15141.000000,15941.000000,51910.000000
23492.000000,15130.000000,15891.000000,51870.000000
23470.000000,15120.000000,15939.000000,51913.000000
23459.000000,15112.000000,15860.000000,51882.000000
23465.000000,15119.000000,15873.000000,51873.000000
23438.000000,15117.000000,15881.000000,51879.000000
23409.000000,15100.000000,15866.000000,51851.000000
23421.000000,15094.000000,15846.000000,51869.000000
23416.000000,15084.000000,15824.000000,51865.000000
23400.000000,15039.000000,15836.000000,51861.000000
23405.000000,15054.000000,15839.000000,51840.000000
23392.000000,15035.000000,15817.000000,51831.000000
23359.000000,15048.000000,15827.000000,51818.000000
23385.000000,15053.000000,15853.000000,51830.000000
23383.000000,15043.000000,15827.000000,51847.000000
23370.000000,15039.000000,15806.000000,51851.000000
23372.000000,15038.000000,15784.000000,51830.000000
23357.000000,15027.000000,15807.000000,51862.000000
23337.000000,15019.000000,15767.000000,51819.000000
23308.000000,15020.000000,15810.000000,51844.000000
23318.000000,15066.000000,15753.000000,51805.000000
23334.000000,14992.000000,15744.000000,51792.000000
23317.000000,14983.000000,15787.000000,51827.000000
23349.000000,15003.000000,15750.000000,51776.000000
23288.000000,14968.000000,15726.000000,51813.000000
23291.000000,15021.000000,15747.000000,51792.000000
23297.000000,14959.000000,15708.000000,51792.000000
23284.000000,14966.000000,15706.000000,51789.000000
23305.000000,14971.000000,15698.000000,51743.000000
23240.000000,14953.000000,15722.000000,51769.000000
23268.000000,14941.000000,15706.000000,51796.000000
23242.000000,14956.000000,15670.000000,51753.000000
23223.000000,14931.000000,15691.000000,51741.000000
23213.000000,14929.000000,15648.000000,51710.000000
23227.000000,14912.000000,15644.000000,51721.000000
23188.000000,14932.000000,15656.000000,51741.000000
23218.000000,14907.000000,15648.000000,51739.000000
23212.000000,14880.000000,15615.000000,51684.000000
23178.000000,14867.000000,15598.000000,51697.000000
23180.000000,14884.000000,15600.000000,51676.000000
23172.000000,14860.000000,15594.000000,51690.000000
23152.000000,14848.000000,15574.000000,51698.000000
23175.000000,14823.000000,15579.000000,51691.000000
23137.000000,14854.000000,15558.000000,51716.000000
23171.000000,14847.000000,15546.000000,51666.000000
23165.000000,14844.000000,15561.000000,51659.000000
23120.000000,14802.000000,15558.000000,51684.000000
23094.000000,14832.000000,15550.000000,51673.000000
23147.000000,14838.000000,15521.000000,51704.000000
23137.000000,14794.000000,15542.000000,51702.000000
23130.000000,14817.000000,15547.000000,51663.000000
23138.000000,14858.000000,15545.000000,51678.000000
23078.000000,14843.000000,15547.000000,51679.000000
23135.000000,14859.000000,15574.000000,51680.000000
23174.000000,14828.000000,15596.000000,51699.000000
23159.000000,14852.000000,15591.000000,51739.000000
23146.000000,14875.000000,15623.000000,51692.000000
23185.000000,14877.000000,15674.000000,51755.000000
23241.000000,14875.000000,15630.000000,51747.000000
23233.000000,14886.000000,15659.000000,51750.000000
23240.000000,14914.000000,15718.000000,51757.000000
23256.000000,14921.000000,15701.000000,51762.000000
23307.000000,14913.000000,15711.000000,51803.000000
23301.000000,14959.000000,15772.000000,51815.000000
23333.000000,15028.000000,15788.000000,51823.000000
23368.000000,15024.000000,15835.000000,51833.000000
23371.000000,15034.000000,15812.000000,51886.000000
23427.000000,15098.000000,15868.000000,51912.000000
23456.000000,15096.000000,15892.000000,51906.000000
23465.000000,15079.000000,15937.000000,51917.000000
23495.000000,15157.000000,16006.000000,51940.000000
23542.000000,15189.000000,15984.000000,51948.000000
23585.000000,15184.000000,16027.000000,51962.000000
23595.000000,15215.000000,16078.000000,52010.000000
23648.000000,15255.000000,16166.000000,52004.000000
23702.000000,15240.000000,16154.000000,52039.000000
23760.000000,15292.000000,16178.000000,52082.000000
23787.000000,15341.000000,16229.000000,52082.000000
23821.000000,15336.000000,16280.000000,52096.000000
23880.000000,15372.000000,16289.000000,52097.000000
23913.000000,15387.000000,16363.000000,52143.000000
23953.000000,15404.000000,16370.000000,52177.000000
23974.000000,15461.000000,16437.000000,52234.000000
24000.000000,15439.000000,16446.000000,52203.000000
24044.000000,15517.000000,16480.000000,52221.000000
24087.000000,15490.000000,16455.000000,52222.000000
24062.000000,15497.000000,16506.000000,52215.000000
24052.000000,15525.000000,16498.000000,52225.000000
24074.000000,15541.000000,16525.000000,52234.000000
24097.000000,15508.000000,16486.000000,52219.000000
24068.000000,15532.000000,16489.000000,52220.000000
24084.000000,15519.000000,16478.000000,52228.000000
24054.000000,15499.000000,16497.000000,52197.000000
24042.000000,15470.000000,16493.000000,52212.000000
24070.000000,15480.000000,16474.000000,52199.000000
24040.000000,15507.000000,16453.000000,52197.000000
24034.000000,15467.000000,16437.000000,52195.000000
24005.000000,15430.000000,16436.000000,52149.000000
23997.000000,15461.000000,16450.000000,52192.000000
24010.000000,15463.000000,16417.000000,52168.000000
23994.000000,15454.000000,16390.000000,52206.000000
23980.000000,15401.000000,16391.000000,52163.000000
23948.000000,15443.000000,16377.000000,52198.000000
23941.000000,15433.000000,16377.000000,52191.000000
23936.000000,15434.000000,16347.000000,52174.000000
23928.000000,15401.000000,16327.000000,52156.000000
23938.000000,15398.000000,16337.000000,52114.000000
23936.000000,15408.000000,16314.000000,52119.000000
23898.000000,15388.000000,16284.000000,52124.000000
23900.000000,15408.000000,16289.000000,52103.000000
23852.000000,15344.000000,16280.000000,52112.000000
23845.000000,15381.000000,16255.000000,52111.000000
23861.000000,15366.000000,16246.000000,52112.000000
23841.000000,15356.000000,16234.000000,52103.000000
23803.000000,15372.000000,16233.000000,52072.000000
23812.000000,15353.000000,16233.000000,52065.000000
23828.000000,15324.000000,16225.000000,52063.000000
23812.000000,15322.000000,16202.000000,52079.000000
23803.000000,15333.000000,16223.000000,52059.000000
23781.000000,15339.000000,16211.000000,52054.000000
23787.000000,15314.000000,16189.000000,52043.000000
23753.000000,15311.000000,16174.000000,52024.000000
23793.000000,15296.000000,16145.000000,52027.000000
23741.000000,15278.000000,16149.000000,52051.000000
23762.000000,15280.000000,16118.000000,52012.000000
23750.000000,15250.000000,16133.000000,52016.000000
23722.000000,15241.000000,16122.000000,52023.000000
23698.000000,15282.000000,16084.000000,52007.000000
23688.000000,15254.000000,16073.000000,51955.000000
23711.000000,15237.000000,16059.000000,51976.000000
23647.000000,15232.000000,16050.000000,51992.000000
23653.000000,15223.000000,16055.000000,51986.000000
23643.000000,15188.000000,16023.000000,51987.000000
23615.000000,15211.000000,16030.000000,51975.000000
23637.000000,15206.000000,16018.000000,51930.000000
23604.000000,15206.000000,16002.000000,51932.000000
23608.000000,15154.000000,15960.000000,51950.000000
23573.000000,15209.000000,15990.000000,51909.000000
23583.000000,15181.000000,15926.000000,51921.000000
23583.000000,15144.000000,15939.000000,51897.000000
23525.000000,15109.000000,15903.000000,51910.000000
23526.000000,15173.000000,15894.000000,51914.000000
23550.000000,15145.000000,15903.000000,51918.000000
23504.000000,15106.000000,15870.000000,51877.000000
23499.000000,15161.000000,15867.000000,51843.000000
23507.000000,15082.000000,15857.000000,51841.000000
23482.000000,15069.000000,15836.000000,51865.000000
23470.000000,15087.000000,15834.000000,51866.000000
23428.000000,15038.000000,15830.000000,51859.000000
23449.000000,15031.000000,15821.000000,51856.000000
23448.000000,15028.000000,15800.000000,51821.000000
23458.000000,15023.000000,15761.000000,51845.000000
23432.000000,15029.000000,15768.000000,51843.000000
23414.000000,15023.000000,15774.000000,51818.000000
23422.000000,15006.000000,15761.000000,51808.000000
23400.000000,15002.000000,15746.000000,51798.000000
23431.000000,14966.000000,15734.000000,51786.000000
23384.000000,14956.000000,15726.000000,51811.000000
23399.000000,14959.000000,15723.000000,51797.000000
23362.000000,14941.000000,15701.000000,51787.000000
23380.000000,14952.000000,15646.000000,51759.000000
23369.000000,14912.000000,15672.000000,51769.000000
23342.000000,14931.000000,15636.000000,51769.000000
23336.000000,14915.000000,15672.000000,51776.000000
23353.000000,14926.000000,15627.000000,51743.000000
23345.000000,14910.000000,15649.000000,51721.000000
23302.000000,14888.000000,15625.000000,51727.000000
23281.000000,14875.000000,15623.000000,51729.000000
23310.000000,14928.000000,15633.000000,51719.000000
23309.000000,14874.000000,15591.000000,51735.000000
23301.000000,14878.000000,15602.000000,51751.000000
23304.000000,14884.000000,15627.000000,51739.000000
23271.000000,14866.000000,15611.000000,51738.000000
23311.000000,14907.000000,15580.000000,51687.000000
23291.000000,14894.000000,15606.000000,51724.000000
23266.000000,14877.000000,15583.000000,51698.000000
23264.000000,14894.000000,15559.000000,51734.000000
23256.000000,14876.000000,15587.000000,51697.000000
23238.000000,14866.000000,15531.000000,51682.000000
23275.000000,14839.000000,15555.000000,51705.000000
23248.000000,14850.000000,15565.000000,51681.000000
23270.000000,14867.000000,15540.000000,51704.000000
23267.000000,14847.000000,15521.000000,51669.000000
23243.000000,14869.000000,15539.000000,51708.000000
23267.000000,14812.000000,15497.000000,51687.000000
23230.000000,14829.000000,15513.000000,51685.000000
23229.000000,14858.000000,15463.000000,51689.000000
23211.000000,14805.000000,15488.000000,51649.000000
23185.000000,14779.000000,15478.000000,51671.000000
23180.000000,14819.000000,15447.000000,51660.000000
23189.000000,14802.000000,15446.000000,51658.000000
23180.000000,14795.000000,15453.000000,51621.000000
23182.000000,14778.000000,15451.000000,51653.000000
23189.000000,14783.000000,15437.000000,51649.000000
23163.000000,14746.000000,15409.000000,51613.000000
23122.000000,14758.000000,15398.000000,51639.000000
23109.000000,14783.000000,15405.000000,51624.000000
23107.000000,14741.000000,15377.000000,51633.000000
23109.000000,14756.000000,15387.000000,51579.000000
23115.000000,14730.000000,15391.000000,51577.000000
23135.000000,14720.000000,15360.000000,51572.000000
23071.000000,14705.000000,15373.000000,51600.000000
23091.000000,14711.000000,15385.000000,51604.000000
23092.000000,14701.000000,15378.000000,51594.000000
23112.000000,14725.000000,15388.000000,51589.000000
23110.000000,14720.000000,15412.000000,51602.000000
23134.000000,14737.000000,15389.000000,51623.000000
23129.000000,14705.000000,15455.000000,51651.000000
23139.000000,14760.000000,15432.000000,51620.000000
23162.000000,14771.000000,15416.000000,51622.000000
23181.000000,14776.000000,15441.000000,51661.000000
23167.000000,14803.000000,15452.000000,51682.000000
23231.000000,14807.000000,15480.000000,51655.000000
23245.000000,14822.000000,15512.000000,51669.000000
23252.000000,14793.000000,15515.000000,51669.000000
23248.000000,14811.000000,15519.000000,51716.000000
23269.000000,14848.000000,15550.000000,51758.000000
23328.000000,14879.000000,15598.000000,51723.000000
23311.000000,14893.000000,15627.000000,51760.000000
23336.000000,14946.000000,15657.000000,51773.000000
23370.000000,14885.000000,15603.000000,51773.000000
23365.000000,14981.000000,15691.000000,51810.000000
23414.000000,14948.000000,15735.000000,51794.000000
23424.000000,14976.000000,15767.000000,51834.000000
23479.000000,14970.000000,15787.000000,51852.000000
23509.000000,15048.000000,15849.000000,51850.000000
23543.000000,15040.000000,15854.000000,51891.000000
23565.000000,15057.000000,15895.000000,51891.000000
23607.000000,15154.000000,15937.000000,51917.000000
23641.000000,15102.000000,15973.000000,51916.000000
23699.000000,15202.000000,16032.000000,51966.000000
23773.000000,15185.000000,16064.000000,51987.000000
23787.000000,15250.000000,16100.000000,52034.000000
23838.000000,15266.000000,16153.000000,52070.000000
23889.000000,15279.000000,16221.000000,52091.000000
23925.000000,15332.000000,16228.000000,52080.000000
23959.000000,15360.000000,16269.000000,52107.000000
24012.000000,15383.000000,16288.000000,52164.000000
24024.000000,15366.000000,16337.000000,52140.000000
24085.000000,15404.000000,16409.000000,52204.000000
24126.000000,15430.000000,16393.000000,52174.000000
24127.000000,15447.000000,16395.000000,52212.000000
24129.000000,15480.000000,16395.000000,52187.000000
24132.000000,15493.000000,16464.000000,52244.000000
24158.000000,15475.000000,16441.000000,52198.000000
24179.000000,15473.000000,16438.000000,52203.000000
24139.000000,15510.000000,16426.000000,52216.000000
24140.000000,15494.000000,16441.000000,52217.000000
24153.000000,15477.000000,16438.000000,52199.000000
24103.000000,15450.000000,16416.000000,52212.000000
24127.000000,15483.000000,16434.000000,52199.000000
24090.000000,15430.000000,16385.000000,52178.000000
24112.000000,15468.000000,16406.000000,52214.000000
24120.000000,15444.000000,16383.000000,52180.000000
24101.000000,15469.000000,16380.000000,52167.000000
24135.000000,15470.000000,16379.000000,52172.000000
24086.000000,15454.000000,16360.000000,52176.000000
24108.000000,15433.000000,16373.000000,52160.000000
24096.000000,15418.000000,16343.000000,52142.000000
24114.000000,15401.000000,16379.000000,52126.000000
24095.000000,15392.000000,16323.000000,52138.000000
24046.000000,15396.000000,16345.000000,52152.000000
24057.000000,15405.000000,16317.000000,52114.000000
24062.000000,15431.000000,16313.000000,52105.000000
24054.000000,15382.000000,16287.000000,52102.000000
24036.000000,15401.000000,16272.000000,52145.000000
24039.000000,15363.000000,16266.000000,52118.000000
24015.000000,15369.000000,16268.000000,52121.000000
24026.000000,15379.000000,16270.000000,52080.000000
24002.000000,15356.000000,16239.000000,52124.000000
23985.000000,15370.000000,16255.000000,52070.000000
23978.000000,15394.000000,16242.000000,52094.000000
23936.000000,15363.000000,16222.000000,52087.000000
23973.000000,15344.000000,16215.000000,52075.000000
23943.000000,15338.000000,16218.000000,52076.000000
23954.000000,15341.000000,16206.000000,52088.000000
23962.000000,15351.000000,16202.000000,52069.000000
23958.000000,15350.000000,16199.000000,52073.000000
23953.000000,15352.000000,16200.000000,52064.000000
23950.000000,15350.000000,16193.000000,52055.000000
23935.000000,15327.000000,16181.000000,52051.000000
23899.000000,15326.000000,16207.000000,52089.000000
23910.000000,15300.000000,16161.000000,52058.000000
23902.000000,15316.000000,16179.000000,52046.000000
23912.000000,15300.000000,16159.000000,52036.000000
23930.000000,15294.000000,16172.000000,52041.000000
23891.000000,15305.000000,16156.000000,52069.000000
23900.000000,15316.000000,16155.000000,52037.000000
23850.000000,15296.000000,16149.000000,52034.000000
23879.000000,15264.000000,16124.000000,52004.000000
23856.000000,15269.000000,16112.000000,52034.000000
23858.000000,15260.000000,16090.000000,52008.000000
23801.000000,15240.000000,16085.000000,52005.000000
23836.000000,15255.000000,16068.000000,52003.000000
23806.000000,15240.000000,16060.000000,51995.000000
23823.000000,15206.000000,16076.000000,51977.000000
23794.000000,15261.000000,16063.000000,52000.000000
23774.000000,15225.000000,16078.000000,51978.000000
23756.000000,15235.000000,16030.000000,51990.000000
23753.000000,15199.000000,16032.000000,51937.000000
23766.000000,15198.000000,16028.000000,51961.000000
23725.000000,15206.000000,15998.000000,51965.000000
23748.000000,15227.000000,15993.000000,51957.000000
23696.000000,15192.000000,15960.000000,51940.000000
23700.000000,15159.000000,15971.000000,51935.000000
23682.000000,15176.000000,15963.000000,51919.000000
23670.000000,15168.000000,15953.000000,51929.000000
23691.000000,15172.000000,15917.000000,51916.000000
23694.000000,15125.000000,15919.000000,51911.000000
23636.000000,15114.000000,15880.000000,51887.000000
23589.000000,15079.000000,15870.000000,51880.000000
23596.000000,15103.000000,15882.000000,51870.000000
23596.000000,15101.000000,15847.000000,51865.000000
23552.000000,15051.000000,15853.000000,51847.000000
23583.000000,15054.000000,15845.000000,51884.000000
23583.000000,15076.000000,15841.000000,51835.000000
23572.000000,15043.000000,15831.000000,51834.000000
23568.000000,15058.000000,15805.000000,51845.000000
23559.000000,15077.000000,15800.000000,51863.000000
23529.000000,15049.000000,15819.000000,51863.000000
23547.000000,15069.000000,15805.000000,51817.000000
23549.000000,15041.000000,15853.000000,51838.000000
23506.000000,15045.000000,15801.000000,51853.000000
23528.000000,15041.000000,15760.000000,51798.000000
23521.000000,15044.000000,15777.000000,51806.000000
23527.000000,14976.000000,15764.000000,51802.000000
23501.000000,15034.000000,15770.000000,51825.000000
23483.000000,15038.000000,15773.000000,51820.000000
23485.000000,15018.000000,15753.000000,51810.000000
23477.000000,14971.000000,15748.000000,51788.000000
23436.000000,14982.000000,15735.000000,51799.000000
23471.000000,14972.000000,15743.000000,51796.000000
23456.000000,14995.000000,15715.000000,51801.000000
23419.000000,14953.000000,15708.000000,51800.000000
23433.000000,14974.000000,15704.000000,51766.000000
23438.000000,14940.000000,15705.000000,51791.000000
23411.000000,14959.000000,15671.000000,51740.000000
23443.000000,14942.000000,15668.000000,51728.000000
23373.000000,14928.000000,15650.000000,51752.000000
23385.000000,14936.000000,15658.000000,51714.000000
23394.000000,14908.000000,15614.000000,51730.000000
23377.000000,14876.000000,15638.000000,51721.000000
23345.000000,14879.000000,15611.000000,51729.000000
23354.000000,14864.000000,15611.000000,51735.000000
23322.000000,14861.000000,15604.000000,51722.000000
23348.000000,14838.000000,15547.000000,51689.000000
23321.000000,14851.000000,15575.000000,51679.000000
23303.000000,14806.000000,15551.000000,51699.000000
23304.000000,14808.000000,15576.000000,51701.000000
23295.000000,14847.000000,15561.000000,51695.000000
23295.000000,14854.000000,15555.000000,51675.000000
23242.000000,14815.000000,15532.000000,51646.000000
23245.000000,14823.000000,15533.000000,51682.000000
23268.000000,14799.000000,15518.000000,51672.000000
23258.000000,14809.000000,15529.000000,51686.000000
23252.000000,14800.000000,15519.000000,51650.000000
23245.000000,14806.000000,15521.000000,51653.000000
23261.000000,14784.000000,15528.000000,51669.000000
23237.000000,14802.000000,15541.000000,51680.000000
23264.000000,14808.000000,15542.000000,51668.000000
23287.000000,14830.000000,15515.000000,51663.000000
23269.000000,14837.000000,15561.000000,51681.000000
23270.000000,14831.000000,15556.000000,51689.000000
23276.000000,14842.000000,15541.000000,51667.000000
23321.000000,14802.000000,15580.000000,51730.000000
23321.000000,14854.000000,15588.000000,51712.000000
23354.000000,14839.000000,15612.000000,51716.000000
23313.000000,14900.000000,15661.000000,51742.000000
23363.000000,14914.000000,15670.000000,51752.000000
23376.000000,14940.000000,15688.000000,51728.000000
23396.000000,14911.000000,15677.000000,51774.000000
23436.000000,14948.000000,15740.000000,51753.000000
23452.000000,14949.000000,15758.000000,51791.000000
23468.000000,14980.000000,15748.000000,51797.000000
23496.000000,15018.000000,15815.000000,51842.000000
23561.000000,15036.000000,15815.000000,51859.000000
23520.000000,15052.000000,15868.000000,51867.000000
23588.000000,15086.000000,15873.000000,51881.000000
23592.000000,15077.000000,15903.000000,51904.000000
23655.000000,15160.000000,15935.000000,51927.000000
23679.000000,15156.000000,15967.000000,51928.000000
23717.000000,15161.000000,16016.000000,51951.000000
23765.000000,15207.000000,16087.000000,52017.000000
23873.000000,15246.000000,16090.000000,51996.000000
23854.000000,15253.000000,16152.000000,52030.000000
23856.000000,15296.000000,16153.000000,52046.000000
23938.000000,15329.000000,16225.000000,52063.000000
23954.000000,15321.000000,16245.000000,52106.000000
24005.000000,15381.000000,16327.000000,52099.000000
24051.000000,15413.000000,16334.000000,52152.000000
24094.000000,15390.000000,16348.000000,52138.000000
24099.000000,15436.000000,16362.000000,52131.000000
24106.000000,15443.000000,16393.000000,52133.000000
24111.000000,15440.000000,16407.000000,52155.000000
24141.000000,15479.000000,16452.000000,52151.000000
24130.000000,15464.000000,16428.000000,52207.000000
24140.000000,15465.000000,16425.000000,52177.000000
24155.000000,15484.000000,16405.000000,52167.000000
24144.000000,15495.000000,16464.000000,52162.000000
24106.000000,15440.000000,16394.000000,52168.000000
24118.000000,15437.000000,16434.000000,52159.000000
24117.000000,15465.000000,16381.000000,52142.000000
24146.000000,15418.000000,16369.000000,52119.000000
24101.000000,15430.000000,16371.000000,52175.000000
24139.000000,15415.000000,16354.000000,52150.000000
24103.000000,15421.000000,16340.000000,52161.000000
24105.000000,15419.000000,16365.000000,52175.000000
24081.000000,15428.000000,16322.000000,52102.000000
24069.000000,15414.000000,16326.000000,52132.000000
24081.000000,15430.000000,16310.000000,52116.000000
24073.000000,15399.000000,16294.000000,52132.000000
24057.000000,15387.000000,16265.000000,52105.000000
24022.000000,15376.000000,16319.000000,52134.000000
24068.000000,15390.000000,16281.000000,52100.000000
24019.000000,15370.000000,16287.000000,52113.000000
24020.000000,15363.000000,16256.000000,52056.000000
24012.000000,15359.000000,16266.000000,52094.000000
23992.000000,15346.000000,16258.000000,52077.000000
23988.000000,15355.000000,16265.000000,52042.000000
23993.000000,15330.000000,16246.000000,52078.000000
23985.000000,15368.000000,16234.000000,52087.000000
23961.000000,15358.000000,16224.000000,52094.000000
23953.000000,15336.000000,16207.000000,52021.000000
23950.000000,15349.000000,16211.000000,52027.000000
23963.000000,15333.000000,16202.000000,52059.000000
23909.000000,15310.000000,16171.000000,52024.000000
23927.000000,15311.000000,16140.000000,52016.000000
23909.000000,15316.000000,16166.000000,52039.000000
23907.000000,15325.000000,16167.000000,52015.000000
23865.000000,15335.000000,16129.000000,52012.000000
23891.000000,15306.000000,16150.000000,52020.000000
23872.000000,15266.000000,16115.000000,52004.000000
23836.000000,15280.000000,16117.000000,52017.000000
23847.000000,15300.000000,16126.000000,51999.000000
23836.000000,15292.000000,16121.000000,51978.000000
23821.000000,15299.000000,16096.000000,51984.000000
23813.000000,15241.000000,16103.000000,51993.000000
23775.000000,15258.000000,16069.000000,51987.000000
23792.000000,15250.000000,16039.000000,51963.000000
23779.000000,15265.000000,16061.000000,51941.000000
23793.000000,15221.000000,16023.000000,51967.000000
23756.000000,15222.000000,16039.000000,51948.000000
23741.000000,15219.000000,15982.000000,51949.000000
23763.000000,15224.000000,15970.000000,51952.000000
23765.000000,15234.000000,15989.000000,51924.000000
23698.000000,15202.000000,15974.000000,51956.000000
23737.000000,15160.000000,15964.000000,51913.000000
23716.000000,15180.000000,15985.000000,51923.000000
23676.000000,15179.000000,15916.000000,51892.000000
23659.000000,15170.000000,15933.000000,51866.000000
23632.000000,15131.000000,15890.000000,51929.000000
23621.000000,15094.000000,15900.000000,51901.000000
23600.000000,15095.000000,15870.000000,51890.000000
23651.000000,15106.000000,15862.000000,51846.000000
23581.000000,15069.000000,15817.000000,51868.000000
23594.000000,15106.000000,15856.000000,51856.000000
23554.000000,15061.000000,15850.000000,51838.000000
23583.000000,15048.000000,15843.000000,51843.000000
23567.000000,15066.000000,15822.000000,51819.000000
23530.000000,15053.000000,15822.000000,51829.000000
23537.000000,15020.000000,15785.000000,51830.000000
23514.000000,15034.000000,15784.000000,51811.000000
23525.000000,15055.000000,15795.000000,51814.000000
23524.000000,15004.000000,15738.000000,51810.000000
23511.000000,15025.000000,15776.000000,51776.000000
23491.000000,15029.000000,15711.000000,51772.000000
23467.000000,14990.000000,15726.000000,51772.000000
23500.000000,15018.000000,15716.000000,51765.000000
23476.000000,14992.000000,15742.000000,51762.000000
23481.000000,14972.000000,15710.000000,51774.000000
23448.000000,14987.000000,15722.000000,51770.000000
23460.000000,14992.000000,15686.000000,51740.000000
23443.000000,14991.000000,15692.000000,51760.000000
23422.000000,14954.000000,15676.000000,51761.000000
23408.000000,14936.000000,15662.000000,51759.000000
23430.000000,14911.000000,15652.000000,51749.000000
23415.000000,14946.000000,15655.000000,51735.000000
23404.000000,14930.000000,15661.000000,51716.000000
23386.000000,14908.000000,15645.000000,51721.000000
23380.000000,14897.000000,15621.000000,51707.000000
23346.000000,14885.000000,15603.000000,51696.000000
23348.000000,14894.000000,15621.000000,51686.000000
23356.000000,14897.000000,15587.000000,51687.000000
23333.000000,14838.000000,15567.000000,51696.000000
23352.000000,14870.000000,15572.000000,51685.000000
23373.000000,14857.000000,15572.000000,51700.000000
23343.000000,14862.000000,15573.000000,51702.000000
23341.000000,14902.000000,15566.000000,51695.000000
23333.000000,14846.000000,15552.000000,51680.000000
23326.000000,14861.000000,15555.000000,51685.000000
23371.000000,14866.000000,15544.000000,51672.000000
23302.000000,14842.000000,15537.000000,51699.000000
23332.000000,14867.000000,15535.000000,51649.000000
23301.000000,14845.000000,15557.000000,51659.000000
23280.000000,14848.000000,15496.000000,51699.000000
23268.000000,14796.000000,15494.000000,51635.000000
23254.000000,14805.000000,15485.000000,51657.000000
23278.000000,14793.000000,15470.000000,51622.000000
23210.000000,14794.000000,15447.000000,51642.000000
23228.000000,14760.000000,15449.000000,51581.000000
23186.000000,14753.000000,15424.000000,51602.000000
23178.000000,14723.000000,15422.000000,51624.000000
23213.000000,14734.000000,15406.000000,51599.000000
23164.000000,14746.000000,15415.000000,51573.000000
23135.000000,14711.000000,15383.000000,51584.000000
23134.000000,14675.000000,15382.000000,51596.000000
23146.000000,14725.000000,15367.000000,51577.000000
23127.000000,14710.000000,15368.000000,51568.000000
23140.000000,14680.000000,15365.000000,51568.000000
23126.000000,14705.000000,15370.000000,51580.000000
23167.000000,14694.000000,15378.000000,51577.000000
23127.000000,14685.000000,15371.000000,51592.000000
23160.000000,14707.000000,15360.000000,51558.000000
23148.000000,14714.000000,15390.000000,51599.000000
23157.000000,14685.000000,15412.000000,51612.000000
23158.000000,14720.000000,15428.000000,51587.000000
23155.000000,14695.000000,15416.000000,51602.000000
23163.000000,14728.000000,15449.000000,51623.000000
23190.000000,14731.000000,15443.000000,51603.000000
23220.000000,14727.000000,15452.000000,51631.000000
23223.000000,14759.000000,15477.000000,51629.000000
23226.000000,14764.000000,15437.000000,51651.000000
23225.000000,14787.000000,15484.000000,51662.000000
23298.000000,14773.000000,15558.000000,51701.000000
23271.000000,14825.000000,15566.000000,51683.000000
23308.000000,14816.000000,15602.000000,51700.000000
23321.000000,14879.000000,15622.000000,51688.000000
23349.000000,14873.000000,15644.000000,51754.000000
23370.000000,14854.000000,15637.000000,51716.000000
23367.000000,14888.000000,15730.000000,51744.000000
23450.000000,14924.000000,15679.000000,51806.000000
23473.000000,14958.000000,15745.000000,51825.000000
23476.000000,14967.000000,15801.000000,51836.000000
23493.000000,15000.000000,15838.000000,51836.000000
23560.000000,15042.000000,15865.000000,51864.000000
23582.000000,15055.000000,15912.000000,51891.000000
23627.000000,15103.000000,15913.000000,51903.000000
23674.000000,15127.000000,15956.000000,51942.000000
23706.000000,15183.000000,16006.000000,51947.000000
23744.000000,15205.000000,16064.000000,51966.000000
23760.000000,15240.000000,16076.000000,51973.000000
23831.000000,15247.000000,16131.000000,52012.000000
23880.000000,15296.000000,16145.000000,52005.000000
23894.000000,15333.000000,16148.000000,52035.000000
23890.000000,15300.000000,16193.000000,52057.000000
23941.000000,15363.000000,16237.000000,52112.000000
23988.000000,15358.000000,16240.000000,52078.000000
23973.000000,15368.000000,16261.000000,52072.000000
23983.000000,15404.000000,16256.000000,52100.000000
23996.000000,15349.000000,16284.000000,52079.000000
24024.000000,15400.000000,16279.000000,52082.000000
23982.000000,15359.000000,16269.000000,52092.000000
23985.000000,15381.000000,16250.000000,52078.000000
23980.000000,15356.000000,16252.000000,52066.000000
23994.000000,15342.000000,16244.000000,52071.000000
23986.000000,15344.000000,16219.000000,52078.000000
23959.000000,15349.000000,16194.000000,52073.000000
23976.000000,15332.000000,16216.000000,52047.000000
23934.000000,15339.000000,16203.000000,52063.000000
23882.000000,15315.000000,16175.000000,52042.000000
23871.000000,15340.000000,16145.000000,51998.000000
23916.000000,15308.000000,16156.000000,52004.000000
23844.000000,15304.000000,16127.000000,52008.000000
23868.000000,15297.000000,16139.000000,51991.000000
23842.000000,15311.000000,16136.000000,51993.000000
23851.000000,15265.000000,16107.000000,51961.000000
23823.000000,15303.000000,16082.000000,51969.000000
23806.000000,15270.000000,16090.000000,51959.000000
23779.000000,15280.000000,16067.000000,51948.000000
23794.000000,15245.000000,16051.000000,51965.000000
23781.000000,15241.000000,16052.000000,51951.000000
23763.000000,15244.000000,16034.000000,51943.000000
23778.000000,15220.000000,16045.000000,51941.000000
23753.000000,15240.000000,16056.000000,51954.000000
23738.000000,15225.000000,16005.000000,51927.000000
23734.000000,15228.000000,15988.000000,51903.000000
23695.000000,15199.000000,15990.000000,51933.000000
23695.000000,15213.000000,15985.000000,51900.000000
23717.000000,15180.000000,15953.000000,51909.000000
23676.000000,15190.000000,15944.000000,51895.000000
23680.000000,15148.000000,15937.000000,51891.000000
23654.000000,15125.000000,15899.000000,51864.000000
23637.000000,15130.000000,15876.000000,51861.000000
23588.000000,15134.000000,15895.000000,51875.000000
23616.000000,15146.000000,15840.000000,51861.000000
23600.000000,15099.000000,15843.000000,51822.000000
23585.000000,15083.000000,15842.000000,51841.000000
23570.000000,15119.000000,15818.000000,51826.000000
23551.000000,15051.000000,15823.000000,51807.000000
23569.000000,15057.000000,15792.000000,51804.000000
23530.000000,15048.000000,15818.000000,51824.000000
23527.000000,15037.000000,15786.000000,51821.000000
23533.000000,15077.000000,15772.000000,51774.000000
23512.000000,15035.000000,15784.000000,51812.000000
23490.000000,15024.000000,15780.000000,51816.000000
23505.000000,15028.000000,15756.000000,51766.000000
23484.000000,15048.000000,15781.000000,51796.000000
23497.000000,15038.000000,15759.000000,51749.000000
23481.000000,14993.000000,15712.000000,51771.000000
23442.000000,14969.000000,15733.000000,51773.000000
23421.000000,14957.000000,15674.000000,51731.000000
23408.000000,14941.000000,15653.000000,51709.000000
23353.000000,14906.000000,15661.000000,51704.000000
23385.000000,14903.000000,15621.000000,51698.000000
23361.000000,14904.000000,15613.000000,51717.000000
23332.000000,14899.000000,15596.000000,51700.000000
23356.000000,14880.000000,15575.000000,51690.000000
23328.000000,14869.000000,15557.000000,51666.000000
23345.000000,14820.000000,15571.000000,51697.000000
23326.000000,14840.000000,15566.000000,51669.000000
23296.000000,14883.000000,15555.000000,51689.000000
23288.000000,14842.000000,15540.000000,51681.000000
23297.000000,14832.000000,15528.000000,51646.000000
23294.000000,14812.000000,15492.000000,51659.000000
23265.000000,14813.000000,15504.000000,51655.000000
23251.000000,14835.000000,15504.000000,51628.000000
23257.000000,14805.000000,15496.000000,51639.000000
23247.000000,14797.000000,15466.000000,51607.000000
23247.000000,14784.000000,15452.000000,51629.000000
23244.000000,14761.000000,15481.000000,51612.000000
23208.000000,14738.000000,15438.000000,51622.000000
23193.000000,14741.000000,15411.000000,51630.000000
23234.000000,14759.000000,15404.000000,51585.000000
23142.000000,14736.000000,15408.000000,51593.000000
23154.000000,14775.000000,15388.000000,51585.000000
23154.000000,14720.000000,15342.000000,51595.000000
23133.000000,14700.000000,15350.000000,51575.000000
23119.000000,14739.000000,15342.000000,51558.000000
23106.000000,14698.000000,15346.000000,51572.000000
23118.000000,14723.000000,15323.000000,51540.000000
23088.000000,14706.000000,15331.000000,51540.000000
23091.000000,14677.000000,15360.000000,51544.000000
23101.000000,14703.000000,15375.000000,51546.000000
23084.000000,14648.000000,15296.000000,51511.000000
23099.000000,14676.000000,15310.000000,51547.000000
23103.000000,14680.000000,15309.000000,51524.000000
23054.000000,14641.000000,15295.000000,51548.000000
23079.000000,14689.000000,15305.000000,51514.000000
23062.000000,14704.000000,15293.000000,51544.000000
23060.000000,14683.000000,15274.000000,51526.000000
23052.000000,14666.000000,15262.000000,51510.000000
23031.000000,14678.000000,15291.000000,51490.000000
23017.000000,14676.000000,15256.000000,51535.000000
22999.000000,14621.000000,15250.000000,51483.000000
22993.000000,14619.000000,15260.000000,51481.000000
22984.000000,14609.000000,15228.000000,51476.000000
22981.000000,14592.000000,15227.000000,51499.000000
22968.000000,14611.000000,15174.000000,51450.000000
22921.000000,14583.000000,15165.000000,51451.000000
22927.000000,14579.000000,15145.000000,51484.000000
22885.000000,14583.000000,15168.000000,51444.000000
22872.000000,14545.000000,15106.000000,51415.000000
22878.000000,14534.000000,15105.000000,51412.000000
22878.000000,14552.000000,15102.000000,51404.000000
22847.000000,14535.000000,15075.000000,51440.000000
22823.000000,14505.000000,15048.000000,51414.000000
22817.000000,14538.000000,15093.000000,51372.000000
22849.000000,14538.000000,15042.000000,51406.000000
22792.000000,14525.000000,15046.000000,51395.000000
22796.000000,14519.000000,15026.000000,51401.000000
22809.000000,14524.000000,15050.000000,51434.000000
22822.000000,14488.000000,15059.000000,51373.000000
22773.000000,14511.000000,15006.000000,51377.000000
22783.000000,14487.000000,15029.000000,51365.000000
22795.000000,14524.000000,15063.000000,51363.000000
22796.000000,14498.000000,15059.000000,51400.000000
22839.000000,14519.000000,15050.000000,51410.000000
22839.000000,14514.000000,15066.000000,51412.000000
22827.000000,14505.000000,15088.000000,51402.000000
22833.000000,14513.000000,15058.000000,51420.000000
22853.000000,14568.000000,15089.000000,51422.000000
22883.000000,14549.000000,15101.000000,51436.000000
22882.000000,14573.000000,15126.000000,51434.000000
22875.000000,14572.000000,15141.000000,51434.000000
22891.000000,14581.000000,15177.000000,51501.000000
22946.000000,14604.000000,15223.000000,51460.000000
22968.000000,14619.000000,15247.000000,51484.000000
22979.000000,14593.000000,15278.000000,51516.000000
23003.000000,14637.000000,15303.000000,51519.000000
23017.000000,14656.000000,15327.000000,51562.000000
23065.000000,14687.000000,15348.000000,51533.000000
23070.000000,14729.000000,15417.000000,51587.000000
23135.000000,14722.000000,15397.000000,51577.000000
23165.000000,14736.000000,15429.000000,51604.000000
23169.000000,14787.000000,15461.000000,51617.000000
23208.000000,14786.000000,15532.000000,51643.000000
23261.000000,14810.000000,15534.000000,51666.000000
23290.000000,14831.000000,15613.000000,51669.000000
23336.000000,14850.000000,15621.000000,51732.000000
23374.000000,14920.000000,15657.000000,51749.000000
23416.000000,14908.000000,15679.000000,51754.000000
23451.000000,14998.000000,15710.000000,51799.000000
23497.000000,15020.000000,15766.000000,51800.000000
23499.000000,15022.000000,15776.000000,51846.000000
23522.000000,15076.000000,15816.000000,51828.000000
23579.000000,15060.000000,15856.000000,51863.000000
23589.000000,15130.000000,15841.000000,51826.000000
23583.000000,15130.000000,15837.000000,51887.000000
23586.000000,15138.000000,15874.000000,51838.000000
23623.000000,15165.000000,15848.000000,51874.000000
23607.000000,15133.000000,15874.000000,51859.000000
23588.000000,15129.000000,15887.000000,51854.000000
23607.000000,15136.000000,15851.000000,51848.000000
23580.000000,15122.000000,15853.000000,51815.000000
23578.000000,15118.000000,15846.000000,51821.000000
23545.000000,15074.000000,15849.000000,51820.000000
23571.000000,15119.000000,15815.000000,51861.000000
23530.000000,15066.000000,15809.000000,51814.000000
23539.000000,15057.000000,15797.000000,51833.000000
23504.000000,15071.000000,15806.000000,51805.000000
23512.000000,15055.000000,15759.000000,51818.000000
23514.000000,15076.000000,15759.000000,51802.000000
23505.000000,14997.000000,15793.000000,51809.000000
23509.000000,15018.000000,15750.000000,51797.000000
23504.000000,15034.000000,15735.000000,51747.000000
23478.000000,15067.000000,15740.000000,51812.000000
23511.000000,14993.000000,15719.000000,51763.000000
23456.000000,15012.000000,15738.000000,51778.000000
23494.000000,14970.000000,15699.000000,51762.000000
23455.000000,14949.000000,15716.000000,51768.000000
23475.000000,14994.000000,15686.000000,51730.000000
23433.000000,14981.000000,15701.000000,51764.000000
23416.000000,14982.000000,15684.000000,51766.000000
23397.000000,14967.000000,15705.000000,51752.000000
23433.000000,14962.000000,15660.000000,51754.000000
23392.000000,14966.000000,15651.000000,51759.000000
23434.000000,14953.000000,15651.000000,51756.000000
23366.000000,14918.000000,15704.000000,51742.000000
23402.000000,14918.000000,15647.000000,51714.000000
23376.000000,14899.000000,15626.000000,51735.000000
23340.000000,14896.000000,15684.000000,51695.000000
23350.000000,14936.000000,15614.000000,51711.000000
23369.000000,14908.000000,15590.000000,51691.000000
23336.000000,14925.000000,15584.000000,51689.000000
23315.000000,14890.000000,15557.000000,51702.000000
23313.000000,14908.000000,15557.000000,51665.000000
23287.000000,14907.000000,15540.000000,51695.000000
23295.000000,14838.000000,15532.000000,51670.000000
23268.000000,14879.000000,15525.000000,51685.000000
23304.000000,14874.000000,15508.000000,51643.000000
23294.000000,14838.000000,15523.000000,51657.000000
23254.000000,14845.000000,15514.000000,51669.000000
23250.000000,14835.000000,15531.000000,51645.000000
23262.000000,14838.000000,15494.000000,51657.000000
23244.000000,14804.000000,15523.000000,51620.000000
23250.000000,14820.000000,15464.000000,51635.000000
23221.000000,14840.000000,15476.000000,51668.000000
23216.000000,14832.000000,15485.000000,51630.000000
23228.000000,14804.000000,15465.000000,51616.000000
23215.000000,14810.000000,15467.000000,51637.000000
23188.000000,14776.000000,15440.000000,51607.000000
23195.000000,14799.000000,15451.000000,51646.000000
23203.000000,14754.000000,15430.000000,51592.000000
23166.000000,14770.000000,15423.000000,51601.000000
23164.000000,14780.000000,15420.000000,51598.000000
23177.000000,14725.000000,15415.000000,51595.000000
23123.000000,14732.000000,15392.000000,51613.000000
23139.000000,14719.000000,15403.000000,51589.000000
23126.000000,14747.000000,15378.000000,51599.000000
23065.000000,14712.000000,15335.000000,51543.000000
23094.000000,14729.000000,15351.000000,51552.000000
23058.000000,14737.000000,15332.000000,51545.000000
23070.000000,14686.000000,15306.000000,51536.000000
23050.000000,14691.000000,15314.000000,51534.000000
23038.000000,14698.000000,15337.000000,51519.000000
23046.000000,14665.000000,15290.000000,51505.000000
22994.000000,14695.000000,15296.000000,51532.000000
22995.000000,14644.000000,15241.000000,51515.000000
23016.000000,14674.000000,15318.000000,51519.000000
22975.000000,14659.000000,15294.000000,51484.000000
22962.000000,14647.000000,15279.000000,51494.000000
23015.000000,14635.000000,15302.000000,51507.000000
22966.000000,14627.000000,15265.000000,51499.000000
22970.000000,14616.000000,15214.000000,51512.000000
22934.000000,14629.000000,15244.000000,51517.000000
22927.000000,14613.000000,15192.000000,51482.000000
22902.000000,14625.000000,15211.000000,51470.000000
22923.000000,14606.000000,15186.000000,51484.000000
22880.000000,14608.000000,15199.000000,51468.000000
22878.000000,14580.000000,15208.000000,51455.000000
22822.000000,14560.000000,15153.000000,51451.000000
22861.000000,14553.000000,15180.000000,51417.000000
22840.000000,14573.000000,15157.000000,51440.000000
22837.000000,14542.000000,15165.000000,51415.000000
22800.000000,14541.000000,15121.000000,51392.000000
22766.000000,14533.000000,15089.000000,51388.000000
22793.000000,14513.000000,15093.000000,51401.000000
22768.000000,14508.000000,15091.000000,51382.000000
22781.000000,14498.000000,15071.000000,51393.000000
22759.000000,14506.000000,15071.000000,51391.000000
22759.000000,14488.000000,15026.000000,51392.000000
22743.000000,14503.000000,15038.000000,51360.000000
22723.000000,14487.000000,15000.000000,51358.000000
22716.000000,14470.000000,15003.000000,51346.000000
22742.000000,14462.000000,15004.000000,51354.000000
22720.000000,14474.000000,15012.000000,51356.000000
22707.000000,14451.000000,15002.000000,51343.000000
22655.000000,14430.000000,14968.000000,51325.000000
22624.000000,14411.000000,14952.000000,51326.000000
22624.000000,14423.000000,14948.000000,51303.000000
22589.000000,14371.000000,14855.000000,51276.000000
22535.000000,14341.000000,14862.000000,51301.000000
22552.000000,14353.000000,14810.000000,51276.000000
22535.000000,14336.000000,14806.000000,51251.000000
22513.000000,14342.000000,14818.000000,51253.000000
22493.000000,14307.000000,14779.000000,51257.000000
22499.000000,14305.000000,14816.000000,51223.000000
22478.000000,14276.000000,14783.000000,51213.000000
22499.000000,14283.000000,14816.000000,51225.000000
22507.000000,14281.000000,14763.000000,51242.000000
22524.000000,14305.000000,14811.000000,51263.000000
22519.000000,14297.000000,14815.000000,51279.000000
22537.000000,14353.000000,14790.000000,51275.000000
22561.000000,14308.000000,14854.000000,51294.000000
22549.000000,14373.000000,14883.000000,51286.000000
22554.000000,14357.000000,14907.000000,51307.000000
22585.000000,14365.000000,14873.000000,51293.000000
22596.000000,14390.000000,14903.000000,51352.000000
22654.000000,14392.000000,14868.000000,51336.000000
22624.000000,14399.000000,14930.000000,51329.000000
22641.000000,14413.000000,14959.000000,51356.000000
22658.000000,14422.000000,14980.000000,51359.000000
22658.000000,14441.000000,15070.000000,51373.000000
22692.000000,14478.000000,15051.000000,51395.000000
22758.000000,14461.000000,15073.000000,51410.000000
22796.000000,14523.000000,15072.000000,51418.000000
22794.000000,14491.000000,15113.000000,51445.000000
22812.000000,14543.000000,15160.000000,51472.000000
22878.000000,14554.000000,15233.000000,51480.000000
22889.000000,14579.000000,15233.000000,51508.000000
22895.000000,14627.000000,15293.000000,51524.000000
22955.000000,14641.000000,15298.000000,51543.000000
23011.000000,14637.000000,15377.000000,51600.000000
23059.000000,14699.000000,15413.000000,51586.000000
23096.000000,14747.000000,15453.000000,51609.000000
23183.000000,14784.000000,15502.000000,51647.000000
23219.000000,14818.000000,15540.000000,51676.000000
23236.000000,14836.000000,15624.000000,51703.000000
23283.000000,14891.000000,15628.000000,51728.000000
23325.000000,14880.000000,15681.000000,51737.000000
23370.000000,14944.000000,15673.000000,51755.000000
23325.000000,14920.000000,15737.000000,51764.000000
23396.000000,15003.000000,15767.000000,51829.000000
23393.000000,15009.000000,15757.000000,51799.000000
23452.000000,14993.000000,15789.000000,51842.000000
23451.000000,15020.000000,15782.000000,51816.000000
23444.000000,15049.000000,15794.000000,51832.000000
23470.000000,15056.000000,15811.000000,51852.000000
23469.000000,15081.000000,15801.000000,51808.000000
23437.000000,15044.000000,15783.000000,51848.000000
23466.000000,15080.000000,15795.000000,51830.000000
23452.000000,15039.000000,15800.000000,51834.000000
23438.000000,15026.000000,15800.000000,51808.000000
23437.000000,15024.000000,15790.000000,51774.000000
23392.000000,14983.000000,15793.000000,51789.000000
23423.000000,14978.000000,15781.000000,51787.000000
23383.000000,15018.000000,15784.000000,51764.000000
23377.000000,15018.000000,15703.000000,51792.000000
23351.000000,14965.000000,15741.000000,51794.000000
23360.000000,14996.000000,15722.000000,51791.000000
23369.000000,14962.000000,15752.000000,51787.000000
23334.000000,14979.000000,15681.000000,51762.000000
23352.000000,14918.000000,15685.000000,51767.000000
23292.000000,14932.000000,15696.000000,51751.000000
23310.000000,14920.000000,15694.000000,51743.000000
23309.000000,14888.000000,15697.000000,51724.000000
23289.000000,14918.000000,15666.000000,51730.000000
23279.000000,14897.000000,15651.000000,51738.000000
23280.000000,14885.000000,15674.000000,51731.000000
23268.000000,14923.000000,15649.000000,51709.000000
23254.000000,14892.000000,15658.000000,51731.000000
23239.000000,14893.000000,15618.000000,51696.000000
23243.000000,14883.000000,15651.000000,51724.000000
23242.000000,14873.000000,15643.000000,51709.000000
23206.000000,14866.000000,15602.000000,51708.000000
23214.000000,14873.000000,15573.000000,51708.000000
23180.000000,14836.000000,15567.000000,51687.000000
23196.000000,14861.000000,15558.000000,51688.000000
23180.000000,14828.000000,15519.000000,51652.000000
23120.000000,14834.000000,15555.000000,51678.000000
23154.000000,14797.000000,15509.000000,51660.000000
23142.000000,14777.000000,15501.000000,51630.000000
23115.000000,14790.000000,15538.000000,51639.000000
23098.000000,14795.000000,15495.000000,51653.000000
23112.000000,14758.000000,15480.000000,51640.000000
23084.000000,14775.000000,15490.000000,51615.000000
23070.000000,14762.000000,15444.000000,51618.000000
23067.000000,14759.000000,15481.000000,51610.000000
23089.000000,14726.000000,15409.000000,51625.000000
23063.000000,14758.000000,15443.000000,51600.000000
23033.000000,14724.000000,15447.000000,51583.000000
23022.000000,14714.000000,15389.000000,51584.000000
23010.000000,14708.000000,15426.000000,51569.000000
23002.000000,14694.000000,15369.000000,51599.000000
22955.000000,14684.000000,15426.000000,51566.000000
22996.000000,14674.000000,15343.000000,51577.000000
23010.000000,14685.000000,15356.000000,51567.000000
22928.000000,14658.000000,15337.000000,51580.000000
22952.000000,14659.000000,15343.000000,51591.000000
22943.000000,14631.000000,15347.000000,51558.000000
22927.000000,14662.000000,15334.000000,51537.000000
22907.000000,14653.000000,15325.000000,51536.000000
22905.000000,14584.000000,15325.000000,51489.000000
22877.000000,14613.000000,15296.000000,51530.000000
22888.000000,14631.000000,15282.000000,51481.000000
22871.000000,14580.000000,15267.000000,51471.000000
22858.000000,14587.000000,15266.000000,51469.000000
22842.000000,14601.000000,15261.000000,51479.000000
22789.000000,14605.000000,15227.000000,51471.000000
22832.000000,14586.000000,15223.000000,51492.000000
22830.000000,14587.000000,15179.000000,51525.000000
22795.000000,14543.000000,15213.000000,51466.000000
22806.000000,14588.000000,15188.000000,51471.000000
22787.000000,14565.000000,15213.000000,51482.000000
22800.000000,14567.000000,15171.000000,51472.000000
22789.000000,14564.000000,15172.000000,51460.000000
22769.000000,14531.000000,15193.000000,51494.000000
22729.000000,14529.000000,15163.000000,51459.000000
22758.000000,14552.000000,15141.000000,51474.000000
22744.000000,14546.000000,15179.000000,51439.000000
22751.000000,14518.000000,15162.000000,51450.000000
22723.000000,14494.000000,15143.000000,51439.000000
22711.000000,14547.000000,15159.000000,51439.000000
22693.000000,14508.000000,15121.000000,51424.000000
22695.000000,14489.000000,15110.000000,51412.000000
22697.000000,14498.000000,15122.000000,51443.000000
22697.000000,14504.000000,15114.000000,51427.000000
22684.000000,14501.000000,15102.000000,51405.000000
22663.000000,14503.000000,15105.000000,51417.000000
22668.000000,14469.000000,15116.000000,51409.000000
22647.000000,14494.000000,15098.000000,51423.000000
22659.000000,14470.000000,15102.000000,51421.000000
22670.000000,14466.000000,15092.000000,51380.000000
22636.000000,14438.000000,15087.000000,51391.000000
22637.000000,14448.000000,15056.000000,51368.000000
22653.000000,14427.000000,15073.000000,51390.000000
22599.000000,14459.000000,15037.000000,51390.000000
22584.000000,14448.000000,15008.000000,51356.000000
22594.000000,14419.000000,15022.000000,51358.000000
22565.000000,14393.000000,15006.000000,51370.000000
22562.000000,14393.000000,14987.000000,51344.000000
22544.000000,14396.000000,14970.000000,51322.000000
22525.000000,14385.000000,14959.000000,51330.000000
22496.000000,14363.000000,14963.000000,51328.000000
22493.000000,14351.000000,14953.000000,51297.000000
22485.000000,14328.000000,14920.000000,51301.000000
22433.000000,14273.000000,14869.000000,51273.000000
22454.000000,14279.000000,14873.000000,51309.000000
22419.000000,14299.000000,14877.000000,51292.000000
22407.000000,14259.000000,14850.000000,51219.000000
22402.000000,14258.000000,14859.000000,51269.000000
22381.000000,14262.000000,14821.000000,51238.000000
22385.000000,14231.000000,14799.000000,51256.000000
22336.000000,14231.000000,14814.000000,51215.000000
22372.000000,14258.000000,14769.000000,51234.000000
22369.000000,14240.000000,14802.000000,51239.000000
22328.000000,14265.000000,14797.000000,51239.000000
22341.000000,14276.000000,14787.000000,51232.000000
22359.000000,14287.000000,14814.000000,51252.000000
22392.000000,14266.000000,14831.000000,51259.000000
22380.000000,14220.000000,14824.000000,51264.000000
22373.000000,14280.000000,14823.000000,51264.000000
22397.000000,14280.000000,14848.000000,51277.000000
22383.000000,14266.000000,14819.000000,51258.000000
22377.000000,14286.000000,14890.000000,51293.000000
22390.000000,14286.000000,14872.000000,51278.000000
22412.000000,14300.000000,14862.000000,51304.000000
22422.000000,14316.000000,14916.000000,51281.000000
22439.000000,14331.000000,14919.000000,51322.000000
22460.000000,14325.000000,14931.000000,51308.000000
22470.000000,14337.000000,14908.000000,51363.000000
22455.000000,14373.000000,14968.000000,51331.000000
22513.000000,14384.000000,15003.000000,51352.000000
22565.000000,14387.000000,14997.000000,51365.000000
22540.000000,14437.000000,15041.000000,51403.000000
22565.000000,14420.000000,15057.000000,51380.000000
22603.000000,14433.000000,15123.000000,51424.000000
22630.000000,14477.000000,15152.000000,51454.000000
22619.000000,14550.000000,15179.000000,51484.000000
22685.000000,14502.000000,15237.000000,51487.000000
22690.000000,14565.000000,15228.000000,51534.000000
22758.000000,14562.000000,15308.000000,51516.000000
22748.000000,14593.000000,15306.000000,51551.000000
22816.000000,14601.000000,15381.000000,51527.000000
23012.000000,14687.000000,15452.000000,51629.000000
22977.000000,14713.000000,15470.000000,51650.000000
22998.000000,14746.000000,15540.000000,51666.000000
23019.000000,14752.000000,15546.000000,51678.000000
23063.000000,14824.000000,15584.000000,51675.000000
23094.000000,14837.000000,15630.000000,51702.000000
23073.000000,14835.000000,15615.000000,51681.000000
23150.000000,14821.000000,15624.000000,51720.000000
23126.000000,14846.000000,15642.000000,51751.000000
23148.000000,14874.000000,15674.000000,51735.000000
23114.000000,14863.000000,15631.000000,51738.000000
23150.000000,14881.000000,15637.000000,51704.000000
23150.000000,14868.000000,15628.000000,51715.000000
23161.000000,14825.000000,15606.000000,51699.000000
23130.000000,14862.000000,15597.000000,51677.000000
23096.000000,14838.000000,15562.000000,51681.000000
23103.000000,14807.000000,15582.000000,51683.000000
23059.000000,14819.000000,15554.000000,51696.000000
23054.000000,14805.000000,15548.000000,51675.000000
23052.000000,14820.000000,15531.000000,51655.000000
23049.000000,14778.000000,15538.000000,51678.000000
23064.000000,14819.000000,15481.000000,51667.000000
23042.000000,14776.000000,15504.000000,51650.000000
23030.000000,14746.000000,15497.000000,51620.000000
23041.000000,14764.000000,15491.000000,51632.000000
23043.000000,14736.000000,15471.000000,51670.000000
22978.000000,14744.000000,15458.000000,51632.000000
22955.000000,14715.000000,15439.000000,51596.000000
22977.000000,14709.000000,15440.000000,51643.000000
22940.000000,14725.000000,15410.000000,51592.000000
22915.000000,14705.000000,15424.000000,51586.000000
22896.000000,14726.000000,15400.000000,51567.000000
22902.000000,14698.000000,15422.000000,51579.000000
22914.000000,14663.000000,15423.000000,51609.000000
22885.000000,14660.000000,15396.000000,51560.000000
22915.000000,14655.000000,15402.000000,51633.000000
22917.000000,14690.000000,15396.000000,51582.000000
22920.000000,14667.000000,15363.000000,51612.000000
22918.000000,14712.000000,15420.000000,51599.000000
22900.000000,14645.000000,15380.000000,51568.000000
22928.000000,14668.000000,15400.000000,51592.000000
22908.000000,14673.000000,15413.000000,51573.000000
22890.000000,14643.000000,15403.000000,51579.000000
22949.000000,14637.000000,15398.000000,51569.000000
22866.000000,14651.000000,15396.000000,51598.000000
22886.000000,14685.000000,15399.000000,51605.000000
22873.000000,14652.000000,15368.000000,51580.000000
22861.000000,14681.000000,15356.000000,51593.000000
22840.000000,14667.000000,15368.000000,51553.000000
22831.000000,14619.000000,15356.000000,51565.000000
22848.000000,14645.000000,15338.000000,51578.000000
22849.000000,14623.000000,15345.000000,51569.000000
22821.000000,14611.000000,15340.000000,51566.000000
22856.000000,14604.000000,15321.000000,51542.000000
22834.000000,14603.000000,15322.000000,51545.000000
22846.000000,14606.000000,15328.000000,51564.000000
22817.000000,14636.000000,15328.000000,51542.000000
22812.000000,14605.000000,15336.000000,51559.000000
22791.000000,14612.000000,15318.000000,51539.000000
22800.000000,14573.000000,15304.000000,51533.000000
22780.000000,14596.000000,15290.000000,51547.000000
22790.000000,14603.000000,15287.000000,51555.000000
22819.000000,14558.000000,15312.000000,51524.000000
22766.000000,14577.000000,15295.000000,51539.000000
22779.000000,14605.000000,15288.000000,51543.000000
22749.000000,14575.000000,15274.000000,51530.000000
22763.000000,14573.000000,15284.000000,51506.000000
22731.000000,14549.000000,15257.000000,51520.000000
22703.000000,14589.000000,15242.000000,51494.000000
22692.000000,14534.000000,15241.000000,51506.000000
22705.000000,14525.000000,15202.000000,51499.000000
22684.000000,14536.000000,15217.000000,51496.000000
22668.000000,14532.000000,15234.000000,51474.000000
22684.000000,14489.000000,15208.000000,51463.000000
22674.000000,14492.000000,15180.000000,51479.000000
22620.000000,14518.000000,15184.000000,51443.000000
22635.000000,14502.000000,15181.000000,51463.000000
22635.000000,14477.000000,15156.000000,51447.000000
22604.000000,14481.000000,15126.000000,51443.000000
22613.000000,14463.000000,15148.000000,51439.000000
22613.000000,14446.000000,15157.000000,51430.000000
22592.000000,14439.000000,15138.000000,51483.000000
22619.000000,14443.000000,15122.000000,51420.000000
22578.000000,14481.000000,15118.000000,51415.000000
22554.000000,14431.000000,15108.000000,51435.000000
22589.000000,14456.000000,15119.000000,51426.000000
22549.000000,14451.000000,15068.000000,51426.000000
22542.000000,14457.000000,15086.000000,51424.000000
22558.000000,14392.000000,15113.000000,51407.000000
22576.000000,14451.000000,15116.000000,51385.000000
22595.000000,14446.000000,15096.000000,51442.000000
22563.000000,14433.000000,15099.000000,51436.000000
22548.000000,14443.000000,15067.000000,51423.000000
22547.000000,14441.000000,15084.000000,51428.000000
22550.000000,14414.000000,15061.000000,51396.000000
22491.000000,14392.000000,15065.000000,51413.000000
22538.000000,14404.000000,15059.000000,51414.000000
22491.000000,14365.000000,15014.000000,51365.000000
22472.000000,14372.000000,15019.000000,51414.000000
22457.000000,14359.000000,15012.000000,51347.000000
22418.000000,14363.000000,15027.000000,51338.000000
22428.000000,14352.000000,14958.000000,51323.000000
22396.000000,14315.000000,14957.000000,51363.000000
22365.000000,14320.000000,14915.000000,51355.000000
22385.000000,14279.000000,14913.000000,51325.000000
22341.000000,14275.000000,14910.000000,51295.000000
22336.000000,14262.000000,14913.000000,51308.000000
22365.000000,14284.000000,14926.000000,51298.000000
22332.000000,14261.000000,14927.000000,51311.000000
22355.000000,14274.000000,14916.000000,51343.000000
22356.000000,14284.000000,14959.000000,51304.000000
22393.000000,14301.000000,14940.000000,51358.000000
22392.000000,14337.000000,14978.000000,51343.000000
22364.000000,14346.000000,14976.000000,51305.000000
22439.000000,14340.000000,15008.000000,51403.000000
22454.000000,14341.000000,15046.000000,51388.000000
22446.000000,14357.000000,15062.000000,51397.000000
22466.000000,14348.000000,15077.000000,51422.000000
22471.000000,14400.000000,15065.000000,51411.000000
22444.000000,14393.000000,15110.000000,51411.000000
22492.000000,14389.000000,15096.000000,51434.000000
22479.000000,14439.000000,15128.000000,51461.000000
22517.000000,14442.000000,15154.000000,51457.000000
22601.000000,14502.000000,15243.000000,51530.000000
22646.000000,14519.000000,15311.000000,51490.000000
22703.000000,14522.000000,15345.000000,51532.000000
22682.000000,14527.000000,15379.000000,51582.000000
22754.000000,14593.000000,15404.000000,51622.000000
22749.000000,14598.000000,15420.000000,51610.000000
22766.000000,14678.000000,15481.000000,51633.000000
22833.000000,14657.000000,15494.000000,51650.000000
22835.000000,14671.000000,15550.000000,51684.000000
22912.000000,14715.000000,15616.000000,51727.000000
22944.000000,14749.000000,15670.000000,51720.000000
22962.000000,14796.000000,15685.000000,51770.000000
22978.000000,14808.000000,15699.000000,51757.000000
23056.000000,14819.000000,15765.000000,51793.000000
23114.000000,14891.000000,15786.000000,51817.000000
23123.000000,14905.000000,15796.000000,51815.000000
23187.000000,14929.000000,15831.000000,51854.000000
23159.000000,14941.000000,15874.000000,51894.000000
23220.000000,14973.000000,15899.000000,51872.000000
23242.000000,14993.000000,15915.000000,51884.000000
23267.000000,15012.000000,15927.000000,51888.000000
23270.000000,15044.000000,15945.000000,51863.000000
23261.000000,15023.000000,15973.000000,51924.000000
23254.000000,15010.000000,15936.000000,51915.000000
23250.000000,15024.000000,15931.000000,51886.000000
23231.000000,15019.000000,15961.000000,51886.000000
23261.000000,15020.000000,15884.000000,51889.000000
23269.000000,14979.000000,15905.000000,51918.000000
23204.000000,14985.000000,15902.000000,51882.000000
23181.000000,14990.000000,15885.000000,51837.000000
23155.000000,14951.000000,15848.000000,51851.000000
23144.000000,14934.000000,15860.000000,51832.000000
23152.000000,14951.000000,15856.000000,51822.000000
23104.000000,14911.000000,15837.000000,51838.000000
23099.000000,14915.000000,15799.000000,51803.000000
23093.000000,14905.000000,15782.000000,51827.000000
23080.000000,14850.000000,15770.000000,51784.000000
23064.000000,14905.000000,15749.000000,51829.000000
23070.000000,14855.000000,15739.000000,51755.000000
23037.000000,14876.000000,15743.000000,51782.000000
22995.000000,14820.000000,15714.000000,51770.000000
23013.000000,14811.000000,15702.000000,51745.000000
22956.000000,14820.000000,15695.000000,51745.000000
22974.000000,14810.000000,15685.000000,51736.000000
22939.000000,14786.000000,15669.000000,51714.000000
22964.000000,14779.000000,15643.000000,51711.000000
22928.000000,14771.000000,15622.000000,51705.000000
22884.000000,14771.000000,15608.000000,51701.000000
22876.000000,14714.000000,15602.000000,51708.000000
22862.000000,14677.000000,15583.000000,51702.000000
22842.000000,14740.000000,15572.000000,51671.000000
22792.000000,14708.000000,15543.000000,51700.000000
22851.000000,14708.000000,15527.000000,51653.000000
22827.000000,14701.000000,15523.000000,51657.000000
22812.000000,14714.000000,15504.000000,51661.000000
22812.000000,14673.000000,15526.000000,51643.000000
22825.000000,14682.000000,15510.000000,51641.000000
22797.000000,14653.000000,15470.000000,51644.000000
22769.000000,14627.000000,15480.000000,51646.000000
22763.000000,14658.000000,15462.000000,51609.000000
22735.000000,14606.000000,15414.000000,51616.000000
22734.000000,14607.000000,15406.000000,51586.000000
22719.000000,14596.000000,15386.000000,51612.000000
22701.000000,14611.000000,15375.000000,51607.000000
22685.000000,14602.000000,15382.000000,51595.000000
22682.000000,14580.000000,15357.000000,51590.000000
22652.000000,14580.000000,15391.000000,51617.000000
22699.000000,14599.000000,15343.000000,51558.000000
22685.000000,14540.000000,15337.000000,51565.000000
22665.000000,14589.000000,15340.000000,51572.000000
22685.000000,14550.000000,15296.000000,51567.000000
22650.000000,14549.000000,15348.000000,51558.000000
22659.000000,14551.000000,15308.000000,51572.000000
22655.000000,14527.000000,15315.000000,51561.000000
22650.000000,14533.000000,15309.000000,51527.000000
22621.000000,14543.000000,15300.000000,51539.000000
22642.000000,14526.000000,15291.000000,51531.000000
22581.000000,14528.000000,15268.000000,51522.000000
22631.000000,14504.000000,15324.000000,51521.000000
22602.000000,14528.000000,15267.000000,51548.000000
22606.000000,14519.000000,15245.000000,51526.000000
22614.000000,14549.000000,15256.000000,51508.000000
22586.000000,14532.000000,15224.000000,51492.000000
22610.000000,14526.000000,15216.000000,51530.000000
22596.000000,14525.000000,15256.000000,51472.000000
22596.000000,14490.000000,15219.000000,51505.000000
22592.000000,14505.000000,15249.000000,51548.000000
22606.000000,14519.000000,15229.000000,51515.000000
22601.000000,14501.000000,15216.000000,51547.000000
22607.000000,14487.000000,15204.000000,51524.000000
22582.000000,14492.000000,15247.000000,51528.000000
22591.000000,14483.000000,15249.000000,51510.000000
22605.000000,14479.000000,15227.000000,51522.000000
22591.000000,14507.000000,15228.000000,51512.000000
22620.000000,14486.000000,15194.000000,51479.000000
22567.000000,14467.000000,15211.000000,51520.000000
22570.000000,14468.000000,15224.000000,51487.000000
22551.000000,14432.000000,15173.000000,51478.000000
22543.000000,14455.000000,15185.000000,51524.000000
22557.000000,14453.000000,15169.000000,51472.000000
22514.000000,14442.000000,15195.000000,51483.000000
22520.000000,14419.000000,15181.000000,51472.000000
22499.000000,14431.000000,15166.000000,51474.000000
22490.000000,14417.000000,15162.000000,51479.000000
22528.000000,14421.000000,15144.000000,51441.000000
22491.000000,14410.000000,15165.000000,51480.000000
22511.000000,14454.000000,15129.000000,51462.000000
22498.000000,14416.000000,15161.000000,51483.000000
22513.000000,14399.000000,15127.000000,51473.000000
22527.000000,14427.000000,15124.000000,51482.000000
22499.000000,14414.000000,15100.000000,51453.000000
22507.000000,14401.000000,15093.000000,51451.000000
22470.000000,14395.000000,15106.000000,51458.000000
22482.000000,14367.000000,15063.000000,51437.000000
22482.000000,14369.000000,15079.000000,51460.000000
22469.000000,14373.000000,15105.000000,51443.000000
22461.000000,14354.000000,15075.000000,51430.000000
22429.000000,14357.000000,15109.000000,51407.000000
22466.000000,14378.000000,15083.000000,51422.000000
22468.000000,14351.000000,15094.000000,51417.000000
22417.000000,14297.000000,15076.000000,51437.000000
22432.000000,14378.000000,15044.000000,51419.000000
22436.000000,14363.000000,15097.000000,51468.000000
22428.000000,14376.000000,15065.000000,51418.000000
22444.000000,14312.000000,15076.000000,51453.000000
22421.000000,14328.000000,15087.000000,51444.000000
22451.000000,14348.000000,15095.000000,51437.000000
22480.000000,14341.000000,15048.000000,51460.000000
22488.000000,14385.000000,15112.000000,51445.000000
22470.000000,14363.000000,15080.000000,51470.000000
22478.000000,14363.000000,15091.000000,51446.000000
22496.000000,14377.000000,15172.000000,51475.000000
22520.000000,14384.000000,15166.000000,51488.000000
22580.000000,14401.000000,15252.000000,51526.000000
22609.000000,14496.000000,15292.000000,51553.000000
22614.000000,14477.000000,15276.000000,51548.000000
22669.000000,14511.000000,15341.000000,51588.000000
22710.000000,14515.000000,15351.000000,51630.000000
22758.000000,14552.000000,15417.000000,51607.000000
22785.000000,14584.000000,15479.000000,51648.000000
22790.000000,14542.000000,15476.000000,51683.000000
22833.000000,14604.000000,15527.000000,51716.000000
22878.000000,14632.000000,15607.000000,51744.000000
22919.000000,14691.000000,15615.000000,51758.000000
22925.000000,14684.000000,15628.000000,51789.000000
22961.000000,14738.000000,15660.000000,51794.000000
22969.000000,14699.000000,15748.000000,51814.000000
23070.000000,14748.000000,15768.000000,51802.000000
23068.000000,14788.000000,15797.000000,51895.000000
23111.000000,14806.000000,15834.000000,51908.000000
23156.000000,14881.000000,15869.000000,51899.000000
23189.000000,14869.000000,15882.000000,51912.000000
23171.000000,14931.000000,15985.000000,51949.000000
23279.000000,14934.000000,16025.000000,51961.000000
23291.000000,14927.000000,16029.000000,52015.000000
23361.000000,15048.000000,16140.000000,52050.000000
23392.000000,15058.000000,16132.000000,52083.000000
23428.000000,15087.000000,16191.000000,52062.000000
23461.000000,15151.000000,16246.000000,52128.000000
23511.000000,15184.000000,16278.000000,52119.000000
23573.000000,15220.000000,16365.000000,52163.000000
23645.000000,15289.000000,16464.000000,52220.000000
23707.000000,15320.000000,16473.000000,52221.000000
23704.000000,15354.000000,16508.000000,52242.000000
23751.000000,15355.000000,16529.000000,52242.000000
23753.000000,15343.000000,16523.000000,52245.000000
23764.000000,15370.000000,16560.000000,52275.000000
23739.000000,15396.000000,16574.000000,52271.000000
23757.000000,15370.000000,16584.000000,52271.000000
23793.000000,15371.000000,16568.000000,52252.000000
23775.000000,15408.000000,16527.000000,52266.000000
23789.000000,15377.000000,16549.000000,52236.000000
23705.000000,15368.000000,16508.000000,52252.000000
23758.000000,15383.000000,16546.000000,52262.000000
23754.000000,15375.000000,16550.000000,52230.000000
23747.000000,15345.000000,16549.000000,52222.000000
23726.000000,15362.000000,16484.000000,52229.000000
23737.000000,15351.000000,16506.000000,52246.000000
23727.000000,15378.000000,16486.000000,52216.000000
23695.000000,15332.000000,16519.000000,52206.000000
23718.000000,15350.000000,16505.000000,52195.000000
23663.000000,15315.000000,16479.000000,52229.000000
23667.000000,15321.000000,16460.000000,52195.000000
23660.000000,15343.000000,16429.000000,52182.000000
23675.000000,15300.000000,16481.000000,52208.000000
23641.000000,15327.000000,16459.000000,52184.000000
23656.000000,15322.000000,16429.000000,52166.000000
23592.000000,15294.000000,16432.000000,52189.000000
23640.000000,15317.000000,16429.000000,52174.000000
23599.000000,15264.000000,16410.000000,52179.000000
23627.000000,15287.000000,16437.000000,52158.000000
23630.000000,15283.000000,16428.000000,52137.000000
23615.000000,15313.000000,16393.000000,52147.000000
23654.000000,15276.000000,16423.000000,52167.000000
23626.000000,15279.000000,16397.000000,52144.000000
23563.000000,15269.000000,16405.000000,52131.000000
23578.000000,15268.000000,16340.000000,52137.000000
23594.000000,15245.000000,16378.000000,52124.000000
23567.000000,15273.000000,16356.000000,52104.000000
23534.000000,15266.000000,16319.000000,52101.000000
23559.000000,15222.000000,16334.000000,52119.000000
23521.000000,15281.000000,16313.000000,52098.000000
23528.000000,15220.000000,16277.000000,52104.000000
23507.000000,15244.000000,16297.000000,52109.000000
23515.000000,15230.000000,16295.000000,52069.000000
23472.000000,15195.000000,16265.000000,52057.000000
23467.000000,15214.000000,16263.000000,52069.000000
23476.000000,15169.000000,16236.000000,52087.000000
23450.000000,15186.000000,16236.000000,52037.000000
23408.000000,15190.000000,16213.000000,52057.000000
23480.000000,15187.000000,16204.000000,52051.000000
23398.000000,15176.000000,16137.000000,52047.000000
23430.000000,15143.000000,16196.000000,52032.000000
23396.000000,15120.000000,16170.000000,52009.000000
23379.000000,15098.000000,16157.000000,52013.000000
23348.000000,15071.000000,16170.000000,51993.000000
23388.000000,15097.000000,16098.000000,52000.000000
23352.000000,15066.000000,16116.000000,52005.000000
23339.000000,15066.000000,16095.000000,51979.000000
23332.000000,15054.000000,16075.000000,51974.000000
23333.000000,15062.000000,16105.000000,51987.000000
23314.000000,15051.000000,16062.000000,51960.000000
23328.000000,15078.000000,16080.000000,51977.000000
23295.000000,15036.000000,16072.000000,51951.000000
23302.000000,15062.000000,16030.000000,51932.000000
23320.000000,15021.000000,16036.000000,51954.000000
23272.000000,15039.000000,16073.000000,51984.000000
23293.000000,15018.000000,16040.000000,51966.000000
23248.000000,15004.000000,16033.000000,51955.000000
23278.000000,15048.000000,16023.000000,51953.000000
23225.000000,14980.000000,16017.000000,51937.000000
23258.000000,14983.000000,16004.000000,51935.000000
23214.000000,14974.000000,16023.000000,51949.000000
23185.000000,14965.000000,15975.000000,51928.000000
23201.000000,14956.000000,15957.000000,51910.000000
23175.000000,14926.000000,15979.000000,51912.000000
23138.000000,14959.000000,15932.000000,51901.000000
23124.000000,14881.000000,15915.000000,51887.000000
23108.000000,14931.000000,15897.000000,51870.000000
23113.000000,14838.000000,15888.000000,51866.000000
23085.000000,14896.000000,15866.000000,51869.000000
23110.000000,14878.000000,15866.000000,51846.000000
23067.000000,14876.000000,15853.000000,51858.000000
23098.000000,14893.000000,15886.000000,51861.000000
23118.000000,14876.000000,15854.000000,51823.000000
23118.000000,14890.000000,15873.000000,51869.000000
23108.000000,14913.000000,15878.000000,51869.000000
23117.000000,14895.000000,15872.000000,51820.000000
23143.000000,14860.000000,15831.000000,51866.000000
23089.000000,14897.000000,15856.000000,51872.000000
23123.000000,14877.000000,15848.000000,51869.000000
23096.000000,14855.000000,15850.000000,51853.000000
23110.000000,14878.000000,15840.000000,51821.000000
23074.000000,14827.000000,15852.000000,51829.000000
23060.000000,14886.000000,15816.000000,51854.000000
23051.000000,14839.000000,15794.000000,51835.000000
23069.000000,14791.000000,15820.000000,51833.000000
23043.000000,14813.000000,15787.000000,51802.000000
23023.000000,14811.000000,15776.000000,51820.000000
23009.000000,14805.000000,15794.000000,51809.000000
23009.000000,14838.000000,15802.000000,51813.000000
22980.000000,14813.000000,15762.000000,51809.000000
22974.000000,14737.000000,15775.000000,51786.000000
22934.000000,14796.000000,15779.000000,51811.000000
22956.000000,14759.000000,15728.000000,51784.000000
22935.000000,14775.000000,15725.000000,51761.000000
22908.000000,14731.000000,15744.000000,51744.000000
22842.000000,14737.000000,15715.000000,51774.000000
22923.000000,14728.000000,15687.000000,51773.000000
22912.000000,14764.000000,15696.000000,51759.000000
22913.000000,14744.000000,15703.000000,51785.000000
22923.000000,14737.000000,15751.000000,51772.000000
22893.000000,14740.000000,15713.000000,51780.000000
22922.000000,14763.000000,15763.000000,51773.000000
22959.000000,14764.000000,15741.000000,51779.000000
22943.000000,14791.000000,15782.000000,51801.000000
22953.000000,14792.000000,15805.000000,51803.000000
22999.000000,14777.000000,15774.000000,51833.000000
23012.000000,14808.000000,15830.000000,51842.000000
23014.000000,14827.000000,15812.000000,51843.000000
23028.000000,14815.000000,15842.000000,51860.000000
23026.000000,14869.000000,15894.000000,51886.000000
23087.000000,14869.000000,15889.000000,51888.000000
23073.000000,14885.000000,15928.000000,51902.000000
23115.000000,14919.000000,15957.000000,51876.000000
23141.000000,14928.000000,15968.000000,51936.000000
23159.000000,14911.000000,15990.000000,51937.000000
23160.000000,14960.000000,16023.000000,51917.000000
23186.000000,14971.000000,16073.000000,51963.000000
23197.000000,14972.000000,16089.000000,51963.000000
23262.000000,15012.000000,16115.000000,51980.000000
23290.000000,15020.000000,16151.000000,52004.000000
23309.000000,15086.000000,16177.000000,52021.000000
23325.000000,15087.000000,16208.000000,52074.000000
23387.000000,15104.000000,16226.000000,52062.000000
23379.000000,15194.000000,16281.000000,52104.000000
23435.000000,15178.000000,16335.000000,52112.000000
23510.000000,15218.000000,16356.000000,52133.000000
23524.000000,15217.000000,16391.000000,52175.000000
23572.000000,15255.000000,16448.000000,52206.000000
23611.000000,15294.000000,16498.000000,52206.000000
23669.000000,15337.000000,16530.000000,52273.000000
23728.000000,15381.000000,16632.000000,52234.000000
23795.000000,15400.000000,16605.000000,52300.000000
23823.000000,15439.000000,16666.000000,52325.000000
23875.000000,15448.000000,16719.000000,52326.000000
23909.000000,15473.000000,16774.000000,52370.000000
23961.000000,15535.000000,16794.000000,52375.000000
23971.000000,15550.000000,16763.000000,52371.000000
24002.000000,15566.000000,16835.000000,52406.000000
24011.000000,15552.000000,16837.000000,52380.000000
24019.000000,15546.000000,16849.000000,52431.000000
24030.000000,15576.000000,16851.000000,52409.000000
24024.000000,15609.000000,16841.000000,52402.000000
24038.000000,15581.000000,16853.000000,52405.000000
24028.000000,15598.000000,16864.000000,52380.000000
24025.000000,15600.000000,16853.000000,52413.000000
24019.000000,15572.000000,16829.000000,52407.000000
24001.000000,15580.000000,16854.000000,52398.000000
23994.000000,15608.000000,16828.000000,52360.000000
23980.000000,15557.000000,16799.000000,52378.000000
23996.000000,15527.000000,16771.000000,52369.000000
23978.000000,15529.000000,16792.000000,52368.000000
23957.000000,15534.000000,16787.000000,52370.000000
23936.000000,15523.000000,16778.000000,52355.000000
23939.000000,15515.000000,16763.000000,52309.000000
23941.000000,15518.000000,16709.000000,52336.000000
23896.000000,15500.000000,16755.000000,52330.000000
23916.000000,15481.000000,16691.000000,52304.000000
23868.000000,15479.000000,16715.000000,52326.000000
23882.000000,15473.000000,16676.000000,52308.000000
23838.000000,15413.000000,16721.000000,52294.000000
23829.000000,15429.000000,16702.000000,52274.000000
23798.000000,15453.000000,16665.000000,52292.000000
23817.000000,15419.000000,16636.000000,52250.000000
23791.000000,15439.000000,16607.000000,52284.000000
23822.000000,15407.000000,16624.000000,52268.000000
23811.000000,15403.000000,16609.000000,52247.000000
23804.000000,15404.000000,16611.000000,52266.000000
23806.000000,15405.000000,16613.000000,52241.000000
23803.000000,15398.000000,16605.000000,52240.000000
23746.000000,15369.000000,16564.000000,52255.000000
23752.000000,15389.000000,16580.000000,52234.000000
23737.000000,15375.000000,16563.000000,52237.000000
23754.000000,15389.000000,16566.000000,52255.000000
23735.000000,15366.000000,16510.000000,52207.000000
23704.000000,15354.000000,16499.000000,52229.000000
23704.000000,15387.000000,16543.000000,52219.000000
23670.000000,15342.000000,16466.000000,52202.000000
23646.000000,15334.000000,16496.000000,52207.000000
23667.000000,15342.000000,16470.000000,52166.000000
23637.000000,15313.000000,16457.000000,52183.000000
23631.000000,15331.000000,16432.000000,52169.000000
23608.000000,15317.000000,16423.000000,52197.000000
23601.000000,15264.000000,16427.000000,52131.000000
23563.000000,15263.000000,16393.000000,52131.000000
23585.000000,15265.000000,16386.000000,52137.000000
23575.000000,15269.000000,16362.000000,52126.000000
23569.000000,15269.000000,16344.000000,52133.000000
23537.000000,15251.000000,16334.000000,52084.000000
23506.000000,15244.000000,16352.000000,52118.000000
23518.000000,15249.000000,16340.000000,52103.000000
23526.000000,15243.000000,16322.000000,52078.000000
23507.000000,15222.000000,16273.000000,52090.000000
23438.000000,15220.000000,16294.000000,52073.000000
23478.000000,15151.000000,16263.000000,52080.000000
23469.000000,15223.000000,16258.000000,52088.000000
23427.000000,15227.000000,16208.000000,52066.000000
23446.000000,15173.000000,16246.000000,52040.000000
23418.000000,15160.000000,16197.000000,52028.000000
23407.000000,15127.000000,16185.000000,52021.000000
23351.000000,15100.000000,16167.000000,52010.000000
23371.000000,15129.000000,16161.000000,52009.000000
23350.000000,15056.000000,16157.000000,51998.000000
23342.000000,15094.000000,16081.000000,51994.000000
23328.000000,15092.000000,16134.000000,51967.000000
23326.000000,15091.000000,16086.000000,51958.000000
23311.000000,14997.000000,16083.000000,51974.000000
23278.000000,15031.000000,16086.000000,51972.000000
23291.000000,15030.000000,16110.000000,51992.000000
23307.000000,15045.000000,16070.000000,51967.000000
23249.000000,15001.000000,16048.000000,51963.000000
23251.000000,15011.000000,16054.000000,51956.000000
23242.000000,14989.000000,16031.000000,51957.000000
23226.000000,15004.000000,16029.000000,51966.000000
23217.000000,14970.000000,16027.000000,51955.000000
23237.000000,14952.000000,15995.000000,51984.000000
23210.000000,14954.000000,16011.000000,51963.000000
23220.000000,14975.000000,16008.000000,51930.000000
23215.000000,14985.000000,15982.000000,51929.000000
23217.000000,14961.000000,15958.000000,51935.000000
23205.000000,14958.000000,15962.000000,51929.000000
23181.000000,14944.000000,15970.000000,51890.000000
23201.000000,14988.000000,15986.000000,51921.000000
23179.000000,14931.000000,15945.000000,51923.000000
23199.000000,14943.000000,15929.000000,51898.000000
23122.000000,14926.000000,15931.000000,51916.000000
23175.000000,14946.000000,15902.000000,51867.000000
23130.000000,14927.000000,15917.000000,51898.000000
23160.000000,14893.000000,15926.000000,51839.000000
23154.000000,14906.000000,15919.000000,51842.000000
23137.000000,14931.000000,15930.000000,51902.000000
23133.000000,14887.000000,15880.000000,51885.000000
23157.000000,14908.000000,15881.000000,51850.000000
23096.000000,14867.000000,15865.000000,51863.000000
23116.000000,14874.000000,15855.000000,51868.000000
23119.000000,14847.000000,15862.000000,51848.000000
23098.000000,14856.000000,15834.000000,51866.000000
23082.000000,14848.000000,15848.000000,51823.000000
23054.000000,14848.000000,15827.000000,51841.000000
23057.000000,14845.000000,15796.000000,51819.000000
23005.000000,14793.000000,15782.000000,51845.000000
22981.000000,14796.000000,15793.000000,51814.000000
23001.000000,14832.000000,15803.000000,51775.000000
22994.000000,14804.000000,15771.000000,51820.000000
22952.000000,14803.000000,15780.000000,51778.000000
22989.000000,14788.000000,15787.000000,51812.000000
22987.000000,14774.000000,15771.000000,51793.000000
22993.000000,14784.000000,15765.000000,51812.000000
22988.000000,14788.000000,15780.000000,51805.000000
22986.000000,14771.000000,15759.000000,51823.000000
23004.000000,14792.000000,15775.000000,51806.000000
22963.000000,14822.000000,15771.000000,51813.000000
22999.000000,14804.000000,15798.000000,51844.000000
23026.000000,14816.000000,15796.000000,51823.000000
23043.000000,14779.000000,15826.000000,51836.000000
23010.000000,14785.000000,15836.000000,51853.000000
23040.000000,14839.000000,15839.000000,51833.000000
23029.000000,14842.000000,15875.000000,51894.000000
23084.000000,14857.000000,15892.000000,51914.000000
23103.000000,14880.000000,15912.000000,51889.000000
23108.000000,14885.000000,15930.000000,51924.000000
23144.000000,14924.000000,15944.000000,51919.000000
23199.000000,14936.000000,15978.000000,51978.000000
23188.000000,14886.000000,16021.000000,51911.000000
23226.000000,14954.000000,16017.000000,51979.000000
23213.000000,14952.000000,16084.000000,51977.000000
23255.000000,15005.000000,16064.000000,51982.000000
23293.000000,14996.000000,16097.000000,52024.000000
23282.000000,15014.000000,16149.000000,52037.000000
23322.000000,15075.000000,16198.000000,52057.000000
23367.000000,15112.000000,16212.000000,52032.000000
23381.000000,15139.000000,16254.000000,52096.000000
23468.000000,15183.000000,16292.000000,52102.000000
23460.000000,15187.000000,16331.000000,52142.000000
23511.000000,15240.000000,16398.000000,52125.000000
23549.000000,15248.000000,16414.000000,52152.000000
23595.000000,15272.000000,16437.000000,52233.000000
23617.000000,15312.000000,16500.000000,52214.000000
23702.000000,15330.000000,16572.000000,52246.000000
23777.000000,15378.000000,16583.000000,52243.000000
23762.000000,15402.000000,16569.000000,52314.000000
23827.000000,15432.000000,16657.000000,52289.000000
23845.000000,15443.000000,16659.000000,52298.000000
23875.000000,15463.000000,16706.000000,52336.000000
23929.000000,15502.000000,16696.000000,52314.000000
23925.000000,15487.000000,16763.000000,52355.000000
23931.000000,15508.000000,16747.000000,52337.000000
23936.000000,15522.000000,16760.000000,52363.000000
23928.000000,15545.000000,16781.000000,52366.000000
23946.000000,15510.000000,16744.000000,52359.000000
23956.000000,15504.000000,16770.000000,52381.000000
23945.000000,15493.000000,16795.000000,52329.000000
23898.000000,15496.000000,16701.000000,52332.000000
23924.000000,15478.000000,16707.000000,52327.000000
23929.000000,15498.000000,16692.000000,52318.000000
23869.000000,15447.000000,16679.000000,52313.000000
23844.000000,15430.000000,16664.000000,52332.000000
23846.000000,15453.000000,16656.000000,52316.000000
23827.000000,15470.000000,16628.000000,52273.000000
23800.000000,15424.000000,16628.000000,52280.000000
23822.000000,15444.000000,16635.000000,52315.000000
23798.000000,15403.000000,16606.000000,52257.000000
23784.000000,15384.000000,16564.000000,52259.000000
23759.000000,15425.000000,16588.000000,52293.000000
23751.000000,15404.000000,16575.000000,52284.000000
23739.000000,15416.000000,16590.000000,52249.000000
23729.000000,15384.000000,16558.000000,52234.000000
23747.000000,15371.000000,16526.000000,52210.000000
23696.000000,15380.000000,16519.000000,52245.000000
23733.000000,15365.000000,16489.000000,52214.000000
23674.000000,15336.000000,16524.000000,52210.000000
23678.000000,15319.000000,16505.000000,52208.000000
23678.000000,15348.000000,16506.000000,52185.000000
23668.000000,15336.000000,16504.000000,52214.000000
23658.000000,15331.000000,16428.000000,52180.000000
23634.000000,15357.000000,16474.000000,52196.000000
23661.000000,15329.000000,16469.000000,52190.000000
23662.000000,15311.000000,16433.000000,52177.000000
23628.000000,15325.000000,16435.000000,52189.000000
23651.000000,15310.000000,16431.000000,52137.000000
23610.000000,15311.000000,16414.000000,52177.000000
23615.000000,15277.000000,16437.000000,52179.000000
23587.000000,15288.000000,16389.000000,52129.000000
23607.000000,15257.000000,16382.000000,52122.000000
23553.000000,15273.000000,16348.000000,52135.000000
23532.000000,15273.000000,16343.000000,52170.000000
23532.000000,15242.000000,16331.000000,52105.000000
23524.000000,15237.000000,16329.000000,52152.000000
23509.000000,15230.000000,16305.000000,52119.000000
23491.000000,15201.000000,16317.000000,52120.000000
23472.000000,15221.000000,16261.000000,52109.000000
23414.000000,15201.000000,16256.000000,52088.000000
23444.000000,15203.000000,16239.000000,52054.000000
23426.000000,15181.000000,16261.000000,52082.000000
23453.000000,15173.000000,16235.000000,52044.000000
23416.000000,15174.000000,16199.000000,52049.000000
23400.000000,15193.000000,16225.000000,52056.000000
23388.000000,15122.000000,16199.000000,52039.000000
23364.000000,15129.000000,16194.000000,52066.000000
23404.000000,15141.000000,16187.000000,52024.000000
23360.000000,15115.000000,16159.000000,51996.000000
23390.000000,15120.000000,16160.000000,52036.000000
23319.000000,15077.000000,16179.000000,52037.000000
23370.000000,15059.000000,16138.000000,52003.000000
23315.000000,15078.000000,16130.000000,51999.000000
23293.000000,15089.000000,16137.000000,51965.000000
23292.000000,15058.000000,16086.000000,51993.000000
23298.000000,15042.000000,16078.000000,51961.000000
23258.000000,15020.000000,16075.000000,51969.000000
23253.000000,15059.000000,16044.000000,51971.000000
23222.000000,15015.000000,16056.000000,51958.000000
23238.000000,14992.000000,16014.000000,51963.000000
23230.000000,15010.000000,16059.000000,51940.000000
23208.000000,14999.000000,16049.000000,51954.000000
23213.000000,15007.000000,16004.000000,51906.000000
23185.000000,14968.000000,16002.000000,51925.000000
23220.000000,14978.000000,15989.000000,51904.000000
23180.000000,14972.000000,15963.000000,51931.000000
23162.000000,14957.000000,15976.000000,51914.000000
23167.000000,14989.000000,15935.000000,51900.000000
23141.000000,14937.000000,15949.000000,51881.000000
23119.000000,14929.000000,15914.000000,51884.000000
23111.000000,14918.000000,15912.000000,51886.000000
23111.000000,14923.000000,15912.000000,51869.000000
23117.000000,14898.000000,15884.000000,51879.000000
23114.000000,14879.000000,15877.000000,51888.000000
23074.000000,14910.000000,15884.000000,51858.000000
23072.000000,14893.000000,15828.000000,51854.000000
23065.000000,14877.000000,15855.000000,51834.000000
23106.000000,14884.000000,15860.000000,51863.000000
23060.000000,14861.000000,15844.000000,51842.000000
23019.000000,14848.000000,15840.000000,51861.000000
23021.000000,14866.000000,15843.000000,51864.000000
23031.000000,14849.000000,15811.000000,51810.000000
23023.000000,14826.000000,15820.000000,51837.000000
23007.000000,14848.000000,15796.000000,51827.000000
22975.000000,14827.000000,15812.000000,51811.000000
23008.000000,14817.000000,15798.000000,51821.000000
22971.000000,14802.000000,15765.000000,51789.000000
22953.000000,14768.000000,15761.000000,51805.000000
22993.000000,14810.000000,15778.000000,51789.000000
22956.000000,14809.000000,15778.000000,51817.000000
22954.000000,14794.000000,15738.000000,51778.000000
22920.000000,14769.000000,15725.000000,51801.000000
22973.000000,14749.000000,15729.000000,51789.000000
22909.000000,14789.000000,15716.000000,51767.000000
22910.000000,14773.000000,15701.000000,51779.000000
22940.000000,14755.000000,15725.000000,51773.000000
22906.000000,14738.000000,15676.000000,51765.000000
22893.000000,14729.000000,15673.000000,51748.000000
22896.000000,14742.000000,15675.000000,51732.000000
22878.000000,14716.000000,15680.000000,51734.000000
22876.000000,14723.000000,15656.000000,51716.000000
22858.000000,14731.000000,15638.000000,51760.000000
22841.000000,14719.000000,15669.000000,51736.000000
22827.000000,14723.000000,15641.000000,51717.000000
22821.000000,14713.000000,15634.000000,51714.000000
22831.000000,14665.000000,15645.000000,51709.000000
22820.000000,14704.000000,15616.000000,51742.000000
22834.000000,14684.000000,15633.000000,51733.000000
22831.000000,14694.000000,15658.000000,51737.000000
22850.000000,14686.000000,15643.000000,51730.000000
22894.000000,14727.000000,15670.000000,51734.000000
22869.000000,14727.000000,15672.000000,51776.000000
22899.000000,14707.000000,15699.000000,51757.000000
22921.000000,14724.000000,15728.000000,51761.000000
22910.000000,14738.000000,15751.000000,51803.000000
22944.000000,14733.000000,15754.000000,51790.000000
22930.000000,14767.000000,15761.000000,51819.000000
22944.000000,14808.000000,15785.000000,51813.000000
22982.000000,14810.000000,15802.000000,51832.000000
23019.000000,14794.000000,15811.000000,51867.000000
23042.000000,14834.000000,15828.000000,51865.000000
23040.000000,14828.000000,15867.000000,51871.000000
23091.000000,14898.000000,15855.000000,51902.000000
23111.000000,14885.000000,15918.000000,51935.000000
23112.000000,14932.000000,15961.000000,51909.000000
23142.000000,14926.000000,15989.000000,51941.000000
23198.000000,14951.000000,16004.000000,51954.000000
23219.000000,14988.000000,16007.000000,51994.000000
23259.000000,15013.000000,16083.000000,52003.000000
23270.000000,14990.000000,16103.000000,52003.000000
23320.000000,15061.000000,16179.000000,52036.000000
23357.000000,15109.000000,16189.000000,52065.000000
23374.000000,15122.000000,16224.000000,52094.000000
23452.000000,15170.000000,16275.000000,52080.000000
23496.000000,15230.000000,16316.000000,52116.000000
23551.000000,15259.000000,16387.000000,52171.000000
23611.000000,15298.000000,16398.000000,52171.000000
23607.000000,15288.000000,16471.000000,52228.000000
23670.000000,15322.000000,16469.000000,52238.000000
23723.000000,15359.000000,16550.000000,52276.000000
23781.000000,15367.000000,16560.000000,52242.000000
23768.000000,15425.000000,16607.000000,52275.000000
23778.000000,15397.000000,16609.000000,52326.000000
23829.000000,15435.000000,16630.000000,52289.000000
23813.000000,15442.000000,16606.000000,52305.000000
23852.000000,15454.000000,16658.000000,52308.000000
23867.000000,15445.000000,16644.000000,52315.000000
23852.000000,15417.000000,16656.000000,52302.000000
23860.000000,15447.000000,16664.000000,52301.000000
23833.000000,15442.000000,16625.000000,52306.000000
23855.000000,15427.000000,16657.000000,52321.000000
23847.000000,15483.000000,16637.000000,52312.000000
23793.000000,15418.000000,16663.000000,52274.000000
23808.000000,15425.000000,16647.000000,52326.000000
23819.000000,15421.000000,16628.000000,52291.000000
23825.000000,15441.000000,16628.000000,52274.000000
23803.000000,15450.000000,16636.000000,52288.000000
23809.000000,15397.000000,16625.000000,52281.000000
23784.000000,15392.000000,16600.000000,52291.000000
23779.000000,15412.000000,16584.000000,52267.000000
23765.000000,15383.000000,16585.000000,52250.000000
23757.000000,15378.000000,16567.000000,52274.000000
23745.000000,15404.000000,16517.000000,52232.000000
23752.000000,15349.000000,16557.000000,52232.000000
23710.000000,15372.000000,16555.000000,52224.000000
23723.000000,15369.000000,16517.000000,52235.000000
23704.000000,15339.000000,16502.000000,52255.000000
23716.000000,15337.000000,16533.000000,52245.000000
23649.000000,15367.000000,16506.000000,52247.000000
23674.000000,15352.000000,16488.000000,52202.000000
23687.000000,15334.000000,16508.000000,52220.000000
23682.000000,15308.000000,16459.000000,52210.000000
23648.000000,15332.000000,16467.000000,52183.000000
23663.000000,15320.000000,16460.000000,52191.000000
23619.000000,15306.000000,16457.000000,52185.000000
23624.000000,15330.000000,16430.000000,52205.000000
23622.000000,15294.000000,16433.000000,52165.000000
23588.000000,15262.000000,16430.000000,52188.000000
23591.000000,15317.000000,16442.000000,52186.000000
23589.000000,15268.000000,16393.000000,52160.000000
23568.000000,15287.000000,16431.000000,52179.000000
23546.000000,15287.000000,16408.000000,52140.000000
23560.000000,15273.000000,16389.000000,52130.000000
23527.000000,15265.000000,16385.000000,52177.000000
23548.000000,15264.000000,16339.000000,52115.000000
23511.000000,15224.000000,16323.000000,52105.000000
23509.000000,15255.000000,16352.000000,52146.000000
23492.000000,15225.000000,16311.000000,52129.000000
23474.000000,15211.000000,16296.000000,52095.000000
23473.000000,15220.000000,16329.000000,52079.000000
23465.000000,15213.000000,16251.000000,52070.000000
23409.000000,15160.000000,16275.000000,52100.000000
23436.000000,15198.000000,16266.000000,52101.000000
23421.000000,15181.000000,16256.000000,52046.000000
23416.000000,15180.000000,16239.000000,52045.000000
23412.000000,15152.000000,16244.000000,52048.000000
23398.000000,15152.000000,16217.000000,52046.000000
23392.000000,15144.000000,16211.000000,52065.000000
23353.000000,15159.000000,16214.000000,52028.000000
23339.000000,15120.000000,16213.000000,52006.000000
23349.000000,15140.000000,16163.000000,52021.000000
23372.000000,15158.000000,16171.000000,52023.000000
23322.000000,15077.000000,16172.000000,52011.000000
23281.000000,14968.000000,16332.000000,51826.000000
23501.000000,14850.000000,16168.000000,52142.000000
23176.000000,15242.000000,15978.000000,52048.000000
23231.000000,15025.000000,16271.000000,51800.000000
23427.000000,15057.000000,15987.000000,52172.000000
23133.000000,15231.000000,15897.000000,52007.000000
23314.000000,14884.000000,16231.000000,51804.000000
23417.000000,14962.000000,15937.000000,52175.000000
23058.000000,15110.000000,16051.000000,51866.000000
23200.000000,14834.000000,16217.000000,51833.000000
23333.000000,14909.000000,15862.000000,52094.000000
23013.000000,15161.000000,15867.000000,51930.000000
23174.000000,14806.000000,16205.000000,51870.000000
23329.000000,14945.000000,15782.000000,52092.000000
22973.000000,15151.000000,15946.000000,51831.000000
23215.000000,14769.000000,16144.000000,51855.000000
23128.000000,15036.000000,15775.000000,52090.000000
22979.000000,15014.000000,16057.000000,51684.000000
23353.000000,14733.000000,15953.000000,51921.000000
23157.000000,15056.000000,15721.000000,52050.000000
22937.000000,14860.000000,16016.000000,51663.000000
23296.000000,14749.000000,15965.000000,51975.000000
22936.000000,15142.000000,15719.000000,51916.000000
23041.000000,14825.000000,16105.000000,51645.000000
23241.000000,14706.000000,15900.000000,51952.000000
22950.000000,15086.000000,15701.000000,51894.000000
23013.000000,14730.000000,16130.000000,51685.000000
23177.000000,14845.000000,15756.000000,52083.000000
22837.000000,15046.000000,15802.000000,51766.000000
22985.000000,14709.000000,16002.000000,51664.000000
23116.000000,14791.000000,15679.000000,52050.000000
22841.000000,14966.000000,15809.000000,51679.000000
23139.000000,14635.000000,15958.000000,51823.000000
23129.000000,14831.000000,15650.000000,51983.000000
22716.000000,14887.000000,15797.000000,51653.000000
23064.000000,14613.000000,15804.000000,51858.000000
22924.000000,14964.000000,15579.000000,51859.000000
22895.000000,14776.000000,15892.000000,51568.000000
23110.000000,14598.000000,15829.000000,51827.000000
22791.000000,14941.000000,15574.000000,51804.000000
22862.000000,14695.000000,15913.000000,51618.000000
23041.000000,14664.000000,15726.000000,51904.000000
22891.000000,14923.000000,15535.000000,51822.000000
22757.000000,14740.000000,15800.000000,51548.000000
23014.000000,14609.000000,15708.000000,51814.000000
22861.000000,14902.000000,15542.000000,51846.000000
22716.000000,14766.000000,15730.000000,51594.000000
23030.000000,14634.000000,15707.000000,51826.000000
22843.000000,14874.000000,15490.000000,51765.000000
22718.000000,14726.000000,15741.000000,51596.000000
22968.000000,14577.000000,15796.000000,51716.000000
22789.000000,14866.000000,15532.000000,51829.000000
22700.000000,14787.000000,15818.000000,51595.000000
22984.000000,14592.000000,15702.000000,51810.000000
22851.000000,14878.000000,15534.000000,51843.000000
22752.000000,14678.000000,15901.000000,51667.000000
23075.000000,14616.000000,15663.000000,51885.000000
22791.000000,14940.000000,15630.000000,51848.000000
22816.000000,14675.000000,15890.000000,51593.000000
23055.000000,14653.000000,15686.000000,51930.000000
22777.000000,14925.000000,15717.000000,51763.000000
22974.000000,14648.000000,15982.000000,51758.000000
23088.000000,14743.000000,15723.000000,52026.000000
22794.000000,14982.000000,15760.000000,51722.000000
23071.000000,14689.000000,15993.000000,51830.000000
23223.000000,14819.000000,15771.000000,52062.000000
22925.000000,14999.000000,15832.000000,51808.000000
23200.000000,14671.000000,16063.000000,51827.000000
23063.000000,15004.000000,15758.000000,52104.000000
23012.000000,14841.000000,16126.000000,51707.000000
23292.000000,14761.000000,16103.000000,52016.000000
23094.000000,15109.000000,15881.000000,51965.000000
23108.000000,14840.000000,16207.000000,51792.000000
23393.000000,14899.000000,16030.000000,52149.000000
23227.000000,15144.000000,16020.000000,52092.000000
23247.000000,15285.000000,16183.000000,52021.000000
23346.000000,15156.000000,16408.000000,52025.000000
23663.000000,15121.000000,16291.000000,52274.000000
23369.000000,15363.000000,16307.000000,52118.000000
23509.000000,15196.000000,16619.000000,52055.000000
23693.000000,15248.000000,16407.000000,52369.000000
23538.000000,15486.000000,16352.000000,52228.000000
23654.000000,15282.000000,16703.000000,52122.000000
23823.000000,15315.000000,16477.000000,52503.000000
23627.000000,15492.000000,16573.000000,52144.000000
23683.000000,15297.000000,16820.000000,52173.000000
23936.000000,15372.000000,16578.000000,52460.000000
23650.000000,15551.000000,16607.000000,52291.000000
23885.000000,15320.000000,16821.000000,52296.000000
23948.000000,15437.000000,16604.000000,52504.000000
23718.000000,15570.000000,16593.000000,52291.000000
23800.000000,15344.000000,16907.000000,52136.000000
23955.000000,15469.000000,16535.000000,52479.000000
23723.000000,15588.000000,16647.000000,52282.000000
23904.000000,15284.000000,16861.000000,52302.000000
24021.000000,15449.000000,16599.000000,52525.000000
23723.000000,15580.000000,16701.000000,52173.000000
23960.000000,15313.000000,16791.000000,52263.000000
23921.000000,15479.000000,16517.000000,52444.000000
23668.000000,15508.000000,16705.000000,52146.000000
23963.000000,15276.000000,16749.000000,52269.000000
23807.000000,15530.000000,16432.000000,52391.000000
23625.000000,15487.000000,16686.000000,52149.000000
23957.000000,15281.000000,16781.000000,52330.000000
23758.000000,15525.000000,16454.000000,52286.000000
23668.000000,15409.000000,16702.000000,52129.000000
23981.000000,15230.000000,16680.000000,52270.000000
23776.000000,15563.000000,16360.000000,52395.000000
23577.000000,15321.000000,16792.000000,52117.000000
23891.000000,15274.000000,16520.000000,52402.000000
23621.000000,15540.000000,16430.000000,52304.000000
23558.000000,15351.000000,16667.000000,52081.000000
23884.000000,15269.000000,16510.000000,52432.000000
23585.000000,15532.000000,16366.000000,52222.000000
23617.000000,15223.000000,16682.000000,52129.000000
23674.000000,15263.000000,16676.000000,52098.000000
23868.000000,15249.000000,16469.000000,52379.000000
23473.000000,15460.000000,16348.000000,52230.000000
23588.000000,15278.000000,16592.000000,52046.000000
23755.000000,15203.000000,16442.000000,52331.000000
23592.000000,15448.000000,16311.000000,52300.000000
23616.000000,15245.000000,16551.000000,52036.000000
23753.000000,15250.000000,16370.000000,52332.000000
23504.000000,15354.000000,16415.000000,52121.000000
23542.000000,15240.000000,16611.000000,52056.000000
23638.000000,15163.000000,16554.000000,52076.000000
23788.000000,15191.000000,16339.000000,52345.000000
23442.000000,15363.000000,16407.000000,52047.000000
23670.000000,15097.000000,16598.000000,52124.000000
23572.000000,15395.000000,16234.000000,52230.000000
23407.000000,15418.000000,16300.000000,52086.000000
23727.000000,15145.000000,16416.000000,52236.000000
23509.000000,15399.000000,16186.000000,52295.000000
23426.000000,15257.000000,16500.000000,52020.000000
23614.000000,15071.000000,16513.000000,52032.000000
23507.000000,15338.000000,16119.000000,52243.000000
23368.000000,15264.000000,16440.000000,52034.000000
23683.000000,15083.000000,16317.000000,52295.000000
23424.000000,15340.000000,16136.000000,52190.000000
23323.000000,15174.000000,16456.000000,51965.000000
23650.000000,15089.000000,16308.000000,52271.000000
23294.000000,15344.000000,16211.000000,52047.000000
23475.000000,15000.000000,16421.000000,52025.000000
23607.000000,15152.000000,16149.000000,52294.000000
23275.000000,15324.000000,16181.000000,51982.000000
23534.000000,14929.000000,16360.000000,52063.000000
23460.000000,15279.000000,16001.000000,52184.000000
23238.000000,15143.000000,16290.000000,51861.000000
23477.000000,14945.000000,16330.000000,52036.000000
23335.000000,15276.000000,15980.000000,52206.000000
23246.000000,15086.000000,16298.000000,51851.000000
23527.000000,15029.000000,16163.000000,52205.000000
23355.000000,15242.000000,15988.000000,52120.000000
23228.000000,15067.000000,16348.000000,51862.000000
23528.000000,15034.000000,16152.000000,52135.000000
23240.000000,15280.000000,16021.000000,52016.000000
23223.000000,15160.000000,16241.000000,51869.000000
23528.000000,14952.000000,16158.000000,52136.000000
23220.000000,15173.000000,16025.000000,52024.000000
23279.000000,14997.000000,16279.000000,51887.000000
23449.000000,14921.000000,16157.000000,52126.000000
23222.000000,15259.000000,15973.000000,52035.000000
23248.000000,14922.000000,16263.000000,51887.000000
23429.000000,14979.000000,16052.000000,52247.000000
23220.000000,15205.000000,16002.000000,51996.000000
23257.000000,14947.000000,16308.000000,51910.000000
23351.000000,15068.000000,16020.000000,52235.000000
23081.000000,15160.000000,16016.000000,51953.000000
23345.000000,14882.000000,16219.000000,51971.000000
23446.000000,14947.000000,16053.000000,52178.000000
23143.000000,15108.000000,16138.000000,51881.000000
23286.000000,14885.000000,16239.000000,51967.000000
23274.000000,15161.000000,15958.000000,52096.000000
23090.000000,15157.000000,16034.000000,51898.000000
23377.000000,14845.000000,16199.000000,51951.000000
23333.000000,15071.000000,15936.000000,52141.000000
23164.000000,15099.000000,16243.000000,51828.000000
23400.000000,14894.000000,16212.000000,52052.000000
23337.000000,15167.000000,15941.000000,52074.000000
23155.000000,15044.000000,16242.000000,51820.000000
23503.000000,14963.000000,16120.000000,52132.000000
23196.000000,15237.000000,16007.000000,52073.000000
23212.000000,14959.000000,16288.000000,51817.000000
23458.000000,14869.000000,16223.000000,52038.000000
23381.000000,15139.000000,15949.000000,52141.000000
23125.000000,15070.000000,16156.000000,51860.000000
23496.000000,14893.000000,16153.000000,52129.000000
23204.000000,15199.000000,15962.000000,52035.000000
23173.000000,15061.000000,16220.000000,51864.000000
23432.000000,14871.000000,16146.000000,52128.000000
23143.000000,15227.000000,15934.000000,52011.000000
23293.000000,14899.000000,16317.000000,51884.000000
23299.000000,15088.000000,15907.000000,52236.000000
23109.000000,15179.000000,16050.000000,51902.000000
23380.000000,14877.000000,16307.000000,51940.000000
23317.000000,14982.000000,16005.000000,52230.000000
23139.000000,15128.000000,16061.000000,51875.000000
23222.000000,14947.000000,16235.000000,51881.000000
23404.000000,14879.000000,16277.000000,52083.000000
23394.000000,15094.000000,16085.000000,52201.000000
23124.000000,15163.000000,16189.000000,51946.000000
23436.000000,14920.000000,16283.000000,52088.000000
23364.000000,15199.000000,16017.000000,52149.000000
23276.000000,15112.000000,16315.000000,51958.000000
23511.000000,14899.000000,16334.000000,52124.000000
23324.000000,15249.000000,16060.000000,52180.000000
23355.000000,15139.000000,16448.000000,51971.000000
23609.000000,15099.000000,16339.000000,52165.000000
23536.000000,15219.000000,16185.000000,52290.000000
23436.000000,15203.000000,16515.000000,51952.000000
23701.000000,15084.000000,16458.000000,52246.000000
23409.000000,15380.000000,16335.000000,52110.000000
23522.000000,15131.000000,16611.000000,52108.000000
23713.000000,15228.000000,16374.000000,52359.000000
23488.000000,15499.000000,16406.000000,52174.000000
23749.000000,15149.000000,16691.000000,52264.000000
23805.000000,15368.000000,16418.000000,52462.000000
23575.000000,15492.000000,16635.000000,52167.000000
23844.000000,15216.000000,16848.000000,52255.000000
23917.000000,15430.000000,16537.000000,52503.000000
23681.000000,15580.000000,16644.000000,52284.000000
23903.000000,15338.000000,16983.000000,52289.000000
24042.000000,15525.000000,16675.000000,52635.000000
23845.000000,15664.000000,16898.000000,52301.000000
24170.000000,15453.000000,16972.000000,52494.000000
24061.000000,15775.000000,16809.000000,52603.000000
23986.000000,15712.000000,17072.000000,52342.000000
24277.000000,15524.000000,17062.000000,52695.000000
24158.000000,15854.000000,16966.000000,52642.000000
24151.000000,15721.000000,17365.000000,52448.000000
24386.000000,15732.000000,17172.000000,52865.000000
24242.000000,16015.000000,17075.000000,52664.000000
24193.000000,15828.000000,17344.000000,52457.000000
24583.000000,15741.000000,17208.000000,52804.000000
24286.000000,16030.000000,17173.000000,52634.000000
24351.000000,15828.000000,17376.000000,52489.000000
24596.000000,15857.000000,17286.000000,52793.000000
24299.000000,16055.000000,17166.000000,52641.000000
24321.000000,15832.000000,17416.000000,52459.000000
24576.000000,15825.000000,17186.000000,52812.000000
24331.000000,16060.000000,17120.000000,52619.000000
24371.000000,15731.000000,17448.000000,52592.000000
24552.000000,15796.000000,17195.000000,52762.000000
24238.000000,16026.000000,17145.000000,52546.000000
24416.000000,15762.000000,17407.000000,52545.000000
24481.000000,15797.000000,17049.000000,52819.000000
24244.000000,16043.000000,17118.000000,52548.000000
24348.000000,15702.000000,17392.000000,52501.000000
24410.000000,15932.000000,17046.000000,52745.000000
24201.000000,15902.000000,17236.000000,52433.000000
24525.000000,15712.000000,17238.000000,52639.000000
24370.000000,15947.000000,17021.000000,52769.000000
24282.000000,15775.000000,17353.000000,52460.000000
24538.000000,15635.000000,17190.000000,52729.000000
24338.000000,15977.000000,17060.000000,52663.000000
24196.000000,15864.000000,17284.000000,52430.000000
24457.000000,15717.000000,17112.000000,52774.000000
24254.000000,15995.000000,17001.000000,52665.000000
24163.000000,15771.000000,17258.000000,52442.000000
24417.000000,15611.000000,17163.000000,52688.000000
24175.000000,15966.000000,17042.000000,52536.000000
24106.000000,15813.000000,17209.000000,52386.000000
24367.000000,15576.000000,17197.000000,52571.000000
24275.000000,15810.000000,16900.000000,52737.000000
24065.000000,15770.000000,17111.000000,52360.000000
24382.000000,15600.000000,17142.000000,52584.000000
24299.000000,15695.000000,16875.000000,52752.000000
24045.000000,15798.000000,17097.000000,52376.000000
24332.000000,15590.000000,17149.000000,52607.000000
24217.000000,15839.000000,16867.000000,52632.000000
24046.000000,15793.000000,17125.000000,52368.000000
24344.000000,15547.000000,17160.000000,52531.000000
24163.000000,15876.000000,16814.000000,52583.000000
24098.000000,15659.000000,17129.000000,52301.000000
24358.000000,15517.000000,17124.000000,52507.000000
24171.000000,15863.000000,16845.000000,52694.000000
24048.000000,15658.000000,17165.000000,52362.000000
24275.000000,15553.000000,16964.000000,52635.000000
24319.000000,15529.000000,16931.000000,52676.000000
24015.000000,15821.000000,16766.000000,52424.000000
24059.000000,15520.000000,17041.000000,52326.000000
24195.000000,15520.000000,16916.000000,52566.000000
23990.000000,15727.000000,16703.000000,52466.000000
23956.000000,15652.000000,16965.000000,52228.000000
24133.000000,15446.000000,16969.000000,52366.000000
24133.000000,15563.000000,16763.000000,52541.000000
23889.000000,15749.000000,16799.000000,52270.000000
24068.000000,15435.000000,16993.000000,52428.000000
24075.000000,15704.000000,16643.000000,52513.000000
23829.000000,15650.000000,16801.000000,52280.000000
24085.000000,15368.000000,16904.000000,52405.000000
23956.000000,15635.000000,16602.000000,52500.000000
23839.000000,15538.000000,16858.000000,52199.000000
24117.000000,15438.000000,16731.000000,52500.000000
23840.000000,15725.000000,16597.000000,52395.000000
23923.000000,15459.000000,16901.000000,52221.000000
24085.000000,15373.000000,16712.000000,52446.000000
23824.000000,15660.000000,16640.000000,52319.000000
23831.000000,15384.000000,16918.000000,52212.000000
23932.000000,15467.000000,16557.000000,52497.000000
23760.000000,15596.000000,16609.000000,52288.000000
23964.000000,15365.000000,16833.000000,52337.000000
23872.000000,15577.000000,16508.000000,52509.000000
23736.000000,15444.000000,16847.000000,52119.000000
23959.000000,15283.000000,16595.000000,52370.000000
23653.000000,15582.000000,16518.000000,52238.000000
23682.000000,15335.000000,16774.000000,52091.000000
23904.000000,15365.000000,16500.000000,52525.000000
23612.000000,15574.000000,16525.000000,52260.000000
23820.000000,15235.000000,16776.000000,52211.000000
23926.000000,15270.000000,16509.000000,52478.000000
23607.000000,15570.000000,16407.000000,52224.000000
23657.000000,15291.000000,16702.000000,52110.000000
23848.000000,15321.000000,16451.000000,52422.000000
23566.000000,15535.000000,16370.000000,52240.000000
23736.000000,15229.000000,16684.000000,52130.000000
23822.000000,15360.000000,16335.000000,52412.000000
23576.000000,15473.000000,16570.000000,52062.000000
23771.000000,15226.000000,16677.000000,52134.000000
23836.000000,15309.000000,16395.000000,52364.000000
23571.000000,15528.000000,16504.000000,52135.000000
23756.000000,15180.000000,16671.000000,52223.000000
23737.000000,15407.000000,16284.000000,52305.000000
23524.000000,15426.000000,16489.000000,52105.000000
23762.000000,15188.000000,16618.000000,52164.000000
23694.000000,15410.000000,16320.000000,52325.000000
23564.000000,15254.000000,16607.000000,52061.000000
23838.000000,15174.000000,16532.000000,52247.000000
23554.000000,15460.000000,16302.000000,52246.000000
23584.000000,15166.000000,16623.000000,52047.000000
23788.000000,15288.000000,16306.000000,52334.000000
23486.000000,15419.000000,16365.000000,52050.000000
23652.000000,15211.000000,16544.000000,52093.000000
23734.000000,15229.000000,16330.000000,52355.000000
23501.000000,15421.000000,16385.000000,52058.000000
23519.000000,15220.000000,16580.000000,52033.000000
23706.000000,15266.000000,16335.000000,52347.000000
23436.000000,15426.000000,16225.000000,52140.000000
23568.000000,15117.000000,16464.000000,52108.000000
23607.000000,15215.000000,16229.000000,52330.000000
23395.000000,15360.000000,16253.000000,52088.000000
23446.000000,15134.000000,16481.000000,51990.000000
23621.000000,15213.000000,16209.000000,52260.000000
23316.000000,15322.000000,16240.000000,52049.000000
23564.000000,15080.000000,16433.000000,52057.000000
23620.000000,15242.000000,16178.000000,52274.000000
23324.000000,15221.000000,16363.000000,52035.000000
23613.000000,15073.000000,16429.000000,52107.000000
23534.000000,15255.000000,16119.000000,52222.000000
23355.000000,15283.000000,16436.000000,51967.000000
23689.000000,15084.000000,16381.000000,52189.000000
23494.000000,15396.000000,16158.000000,52205.000000
23455.000000,15190.000000,16498.000000,51947.000000
23666.000000,15098.000000,16461.000000,52193.000000
23486.000000,15426.000000,16214.000000,52224.000000
23505.000000,15186.000000,16518.000000,52017.000000
23713.000000,15169.000000,16331.000000,52330.000000
23530.000000,15413.000000,16257.000000,52205.000000
23573.000000,15138.000000,16662.000000,52074.000000
23765.000000,15314.000000,16343.000000,52396.000000
23488.000000,15425.000000,16516.000000,52111.000000
23796.000000,15188.000000,16575.000000,52220.000000
23692.000000,15393.000000,16354.000000,52361.000000
23575.000000,15379.000000,16644.000000,52113.000000
23871.000000,15231.000000,16657.000000,52372.000000
23693.000000,15496.000000,16488.000000,52318.000000
23633.000000,15358.000000,16799.000000,52157.000000
23948.000000,15293.000000,16722.000000,52340.000000
23767.000000,15496.000000,16627.000000,52410.000000
23864.000000,15495.000000,16907.000000,52235.000000
24072.000000,15360.000000,16837.000000,52507.000000
23928.000000,15632.000000,16703.000000,52470.000000
23917.000000,15478.000000,16977.000000,52337.000000
24156.000000,15568.000000,16792.000000,52583.000000
23879.000000,15714.000000,16917.000000,52392.000000
24156.000000,15560.000000,17054.000000,52426.000000
24221.000000,15711.000000,16929.000000,52647.000000
24160.000000,15819.000000,17096.000000,52474.000000
24388.000000,15602.000000,17175.000000,52688.000000
24339.000000,15875.000000,17020.000000,52664.000000
24182.000000,15898.000000,17229.000000,52488.000000
24453.000000,15759.000000,17226.000000,52695.000000
24486.000000,15930.000000,17089.000000,52791.000000
24371.000000,15829.000000,17342.000000,52603.000000
24566.000000,15790.000000,17373.000000,52677.000000
24469.000000,15983.000000,17141.000000,52709.000000
24379.000000,15997.000000,17387.000000,52474.000000
24545.000000,15879.000000,17247.000000,52762.000000
24488.000000,16034.000000,17158.000000,52768.000000
24421.000000,15831.000000,17374.000000,52551.000000
24601.000000,15903.000000,17177.000000,52789.000000
24369.000000,16030.000000,17305.000000,52510.000000
24552.000000,15804.000000,17340.000000,52666.000000
24430.000000,16050.000000,17141.000000,52674.000000
24312.000000,15904.000000,17326.000000,52496.000000
24567.000000,15843.000000,17183.000000,52701.000000
24356.000000,16012.000000,17149.000000,52596.000000
24379.000000,15794.000000,17353.000000,52515.000000
24474.000000,15830.000000,17092.000000,52724.000000
24325.000000,15923.000000,17241.000000,52470.000000
24416.000000,15752.000000,17311.000000,52536.000000
24351.000000,15882.000000,17063.000000,52717.000000
24270.000000,15849.000000,17197.000000,52514.000000
24477.000000,15764.000000,17076.000000,52615.000000
24326.000000,15953.000000,17055.000000,52640.000000
24321.000000,15802.000000,17204.000000,52521.000000
24442.000000,15712.000000,17110.000000,52667.000000
24210.000000,15894.000000,17053.000000,52552.000000
24263.000000,15712.000000,17179.000000,52530.000000
24325.000000,15773.000000,17034.000000,52627.000000
24166.000000,15856.000000,17060.000000,52493.000000
24364.000000,15686.000000,17158.000000,52572.000000
24254.000000,15764.000000,16951.000000,52616.000000
24152.000000,15704.000000,17154.000000,52471.000000
24291.000000,15677.000000,17085.000000,52536.000000
24237.000000,15804.000000,16920.000000,52612.000000
24094.000000,15784.000000,17027.000000,52413.000000
24297.000000,15588.000000,17014.000000,52507.000000
24179.000000,15786.000000,16892.000000,52557.000000
24113.000000,15702.000000,16977.000000,52372.000000
24224.000000,15597.000000,16967.000000,52557.000000
24184.000000,15780.000000,16858.000000,52531.000000
24179.000000,15609.000000,16968.000000,52445.000000
24153.000000,15620.000000,16933.000000,52462.000000
24078.000000,15640.000000,16926.000000,52427.000000
24129.000000,15645.000000,16935.000000,52349.000000
24118.000000,15681.000000,16836.000000,52444.000000
24034.000000,15700.000000,16894.000000,52385.000000
24149.000000,15555.000000,16838.000000,52459.000000
24000.000000,15650.000000,16819.000000,52407.000000
24042.000000,15590.000000,16890.000000,52331.000000
24130.000000,15550.000000,16881.000000,52351.000000
24003.000000,15657.000000,16726.000000,52465.000000
24020.000000,15559.000000,16862.000000,52333.000000
24094.000000,15542.000000,16791.000000,52408.000000
23970.000000,15612.000000,16784.000000,52375.000000
24033.000000,15473.000000,16815.000000,52392.000000
24001.000000,15552.000000,16769.000000,52352.000000
23963.000000,15543.000000,16802.000000,52383.000000
23952.000000,15540.000000,16757.000000,52354.000000
24013.000000,15522.000000,16700.000000,52353.000000
23884.000000,15553.000000,16672.000000,52319.000000
