660nm,730nm,850nm,940nm
7183.000000,17417.000000,12254.000000,51607.000000
7168.000000,17412.000000,12230.000000,51592.000000
7161.000000,17395.000000,12211.000000,51583.000000
7123.000000,17400.000000,12219.000000,51543.000000
7139.000000,17401.000000,12205.000000,51578.000000
7127.000000,17372.000000,12178.000000,51560.000000
7116.000000,17371.000000,12167.000000,51539.000000
7099.000000,17335.000000,12179.000000,51543.000000
7111.000000,17377.000000,12189.000000,51552.000000
7088.000000,17361.000000,12153.000000,51552.000000
7091.000000,17356.000000,12160.000000,51533.000000
7069.000000,17327.000000,12136.000000,51519.000000
7067.000000,17360.000000,12133.000000,51533.000000
7075.000000,17324.000000,12102.000000,51515.000000
7060.000000,17336.000000,12113.000000,51499.000000
7066.000000,17319.000000,12090.000000,51502.000000
7049.000000,17319.000000,12090.000000,51523.000000
7030.000000,17317.000000,12058.000000,51491.000000
7018.000000,17328.000000,12069.000000,51483.000000
7032.000000,17281.000000,12054.000000,51480.000000
6981.000000,17268.000000,12052.000000,51473.000000
6985.000000,17280.000000,12034.000000,51471.000000
6981.000000,17291.000000,12004.000000,51487.000000
6989.000000,17304.000000,12007.000000,51474.000000
6950.000000,17261.000000,12013.000000,51447.000000
6957.000000,17244.000000,12010.000000,51429.000000
6972.000000,17227.000000,11971.000000,51447.000000
6933.000000,17199.000000,11938.000000,51433.000000
6894.000000,17244.000000,11977.000000,51408.000000
6882.000000,17195.000000,11947.000000,51432.000000
6900.000000,17207.000000,11925.000000,51396.000000
6884.000000,17209.000000,11939.000000,51362.000000
6890.000000,17205.000000,11893.000000,51384.000000
6846.000000,17159.000000,11876.000000,51381.000000
6853.000000,17167.000000,11884.000000,51359.000000
6822.000000,17148.000000,11867.000000,51366.000000
7073.000000,17155.000000,11880.000000,51376.000000
6834.000000,17151.000000,11835.000000,51345.000000
6827.000000,17127.000000,11845.000000,51352.000000
6814.000000,17110.000000,11846.000000,51361.000000
6788.000000,17115.000000,11817.000000,51355.000000
6790.000000,17125.000000,11775.000000,51342.000000
6785.000000,17117.000000,11791.000000,51329.000000
6751.000000,17107.000000,11763.000000,51301.000000
6762.000000,17107.000000,11770.000000,51322.000000
6738.000000,17049.000000,11760.000000,51289.000000
6718.000000,17064.000000,11738.000000,51277.000000
6710.000000,17012.000000,11738.000000,51276.000000
6692.000000,17035.000000,11700.000000,51291.000000
6675.000000,17046.000000,11669.000000,51272.000000
6636.000000,17028.000000,11649.000000,51250.000000
6633.000000,17027.000000,11645.000000,51257.000000
6636.000000,17000.000000,11647.000000,51232.000000
6602.000000,16993.000000,11611.000000,51214.000000
6611.000000,16975.000000,11616.000000,51218.000000
6601.000000,16969.000000,11560.000000,51245.000000
6573.000000,16972.000000,11577.000000,51196.000000
6577.000000,16977.000000,11554.000000,51207.000000
6588.000000,16959.000000,11546.000000,51201.000000
6583.000000,16934.000000,11519.000000,51169.000000
6553.000000,16915.000000,11511.000000,51177.000000
6500.000000,16907.000000,11524.000000,51197.000000
6478.000000,16877.000000,11462.000000,51131.000000
6482.000000,16891.000000,11447.000000,51159.000000
6480.000000,16900.000000,11418.000000,51161.000000
6469.000000,16879.000000,11477.000000,51151.000000
6442.000000,16831.000000,11423.000000,51079.000000
6437.000000,16879.000000,11396.000000,51105.000000
6405.000000,16865.000000,11385.000000,51084.000000
6412.000000,16848.000000,11365.000000,51079.000000
6421.000000,16804.000000,11364.000000,51049.000000
6367.000000,16808.000000,11350.000000,51095.000000
6358.000000,16787.000000,11312.000000,51060.000000
6346.000000,16808.000000,11305.000000,51105.000000
6366.000000,16779.000000,11307.000000,51053.000000
6332.000000,16788.000000,11309.000000,51028.000000
6338.000000,16752.000000,11229.000000,51059.000000
6313.000000,16752.000000,11263.000000,51023.000000
6283.000000,16749.000000,11215.000000,51027.000000
6271.000000,16717.000000,11215.000000,51025.000000
6233.000000,16699.000000,11171.000000,50996.000000
6203.000000,16699.000000,11164.000000,50969.000000
6194.000000,16681.000000,11128.000000,50985.000000
6167.000000,16675.000000,11117.000000,50944.000000
6165.000000,16635.000000,11128.000000,50936.000000
6136.000000,16685.000000,11064.000000,50909.000000
6065.000000,16600.000000,11018.000000,50909.000000
6069.000000,16591.000000,11009.000000,50865.000000
6016.000000,16577.000000,10963.000000,50865.000000
6028.000000,16584.000000,10963.000000,50833.000000
6012.000000,16538.000000,10944.000000,50865.000000
5997.000000,16565.000000,10952.000000,50843.000000
5988.000000,16552.000000,10948.000000,50832.000000
6013.000000,16563.000000,10910.000000,50842.000000
5987.000000,16529.000000,10915.000000,50843.000000
5967.000000,16547.000000,10908.000000,50837.000000
6028.000000,16548.000000,10921.000000,50867.000000
6007.000000,16567.000000,10949.000000,50839.000000
6030.000000,16561.000000,10939.000000,50852.000000
6059.000000,16573.000000,10938.000000,50843.000000
6041.000000,16588.000000,10976.000000,50909.000000
6085.000000,16585.000000,10986.000000,50880.000000
6067.000000,16565.000000,11006.000000,50919.000000
6107.000000,16580.000000,11016.000000,50888.000000
6097.000000,16615.000000,11026.000000,50880.000000
6101.000000,16605.000000,11057.000000,50886.000000
6125.000000,16639.000000,11040.000000,50922.000000
6128.000000,16659.000000,11085.000000,50944.000000
6200.000000,16691.000000,11126.000000,50977.000000
6216.000000,16691.000000,11157.000000,50995.000000
6252.000000,16716.000000,11222.000000,50999.000000
6261.000000,16739.000000,11236.000000,51023.000000
6320.000000,16789.000000,11289.000000,51036.000000
6348.000000,16787.000000,11346.000000,51071.000000
6380.000000,16847.000000,11372.000000,51091.000000
6432.000000,16873.000000,11415.000000,51136.000000
6492.000000,16888.000000,11478.000000,51157.000000
6549.000000,16949.000000,11543.000000,51218.000000
6587.000000,16980.000000,11633.000000,51275.000000
6657.000000,17048.000000,11667.000000,51281.000000
6705.000000,17089.000000,11765.000000,51358.000000
6812.000000,17128.000000,11863.000000,51356.000000
6843.000000,17177.000000,11916.000000,51420.000000
6943.000000,17247.000000,12029.000000,51484.000000
7054.000000,17340.000000,12092.000000,51521.000000
7110.000000,17375.000000,12184.000000,51561.000000
7176.000000,17410.000000,12247.000000,51630.000000
7233.000000,17461.000000,12312.000000,51648.000000
7295.000000,17493.000000,12343.000000,51645.000000
7298.000000,17532.000000,12396.000000,51696.000000
7321.000000,17544.000000,12407.000000,51688.000000
7343.000000,17562.000000,12453.000000,51714.000000
7363.000000,17533.000000,12455.000000,51697.000000
7319.000000,17573.000000,12430.000000,51704.000000
7302.000000,17556.000000,12433.000000,51689.000000
7327.000000,17545.000000,12416.000000,51685.000000
7339.000000,17530.000000,12449.000000,51683.000000
7312.000000,17528.000000,12401.000000,51685.000000
7291.000000,17542.000000,12414.000000,51694.000000
7256.000000,17514.000000,12371.000000,51671.000000
7280.000000,17520.000000,12383.000000,51680.000000
7269.000000,17487.000000,12346.000000,51643.000000
7273.000000,17483.000000,12355.000000,51657.000000
7232.000000,17477.000000,12314.000000,51620.000000
7229.000000,17471.000000,12313.000000,51613.000000
7227.000000,17475.000000,12317.000000,51645.000000
7230.000000,17481.000000,12291.000000,51634.000000
7188.000000,17448.000000,12291.000000,51615.000000
7189.000000,17464.000000,12298.000000,51616.000000
7186.000000,17420.000000,12261.000000,51611.000000
7206.000000,17473.000000,12275.000000,51619.000000
7173.000000,17424.000000,12205.000000,51603.000000
7145.000000,17429.000000,12237.000000,51599.000000
7164.000000,17416.000000,12228.000000,51551.000000
7139.000000,17399.000000,12212.000000,51563.000000
7127.000000,17414.000000,12184.000000,51589.000000
7131.000000,17400.000000,12187.000000,51536.000000
7110.000000,17401.000000,12200.000000,51559.000000
7108.000000,17389.000000,12190.000000,51569.000000
7087.000000,17381.000000,12149.000000,51555.000000
7071.000000,17355.000000,12161.000000,51527.000000
7089.000000,17392.000000,12132.000000,51535.000000
7058.000000,17355.000000,12128.000000,51547.000000
7063.000000,17332.000000,12106.000000,51509.000000
7025.000000,17320.000000,12106.000000,51511.000000
7031.000000,17327.000000,12107.000000,51515.000000
7035.000000,17331.000000,12059.000000,51519.000000
6996.000000,17321.000000,12057.000000,51471.000000
6992.000000,17284.000000,12035.000000,51442.000000
6978.000000,17297.000000,12048.000000,51471.000000
6980.000000,17285.000000,12027.000000,51447.000000
6956.000000,17261.000000,11979.000000,51467.000000
6960.000000,17259.000000,11977.000000,51453.000000
6930.000000,17256.000000,11967.000000,51469.000000
6891.000000,17261.000000,11980.000000,51450.000000
6915.000000,17228.000000,11937.000000,51426.000000
6889.000000,17215.000000,11936.000000,51420.000000
6877.000000,17196.000000,11975.000000,51406.000000
6842.000000,17191.000000,11894.000000,51423.000000
6849.000000,17175.000000,11892.000000,51380.000000
6862.000000,17201.000000,11876.000000,51371.000000
6812.000000,17188.000000,11870.000000,51386.000000
6831.000000,17135.000000,11869.000000,51380.000000
6800.000000,17155.000000,11842.000000,51337.000000
6794.000000,17175.000000,11850.000000,51355.000000
6791.000000,17135.000000,12064.000000,51326.000000
6777.000000,17119.000000,11794.000000,51359.000000
6753.000000,17098.000000,11766.000000,51324.000000
6756.000000,17144.000000,11767.000000,51325.000000
6708.000000,17356.000000,11746.000000,51331.000000
6726.000000,17089.000000,11732.000000,51295.000000
6691.000000,17099.000000,11716.000000,51282.000000
6727.000000,17080.000000,11719.000000,51295.000000
6637.000000,17312.000000,11673.000000,51262.000000
6647.000000,17037.000000,11666.000000,51234.000000
6629.000000,17035.000000,11648.000000,51245.000000
6602.000000,17017.000000,11636.000000,51227.000000
6601.000000,17001.000000,11623.000000,51233.000000
6600.000000,16959.000000,11596.000000,51217.000000
6581.000000,16987.000000,11572.000000,51229.000000
6540.000000,16993.000000,11558.000000,51200.000000
6543.000000,16965.000000,11544.000000,51173.000000
6504.000000,16933.000000,11520.000000,51170.000000
6491.000000,17185.000000,11506.000000,51181.000000
6511.000000,16932.000000,11490.000000,51173.000000
6465.000000,16893.000000,11466.000000,51141.000000
6480.000000,16909.000000,11478.000000,51149.000000
6463.000000,16898.000000,11421.000000,51138.000000
6429.000000,16910.000000,11444.000000,51124.000000
6426.000000,16913.000000,11420.000000,51130.000000
6405.000000,16858.000000,11383.000000,51074.000000
6394.000000,16849.000000,11406.000000,51101.000000
6373.000000,16841.000000,11336.000000,51073.000000
6367.000000,16839.000000,11345.000000,51051.000000
6332.000000,16776.000000,11329.000000,51043.000000
6342.000000,16787.000000,11285.000000,51055.000000
6301.000000,16767.000000,11262.000000,51031.000000
6281.000000,16776.000000,11245.000000,51023.000000
6244.000000,16755.000000,11183.000000,51001.000000
6246.000000,16752.000000,11182.000000,50997.000000
6186.000000,16700.000000,11127.000000,50967.000000
6164.000000,16681.000000,11100.000000,50949.000000
6161.000000,16647.000000,11096.000000,50908.000000
6113.000000,16643.000000,11034.000000,50918.000000
6066.000000,16621.000000,11005.000000,50902.000000
6039.000000,16596.000000,11011.000000,50883.000000
6043.000000,16586.000000,10967.000000,50877.000000
6059.000000,16567.000000,10934.000000,50860.000000
5999.000000,16538.000000,10929.000000,50869.000000
5988.000000,16534.000000,10931.000000,50839.000000
5996.000000,16545.000000,10910.000000,50845.000000
5982.000000,16546.000000,10893.000000,50831.000000
5975.000000,16541.000000,10930.000000,50822.000000
5968.000000,16550.000000,10901.000000,50850.000000
5998.000000,16548.000000,10924.000000,50843.000000
5991.000000,16563.000000,10959.000000,50844.000000
6005.000000,16548.000000,10917.000000,50823.000000
6007.000000,16572.000000,10943.000000,50878.000000
6033.000000,16604.000000,10968.000000,50883.000000
6011.000000,16596.000000,10971.000000,50885.000000
6034.000000,16579.000000,10979.000000,50882.000000
6048.000000,16587.000000,10990.000000,50902.000000
6069.000000,16624.000000,10997.000000,50924.000000
6111.000000,16643.000000,11030.000000,50925.000000
6117.000000,16630.000000,11052.000000,51171.000000
6120.000000,16649.000000,11083.000000,50918.000000
6144.000000,16673.000000,11124.000000,50969.000000
6210.000000,16687.000000,11121.000000,50969.000000
6226.000000,16717.000000,11168.000000,50984.000000
6237.000000,16725.000000,11213.000000,51017.000000
6279.000000,16760.000000,11276.000000,51035.000000
6317.000000,16801.000000,11273.000000,51068.000000
6359.000000,16819.000000,11335.000000,51077.000000
6420.000000,16877.000000,11394.000000,51100.000000
6461.000000,17164.000000,11466.000000,51146.000000
6491.000000,17211.000000,11513.000000,51186.000000
6533.000000,16957.000000,11575.000000,51226.000000
6628.000000,17007.000000,11641.000000,51245.000000
6685.000000,17066.000000,11717.000000,51306.000000
6725.000000,17083.000000,11782.000000,51350.000000
6817.000000,17159.000000,11888.000000,51391.000000
6919.000000,17211.000000,11950.000000,51432.000000
6956.000000,17299.000000,12030.000000,51491.000000
7037.000000,17340.000000,12097.000000,51543.000000
7094.000000,17341.000000,12160.000000,51571.000000
7119.000000,17403.000000,12243.000000,51573.000000
7186.000000,17444.000000,12259.000000,51631.000000
7202.000000,17437.000000,12297.000000,51619.000000
7252.000000,17467.000000,12306.000000,51623.000000
7247.000000,17490.000000,12321.000000,51645.000000
7248.000000,17504.000000,12322.000000,51631.000000
7206.000000,17452.000000,12284.000000,51645.000000
7243.000000,17491.000000,12312.000000,51627.000000
7193.000000,17489.000000,12282.000000,51649.000000
7212.000000,17443.000000,12285.000000,51604.000000
7206.000000,17432.000000,12268.000000,51616.000000
7180.000000,17443.000000,12274.000000,51616.000000
7150.000000,17434.000000,12260.000000,51594.000000
7147.000000,17436.000000,12242.000000,51601.000000
7122.000000,17405.000000,12239.000000,51599.000000
7151.000000,17412.000000,12192.000000,51572.000000
7115.000000,17417.000000,12198.000000,51587.000000
7083.000000,17439.000000,12192.000000,51567.000000
7126.000000,17405.000000,12208.000000,51569.000000
7111.000000,17384.000000,12174.000000,51556.000000
7087.000000,17376.000000,12155.000000,51575.000000
7069.000000,17375.000000,12145.000000,51543.000000
7033.000000,17377.000000,12142.000000,51523.000000
7075.000000,17339.000000,12147.000000,51563.000000
7049.000000,17357.000000,12112.000000,51528.000000
7080.000000,17339.000000,12100.000000,51517.000000
7081.000000,17356.000000,12117.000000,51523.000000
7029.000000,17349.000000,12094.000000,51513.000000
7058.000000,17335.000000,12076.000000,51501.000000
7002.000000,17307.000000,12088.000000,51505.000000
7005.000000,17313.000000,12058.000000,51520.000000
6977.000000,17291.000000,12050.000000,51492.000000
7003.000000,17285.000000,12024.000000,51475.000000
6985.000000,17279.000000,12018.000000,51461.000000
6948.000000,17283.000000,12040.000000,51487.000000
6913.000000,17288.000000,11980.000000,51452.000000
6946.000000,17247.000000,11970.000000,51443.000000
6920.000000,17271.000000,12002.000000,51440.000000
6902.000000,17229.000000,11955.000000,51437.000000
6891.000000,17208.000000,11932.000000,51441.000000
6842.000000,17197.000000,11918.000000,51405.000000
6882.000000,17231.000000,11917.000000,51400.000000
6860.000000,17191.000000,11904.000000,51385.000000
6843.000000,17189.000000,11879.000000,51394.000000
6873.000000,17181.000000,11864.000000,51385.000000
6822.000000,17156.000000,11829.000000,51393.000000
6823.000000,17403.000000,11825.000000,51399.000000
6791.000000,17157.000000,11823.000000,51372.000000
6757.000000,17144.000000,11824.000000,51334.000000
6760.000000,17140.000000,11797.000000,51345.000000
6767.000000,17133.000000,11779.000000,51328.000000
6745.000000,17098.000000,11773.000000,51343.000000
6726.000000,17137.000000,11751.000000,51332.000000
6732.000000,17089.000000,11745.000000,51349.000000
6757.000000,17079.000000,11722.000000,51310.000000
6980.000000,17065.000000,11749.000000,51334.000000
6685.000000,17093.000000,11707.000000,51284.000000
6692.000000,17081.000000,11711.000000,51299.000000
6679.000000,17051.000000,11680.000000,51274.000000
6686.000000,17325.000000,11658.000000,51280.000000
6660.000000,17045.000000,11627.000000,51280.000000
6633.000000,17012.000000,11626.000000,51252.000000
6607.000000,17024.000000,11619.000000,51274.000000
6630.000000,17013.000000,11614.000000,51250.000000
6616.000000,17269.000000,11609.000000,51238.000000
6603.000000,17005.000000,11565.000000,51217.000000
6592.000000,16979.000000,11576.000000,51222.000000
6559.000000,16983.000000,11519.000000,51212.000000
6544.000000,16942.000000,11538.000000,51219.000000
6544.000000,16981.000000,11529.000000,51180.000000
6521.000000,17239.000000,11492.000000,51179.000000
6519.000000,16937.000000,11504.000000,51165.000000
6471.000000,16941.000000,11466.000000,51157.000000
6495.000000,16923.000000,11456.000000,51144.000000
6413.000000,16927.000000,11423.000000,51115.000000
6419.000000,16859.000000,11415.000000,51144.000000
6458.000000,16876.000000,11387.000000,51143.000000
6417.000000,16863.000000,11387.000000,51108.000000
6392.000000,16883.000000,11380.000000,51107.000000
6384.000000,16825.000000,11341.000000,51096.000000
6365.000000,16816.000000,11325.000000,51119.000000
6363.000000,16835.000000,11309.000000,51087.000000
6341.000000,16823.000000,11307.000000,51067.000000
6333.000000,16849.000000,11284.000000,51058.000000
6323.000000,16799.000000,11274.000000,51024.000000
6308.000000,16788.000000,11251.000000,51039.000000
6286.000000,16788.000000,11223.000000,51033.000000
6232.000000,16744.000000,11232.000000,51028.000000
6254.000000,16725.000000,11193.000000,50985.000000
6251.000000,16724.000000,11179.000000,51023.000000
6176.000000,16697.000000,11130.000000,50971.000000
6192.000000,16675.000000,11109.000000,50947.000000
6171.000000,16671.000000,11091.000000,50941.000000
6125.000000,16677.000000,11068.000000,50941.000000
6103.000000,16628.000000,11027.000000,50892.000000
6063.000000,16621.000000,11005.000000,50889.000000
6027.000000,16600.000000,10993.000000,50897.000000
6008.000000,16606.000000,10971.000000,50870.000000
6017.000000,16593.000000,10962.000000,50884.000000
5984.000000,16536.000000,10879.000000,50838.000000
5970.000000,16547.000000,10907.000000,50832.000000
5982.000000,16566.000000,10878.000000,50817.000000
5949.000000,16568.000000,10882.000000,50822.000000
5944.000000,16546.000000,10876.000000,50868.000000
5952.000000,16556.000000,10875.000000,50821.000000
5953.000000,16516.000000,10873.000000,50823.000000
5989.000000,16528.000000,10888.000000,50838.000000
5994.000000,16534.000000,10894.000000,50817.000000
5978.000000,16540.000000,10917.000000,50837.000000
5979.000000,16563.000000,10910.000000,50849.000000
5994.000000,16576.000000,10907.000000,50853.000000
5994.000000,16538.000000,11187.000000,50868.000000
6011.000000,16586.000000,10925.000000,50871.000000
6049.000000,16578.000000,11009.000000,50896.000000
6052.000000,16572.000000,10992.000000,50924.000000
6077.000000,16596.000000,11007.000000,50892.000000
6097.000000,16655.000000,11048.000000,50939.000000
6105.000000,16648.000000,11047.000000,50911.000000
6129.000000,16656.000000,11095.000000,50972.000000
6168.000000,16693.000000,11124.000000,50976.000000
6224.000000,16745.000000,11172.000000,50993.000000
6215.000000,16741.000000,11204.000000,51005.000000
6252.000000,16769.000000,11265.000000,51073.000000
6294.000000,16783.000000,11317.000000,51082.000000
6314.000000,16851.000000,11351.000000,51099.000000
6351.000000,16853.000000,11383.000000,51147.000000
6420.000000,16924.000000,11443.000000,51197.000000
6450.000000,16911.000000,11493.000000,51171.000000
6523.000000,16959.000000,11536.000000,51213.000000
6588.000000,17027.000000,11624.000000,51262.000000
6650.000000,17067.000000,11670.000000,51310.000000
6707.000000,17101.000000,11750.000000,51350.000000
6800.000000,17138.000000,11826.000000,51372.000000
6831.000000,17227.000000,11947.000000,51447.000000
6954.000000,17279.000000,11995.000000,51477.000000
7005.000000,17325.000000,12092.000000,51523.000000
7090.000000,17379.000000,12166.000000,51559.000000
7143.000000,17471.000000,12224.000000,51592.000000
7189.000000,17481.000000,12298.000000,51613.000000
7221.000000,17480.000000,12323.000000,51649.000000
7274.000000,17533.000000,12356.000000,51644.000000
7284.000000,17549.000000,12396.000000,51697.000000
7291.000000,17545.000000,12388.000000,51661.000000
7288.000000,17549.000000,12385.000000,51673.000000
7294.000000,17519.000000,12376.000000,51672.000000
7261.000000,17540.000000,12356.000000,51675.000000
7238.000000,17515.000000,12349.000000,51675.000000
7225.000000,17511.000000,12329.000000,51640.000000
7222.000000,17504.000000,12282.000000,51651.000000
7211.000000,17492.000000,12339.000000,51639.000000
7212.000000,17490.000000,12315.000000,51639.000000
7179.000000,17446.000000,12248.000000,51651.000000
7179.000000,17443.000000,12247.000000,51606.000000
7147.000000,17438.000000,12250.000000,51603.000000
7152.000000,17427.000000,12218.000000,51589.000000
7134.000000,17438.000000,12225.000000,51586.000000
7100.000000,17388.000000,12191.000000,51591.000000
7100.000000,17393.000000,12158.000000,51581.000000
7088.000000,17373.000000,12144.000000,51538.000000
7088.000000,17409.000000,12124.000000,51543.000000
7056.000000,17372.000000,12146.000000,51544.000000
7032.000000,17355.000000,12140.000000,51555.000000
7014.000000,17372.000000,12112.000000,51524.000000
7034.000000,17349.000000,12103.000000,51527.000000
7029.000000,17340.000000,12065.000000,51519.000000
7050.000000,17345.000000,12084.000000,51511.000000
6999.000000,17313.000000,12054.000000,51500.000000
6967.000000,17317.000000,12041.000000,51469.000000
6954.000000,17307.000000,12038.000000,51499.000000
6943.000000,17281.000000,12006.000000,51481.000000
6916.000000,17300.000000,11973.000000,51437.000000
6969.000000,17301.000000,11981.000000,51464.000000
6909.000000,17273.000000,11971.000000,51442.000000
6938.000000,17224.000000,11944.000000,51431.000000
6907.000000,17247.000000,11936.000000,51439.000000
6902.000000,17247.000000,11939.000000,51391.000000
6910.000000,17215.000000,11922.000000,51413.000000
6881.000000,17199.000000,11909.000000,51431.000000
6857.000000,17207.000000,11900.000000,51399.000000
6807.000000,17195.000000,11887.000000,51413.000000
6828.000000,17221.000000,11863.000000,51372.000000
6812.000000,17195.000000,11863.000000,51390.000000
6780.000000,17165.000000,11826.000000,51384.000000
6791.000000,17152.000000,11831.000000,51379.000000
6767.000000,17180.000000,11814.000000,51334.000000
6762.000000,17116.000000,11806.000000,51345.000000
6725.000000,17127.000000,11792.000000,51333.000000
6721.000000,17097.000000,11748.000000,51334.000000
6704.000000,17368.000000,11755.000000,51319.000000
6688.000000,17098.000000,11700.000000,51290.000000
6692.000000,17080.000000,11731.000000,51308.000000
6653.000000,17073.000000,11667.000000,51283.000000
6638.000000,17036.000000,11655.000000,51268.000000
6657.000000,17045.000000,11642.000000,51274.000000
6630.000000,17020.000000,11665.000000,51264.000000
6570.000000,17039.000000,11618.000000,51246.000000
6607.000000,17009.000000,11613.000000,51251.000000
6564.000000,16997.000000,11595.000000,51199.000000
6565.000000,16992.000000,11568.000000,51200.000000
6559.000000,16956.000000,11543.000000,51189.000000
6534.000000,16969.000000,11512.000000,51205.000000
6490.000000,17220.000000,11520.000000,51175.000000
6504.000000,16931.000000,11483.000000,51156.000000
6488.000000,16908.000000,11479.000000,51164.000000
6475.000000,17153.000000,11439.000000,51162.000000
6472.000000,16904.000000,11435.000000,51137.000000
6415.000000,16879.000000,11394.000000,51108.000000
6429.000000,16895.000000,11397.000000,51107.000000
6397.000000,16829.000000,11384.000000,51085.000000
6401.000000,16848.000000,11363.000000,51076.000000
6390.000000,16819.000000,11310.000000,51091.000000
6360.000000,16835.000000,11337.000000,51087.000000
6359.000000,16820.000000,11316.000000,51067.000000
6339.000000,16791.000000,11307.000000,51059.000000
6348.000000,16811.000000,11272.000000,51055.000000
6296.000000,16753.000000,11228.000000,51065.000000
6280.000000,16803.000000,11263.000000,51034.000000
6278.000000,16759.000000,11209.000000,51015.000000
6266.000000,16759.000000,11187.000000,51011.000000
6233.000000,16771.000000,11208.000000,50999.000000
6229.000000,16749.000000,11159.000000,50970.000000
6222.000000,16731.000000,11139.000000,50983.000000
6190.000000,16725.000000,11109.000000,50967.000000
6143.000000,16687.000000,11116.000000,50947.000000
6179.000000,16687.000000,11120.000000,50947.000000
6165.000000,16699.000000,11082.000000,50930.000000
6126.000000,16669.000000,11032.000000,50917.000000
6135.000000,16664.000000,11033.000000,50909.000000
6115.000000,16643.000000,11031.000000,50904.000000
6064.000000,16628.000000,11024.000000,50903.000000
6058.000000,16621.000000,10953.000000,50894.000000
6046.000000,16575.000000,10938.000000,50877.000000
6055.000000,16601.000000,10937.000000,50842.000000
6039.000000,16567.000000,10933.000000,50861.000000
6009.000000,16581.000000,10919.000000,51099.000000
5955.000000,16572.000000,10913.000000,50854.000000
5980.000000,16526.000000,10859.000000,50827.000000
5960.000000,16527.000000,10863.000000,50822.000000
5957.000000,16515.000000,10877.000000,50833.000000
5980.000000,16552.000000,10861.000000,50826.000000
5933.000000,16490.000000,10850.000000,50807.000000
5935.000000,16507.000000,10860.000000,50799.000000
5945.000000,16495.000000,10865.000000,50806.000000
5913.000000,16536.000000,10860.000000,50820.000000
5944.000000,16525.000000,10877.000000,50826.000000
5939.000000,16544.000000,10877.000000,50815.000000
5949.000000,16514.000000,10885.000000,50819.000000
5980.000000,16555.000000,10916.000000,50857.000000
5995.000000,16535.000000,10904.000000,50838.000000
5991.000000,16580.000000,10957.000000,50859.000000
6013.000000,16582.000000,10951.000000,50857.000000
6030.000000,16556.000000,10968.000000,50902.000000
6089.000000,16623.000000,11016.000000,50892.000000
6076.000000,16669.000000,11011.000000,50914.000000
6130.000000,16673.000000,11026.000000,50932.000000
6138.000000,16711.000000,11089.000000,50933.000000
6165.000000,16723.000000,11128.000000,50977.000000
6189.000000,16713.000000,11161.000000,51007.000000
6244.000000,16743.000000,11188.000000,51028.000000
6258.000000,16815.000000,11259.000000,51066.000000
6325.000000,16827.000000,11301.000000,51111.000000
6385.000000,16873.000000,11316.000000,51132.000000
6392.000000,16859.000000,11414.000000,51143.000000
6441.000000,17152.000000,11468.000000,51187.000000
6501.000000,17203.000000,11515.000000,51192.000000
6537.000000,16982.000000,11561.000000,51233.000000
6637.000000,17033.000000,11668.000000,51265.000000
6705.000000,17082.000000,11739.000000,51325.000000
6741.000000,17151.000000,11813.000000,51369.000000
6844.000000,17205.000000,11851.000000,51441.000000
6879.000000,17228.000000,11964.000000,51460.000000
6998.000000,17320.000000,12051.000000,51519.000000
7082.000000,17379.000000,12115.000000,51563.000000
7114.000000,17391.000000,12187.000000,51561.000000
7197.000000,17467.000000,12277.000000,51634.000000
7244.000000,17491.000000,12328.000000,51689.000000
7305.000000,17516.000000,12371.000000,51679.000000
7302.000000,17525.000000,12402.000000,51717.000000
7330.000000,17579.000000,12411.000000,51750.000000
7332.000000,17586.000000,12415.000000,51711.000000
7329.000000,17564.000000,12414.000000,51695.000000
7344.000000,17589.000000,12430.000000,51722.000000
7333.000000,17584.000000,12417.000000,51706.000000
7308.000000,17557.000000,12404.000000,51711.000000
7349.000000,17576.000000,12441.000000,51718.000000
7311.000000,17575.000000,12447.000000,51695.000000
7291.000000,17567.000000,12412.000000,51711.000000
7292.000000,17516.000000,12398.000000,51681.000000
7290.000000,17541.000000,12380.000000,51676.000000
7282.000000,17555.000000,12386.000000,51669.000000
7269.000000,17535.000000,12334.000000,51677.000000
7231.000000,17505.000000,12333.000000,51663.000000
7266.000000,17541.000000,12336.000000,51674.000000
7258.000000,17490.000000,12315.000000,51663.000000
7242.000000,17520.000000,12333.000000,51661.000000
7241.000000,17473.000000,12315.000000,51641.000000
7217.000000,17499.000000,12308.000000,51647.000000
7186.000000,17487.000000,12268.000000,51636.000000
7198.000000,17495.000000,12295.000000,51631.000000
7197.000000,17459.000000,12291.000000,51628.000000
7188.000000,17462.000000,12282.000000,51619.000000
7198.000000,17471.000000,12259.000000,51601.000000
7177.000000,17442.000000,12220.000000,51583.000000
7145.000000,17461.000000,12248.000000,51604.000000
7154.000000,17445.000000,12189.000000,51560.000000
7105.000000,17414.000000,12200.000000,51595.000000
7135.000000,17419.000000,12194.000000,51569.000000
7094.000000,17417.000000,12181.000000,51569.000000
7114.000000,17415.000000,12170.000000,51579.000000
7078.000000,17371.000000,12162.000000,51557.000000
7086.000000,17400.000000,12132.000000,51556.000000
7072.000000,17375.000000,12121.000000,51561.000000
7073.000000,17367.000000,12132.000000,51523.000000
7050.000000,17359.000000,12083.000000,51525.000000
7037.000000,17360.000000,12109.000000,51539.000000
6995.000000,17304.000000,12067.000000,51497.000000
6990.000000,17320.000000,12056.000000,51487.000000
6992.000000,17337.000000,12045.000000,51499.000000
6970.000000,17320.000000,12028.000000,51472.000000
6984.000000,17296.000000,12026.000000,51484.000000
6958.000000,17284.000000,12017.000000,51464.000000
6917.000000,17293.000000,12003.000000,51467.000000
6944.000000,17251.000000,11973.000000,51455.000000
6910.000000,17267.000000,11960.000000,51439.000000
6907.000000,17259.000000,11940.000000,51447.000000
6878.000000,17237.000000,11946.000000,51420.000000
6868.000000,17248.000000,11938.000000,51403.000000
6839.000000,17191.000000,11897.000000,51384.000000
6830.000000,17220.000000,11916.000000,51386.000000
6816.000000,17187.000000,11848.000000,51407.000000
6809.000000,17197.000000,11808.000000,51367.000000
6779.000000,17144.000000,11803.000000,51344.000000
6792.000000,17157.000000,11791.000000,51341.000000
6744.000000,17150.000000,11762.000000,51363.000000
6753.000000,17136.000000,11772.000000,51332.000000
6735.000000,17362.000000,11743.000000,51337.000000
6716.000000,17132.000000,11731.000000,51343.000000
6688.000000,17130.000000,11732.000000,51318.000000
6676.000000,17089.000000,11710.000000,51294.000000
6687.000000,17076.000000,11667.000000,51289.000000
6664.000000,17056.000000,11677.000000,51290.000000
6655.000000,17080.000000,11652.000000,51269.000000
6639.000000,17064.000000,11644.000000,51248.000000
6620.000000,17028.000000,11589.000000,51260.000000
6611.000000,17021.000000,11615.000000,51261.000000
6598.000000,17035.000000,11588.000000,51253.000000
6588.000000,16986.000000,11586.000000,51243.000000
6607.000000,16993.000000,11554.000000,51203.000000
6573.000000,17016.000000,11541.000000,51199.000000
6533.000000,17212.000000,11531.000000,51180.000000
6519.000000,16961.000000,11515.000000,51195.000000
6511.000000,17197.000000,11486.000000,51191.000000
6477.000000,16936.000000,11458.000000,51180.000000
6479.000000,16971.000000,11466.000000,51153.000000
6475.000000,16940.000000,11445.000000,51131.000000
6500.000000,16899.000000,11447.000000,51153.000000
6444.000000,16916.000000,11402.000000,51139.000000
6452.000000,16861.000000,11371.000000,51123.000000
6428.000000,16903.000000,11399.000000,51127.000000
6391.000000,16859.000000,11358.000000,51115.000000
6365.000000,16848.000000,11340.000000,51099.000000
6364.000000,16812.000000,11321.000000,51087.000000
6341.000000,16815.000000,11303.000000,51073.000000
6339.000000,16833.000000,11279.000000,51075.000000
6311.000000,16816.000000,11254.000000,51072.000000
6304.000000,16779.000000,11230.000000,51027.000000
6259.000000,16773.000000,11213.000000,51049.000000
6213.000000,16737.000000,11170.000000,51023.000000
6189.000000,16720.000000,11136.000000,50983.000000
6189.000000,16680.000000,11117.000000,50970.000000
6112.000000,16708.000000,11087.000000,50961.000000
6145.000000,16667.000000,11074.000000,50963.000000
6100.000000,16660.000000,11039.000000,50939.000000
6098.000000,16664.000000,11031.000000,50936.000000
6089.000000,16675.000000,10999.000000,50929.000000
6088.000000,16634.000000,10984.000000,50897.000000
6086.000000,16644.000000,11020.000000,50900.000000
6060.000000,16627.000000,10994.000000,50899.000000
6048.000000,16617.000000,11003.000000,50886.000000
6056.000000,16613.000000,10986.000000,50903.000000
6072.000000,16621.000000,10978.000000,50872.000000
6075.000000,16632.000000,11005.000000,50893.000000
6075.000000,16614.000000,10994.000000,50917.000000
6085.000000,16622.000000,10988.000000,50931.000000
6082.000000,16613.000000,10998.000000,50882.000000
6097.000000,16628.000000,11012.000000,50914.000000
6123.000000,16651.000000,11050.000000,50945.000000
6143.000000,16676.000000,11063.000000,50930.000000
6149.000000,16717.000000,11117.000000,50953.000000
6149.000000,16701.000000,11091.000000,50974.000000
6169.000000,16747.000000,11115.000000,50995.000000
6173.000000,16736.000000,11129.000000,50979.000000
6238.000000,16759.000000,11202.000000,51012.000000
6255.000000,16792.000000,11232.000000,51008.000000
6287.000000,16785.000000,11245.000000,51024.000000
6314.000000,16805.000000,11292.000000,51083.000000
6343.000000,16847.000000,11322.000000,51108.000000
6380.000000,16889.000000,11382.000000,51128.000000
6431.000000,16904.000000,11397.000000,51137.000000
6459.000000,16942.000000,11495.000000,51191.000000
6511.000000,16967.000000,11527.000000,51211.000000
6583.000000,17015.000000,11584.000000,51242.000000
6618.000000,17054.000000,11666.000000,51259.000000
6679.000000,17106.000000,11731.000000,51340.000000
6758.000000,17167.000000,11822.000000,51369.000000
6810.000000,17204.000000,11862.000000,51402.000000
6898.000000,17239.000000,11935.000000,51435.000000
6957.000000,17295.000000,12038.000000,51504.000000
7018.000000,17362.000000,12089.000000,51560.000000
7111.000000,17417.000000,12153.000000,51592.000000
7233.000000,17464.000000,12263.000000,51631.000000
7207.000000,17501.000000,12291.000000,51648.000000
7275.000000,17545.000000,12405.000000,51692.000000
7298.000000,17572.000000,12423.000000,51707.000000
7343.000000,17583.000000,12421.000000,51734.000000
7328.000000,17581.000000,12427.000000,51767.000000
7339.000000,17590.000000,12430.000000,51725.000000
7339.000000,17599.000000,12453.000000,51753.000000
7324.000000,17591.000000,12424.000000,51717.000000
7339.000000,17596.000000,12465.000000,51726.000000
7324.000000,17564.000000,12400.000000,51707.000000
7316.000000,17555.000000,12432.000000,51711.000000
7287.000000,17585.000000,12398.000000,51730.000000
7299.000000,17571.000000,12388.000000,51696.000000
7316.000000,17543.000000,12384.000000,51704.000000
7258.000000,17548.000000,12372.000000,51703.000000
7235.000000,17535.000000,12361.000000,51680.000000
7256.000000,17513.000000,12340.000000,51664.000000
7245.000000,17531.000000,12367.000000,51675.000000
7243.000000,17507.000000,12316.000000,51639.000000
7220.000000,17521.000000,12323.000000,51649.000000
7231.000000,17519.000000,12307.000000,51664.000000
7187.000000,17488.000000,12281.000000,51656.000000
7182.000000,17477.000000,12266.000000,51620.000000
7197.000000,17469.000000,12280.000000,51623.000000
7146.000000,17474.000000,12242.000000,51623.000000
7179.000000,17471.000000,12230.000000,51615.000000
7145.000000,17455.000000,12240.000000,51595.000000
7131.000000,17446.000000,12214.000000,51608.000000
7088.000000,17393.000000,12197.000000,51607.000000
7128.000000,17396.000000,12205.000000,51591.000000
7114.000000,17417.000000,12156.000000,51583.000000
7081.000000,17410.000000,12148.000000,51567.000000
7081.000000,17395.000000,12128.000000,51558.000000
7055.000000,17381.000000,12119.000000,51526.000000
7077.000000,17405.000000,12111.000000,51552.000000
7047.000000,17355.000000,12085.000000,51523.000000
7018.000000,17359.000000,12074.000000,51523.000000
7004.000000,17335.000000,12076.000000,51503.000000
7014.000000,17351.000000,12050.000000,51511.000000
6998.000000,17315.000000,12036.000000,51497.000000
6979.000000,17300.000000,12011.000000,51498.000000
6973.000000,17289.000000,12012.000000,51471.000000
6963.000000,17319.000000,12003.000000,51499.000000
6935.000000,17275.000000,11971.000000,51455.000000
6924.000000,17273.000000,11962.000000,51460.000000
6906.000000,17269.000000,11955.000000,51447.000000
6902.000000,17240.000000,11941.000000,51480.000000
6877.000000,17219.000000,11925.000000,51442.000000
6865.000000,17243.000000,11911.000000,51417.000000
6866.000000,17215.000000,11886.000000,51397.000000
6867.000000,17211.000000,11870.000000,51400.000000
6811.000000,17207.000000,11856.000000,51403.000000
6823.000000,17171.000000,11850.000000,51359.000000
6804.000000,17171.000000,11831.000000,51387.000000
6810.000000,17181.000000,11806.000000,51372.000000
6763.000000,17152.000000,11788.000000,51370.000000
6777.000000,17129.000000,11774.000000,51310.000000
6738.000000,17130.000000,11766.000000,51335.000000
6702.000000,17140.000000,11739.000000,51319.000000
6712.000000,17111.000000,11696.000000,51333.000000
6684.000000,17076.000000,11701.000000,51308.000000
6688.000000,17091.000000,11670.000000,51295.000000
6637.000000,17083.000000,11661.000000,51298.000000
6659.000000,17316.000000,11624.000000,51256.000000
6632.000000,17032.000000,11630.000000,51236.000000
6610.000000,17037.000000,11612.000000,51275.000000
6621.000000,17023.000000,11572.000000,51208.000000
6579.000000,17019.000000,11552.000000,51233.000000
6561.000000,16986.000000,11547.000000,51210.000000
6543.000000,16981.000000,11535.000000,51220.000000
6512.000000,16969.000000,11498.000000,51196.000000
6522.000000,16972.000000,11471.000000,51192.000000
6539.000000,16939.000000,11477.000000,51199.000000
6502.000000,16943.000000,11442.000000,51169.000000
6482.000000,16954.000000,11436.000000,51183.000000
6476.000000,16938.000000,11438.000000,51151.000000
6445.000000,16904.000000,11402.000000,51155.000000
6422.000000,16909.000000,11407.000000,51151.000000
6409.000000,16880.000000,11397.000000,51151.000000
6395.000000,16891.000000,11353.000000,51131.000000
6380.000000,16860.000000,11327.000000,51095.000000
6359.000000,16852.000000,11313.000000,51085.000000
6361.000000,16847.000000,11315.000000,51099.000000
6371.000000,16805.000000,11295.000000,51067.000000
6307.000000,16779.000000,11266.000000,51063.000000
6326.000000,16803.000000,11247.000000,51045.000000
6323.000000,16804.000000,11221.000000,51068.000000
6295.000000,16771.000000,11233.000000,51041.000000
6297.000000,16751.000000,11191.000000,51013.000000
6246.000000,16757.000000,11170.000000,51019.000000
6243.000000,16733.000000,11116.000000,50984.000000
6175.000000,16705.000000,11143.000000,50959.000000
6189.000000,16699.000000,11121.000000,50955.000000
6193.000000,16707.000000,11095.000000,50959.000000
6127.000000,16689.000000,11066.000000,50941.000000
6110.000000,16663.000000,11023.000000,50932.000000
6120.000000,16673.000000,10995.000000,50905.000000
6087.000000,16648.000000,10986.000000,50909.000000
6066.000000,16607.000000,10946.000000,50906.000000
6018.000000,16599.000000,10920.000000,50868.000000
6023.000000,16579.000000,10923.000000,50849.000000
6009.000000,16585.000000,10895.000000,50864.000000
5975.000000,16546.000000,10899.000000,50813.000000
5944.000000,16553.000000,10880.000000,50813.000000
5963.000000,16576.000000,10820.000000,50830.000000
5980.000000,16543.000000,10858.000000,50821.000000
5951.000000,16547.000000,10884.000000,50812.000000
5948.000000,16544.000000,10831.000000,50840.000000
5939.000000,16521.000000,10850.000000,50856.000000
5951.000000,16537.000000,10854.000000,50838.000000
5976.000000,16573.000000,10865.000000,50839.000000
5964.000000,16549.000000,10850.000000,50837.000000
5959.000000,16573.000000,10888.000000,50845.000000
6000.000000,16566.000000,10908.000000,50864.000000
6011.000000,16598.000000,10929.000000,50856.000000
6019.000000,16589.000000,10938.000000,50885.000000
6029.000000,16605.000000,10942.000000,50870.000000
6064.000000,16604.000000,10966.000000,50910.000000
6057.000000,16641.000000,11005.000000,50920.000000
6114.000000,16673.000000,11022.000000,50921.000000
6133.000000,16679.000000,11067.000000,50945.000000
6172.000000,16689.000000,11091.000000,50959.000000
6196.000000,16711.000000,11142.000000,50999.000000
6235.000000,16761.000000,11179.000000,51003.000000
6283.000000,16787.000000,11192.000000,51024.000000
6302.000000,16795.000000,11272.000000,51067.000000
6355.000000,16876.000000,11332.000000,51115.000000
6370.000000,16871.000000,11378.000000,51135.000000
6447.000000,17173.000000,11440.000000,51159.000000
6491.000000,16937.000000,11461.000000,51167.000000
6547.000000,16995.000000,11525.000000,51231.000000
6599.000000,17022.000000,11600.000000,51277.000000
6656.000000,17065.000000,11675.000000,51282.000000
6735.000000,17110.000000,11735.000000,51356.000000
6810.000000,17187.000000,11813.000000,51403.000000
6873.000000,17183.000000,11876.000000,51449.000000
6921.000000,17257.000000,11958.000000,51471.000000
7000.000000,17312.000000,12039.000000,51519.000000
7076.000000,17413.000000,12138.000000,51572.000000
7136.000000,17419.000000,12203.000000,51583.000000
7173.000000,17461.000000,12226.000000,51627.000000
7240.000000,17459.000000,12275.000000,51631.000000
7248.000000,17516.000000,12299.000000,51648.000000
7229.000000,17539.000000,12313.000000,51667.000000
7294.000000,17513.000000,12321.000000,51671.000000
7261.000000,17538.000000,12348.000000,51683.000000
7287.000000,17515.000000,12347.000000,51686.000000
7262.000000,17541.000000,12340.000000,51647.000000
7254.000000,17508.000000,12325.000000,51649.000000
7234.000000,17515.000000,12311.000000,51645.000000
7259.000000,17515.000000,12303.000000,51674.000000
7219.000000,17486.000000,12287.000000,51656.000000
7233.000000,17499.000000,12301.000000,51667.000000
7213.000000,17454.000000,12262.000000,51656.000000
7213.000000,17487.000000,12259.000000,51637.000000
7200.000000,17467.000000,12257.000000,51617.000000
7180.000000,17461.000000,12252.000000,51615.000000
7194.000000,17452.000000,12213.000000,51603.000000
7176.000000,17447.000000,12234.000000,51605.000000
7149.000000,17459.000000,12226.000000,51603.000000
7178.000000,17463.000000,12215.000000,51593.000000
7155.000000,17432.000000,12230.000000,51580.000000
7152.000000,17457.000000,12206.000000,51600.000000
7103.000000,17447.000000,12172.000000,51573.000000
7091.000000,17379.000000,12178.000000,51587.000000
7141.000000,17407.000000,12154.000000,51599.000000
7099.000000,17404.000000,12131.000000,51570.000000
7107.000000,17423.000000,12115.000000,51557.000000
7075.000000,17396.000000,12139.000000,51535.000000
7076.000000,17400.000000,12134.000000,51531.000000
7049.000000,17377.000000,12107.000000,51529.000000
7076.000000,17376.000000,12106.000000,51528.000000
7057.000000,17357.000000,12069.000000,51512.000000
7030.000000,17349.000000,12077.000000,51543.000000
7035.000000,17349.000000,12082.000000,51497.000000
7028.000000,17328.000000,12070.000000,51527.000000
7013.000000,17348.000000,12057.000000,51519.000000
6981.000000,17315.000000,12016.000000,51488.000000
7009.000000,17316.000000,12044.000000,51487.000000
7005.000000,17305.000000,12022.000000,51501.000000
6968.000000,17315.000000,12010.000000,51496.000000
6959.000000,17299.000000,11971.000000,51477.000000
6943.000000,17311.000000,11971.000000,51465.000000
6927.000000,17290.000000,11986.000000,51468.000000
6935.000000,17275.000000,11935.000000,51429.000000
6939.000000,17244.000000,11932.000000,51451.000000
6923.000000,17268.000000,11926.000000,51442.000000
6891.000000,17253.000000,11935.000000,51445.000000
6862.000000,17267.000000,11880.000000,51397.000000
6888.000000,17249.000000,11901.000000,51425.000000
6856.000000,17241.000000,11867.000000,51398.000000
6840.000000,17212.000000,11858.000000,51376.000000
6833.000000,17159.000000,11809.000000,51380.000000
6829.000000,17207.000000,11821.000000,51376.000000
6781.000000,17179.000000,11810.000000,51384.000000
6759.000000,17167.000000,11802.000000,51357.000000
6776.000000,17148.000000,11768.000000,51352.000000
6749.000000,17160.000000,11767.000000,51349.000000
6753.000000,17159.000000,11771.000000,51334.000000
6756.000000,17125.000000,11749.000000,51326.000000
6722.000000,17141.000000,11735.000000,51314.000000
6757.000000,17139.000000,11715.000000,51332.000000
6698.000000,17083.000000,11682.000000,51284.000000
6697.000000,17086.000000,11686.000000,51268.000000
6663.000000,17059.000000,11711.000000,51293.000000
6649.000000,17072.000000,11657.000000,51287.000000
6642.000000,17074.000000,11624.000000,51279.000000
6662.000000,17057.000000,11601.000000,51257.000000
6648.000000,17026.000000,11621.000000,51260.000000
6606.000000,17032.000000,11593.000000,51235.000000
6615.000000,17043.000000,11566.000000,51225.000000
6619.000000,17299.000000,11570.000000,51220.000000
6619.000000,17007.000000,11538.000000,51235.000000
6558.000000,16992.000000,11522.000000,51221.000000
6584.000000,17011.000000,11521.000000,51231.000000
6593.000000,17243.000000,11530.000000,51224.000000
6528.000000,16968.000000,11518.000000,51217.000000
6559.000000,16949.000000,11496.000000,51194.000000
6517.000000,16980.000000,11492.000000,51181.000000
6532.000000,16933.000000,11459.000000,51183.000000
6488.000000,16948.000000,11434.000000,51168.000000
6492.000000,17240.000000,11424.000000,51144.000000
6455.000000,16912.000000,11391.000000,51133.000000
6507.000000,16921.000000,11402.000000,51148.000000
6436.000000,16888.000000,11386.000000,51128.000000
6417.000000,16888.000000,11362.000000,51105.000000
6403.000000,16879.000000,11346.000000,51106.000000
6356.000000,16865.000000,11346.000000,51083.000000
6400.000000,16856.000000,11325.000000,51102.000000
6358.000000,16859.000000,11301.000000,51071.000000
6312.000000,16839.000000,11311.000000,51067.000000
6307.000000,16820.000000,11253.000000,51045.000000
6282.000000,16785.000000,11231.000000,51032.000000
6275.000000,16799.000000,11189.000000,51046.000000
6246.000000,16768.000000,11189.000000,51000.000000
6246.000000,16713.000000,11116.000000,50988.000000
6225.000000,16723.000000,11123.000000,50965.000000
6182.000000,16736.000000,11099.000000,50979.000000
6146.000000,16700.000000,11051.000000,50961.000000
6143.000000,16703.000000,11059.000000,50921.000000
6139.000000,16683.000000,11020.000000,50906.000000
6099.000000,16667.000000,11024.000000,50904.000000
6052.000000,16647.000000,10970.000000,50911.000000
6109.000000,16631.000000,11012.000000,50896.000000
6077.000000,16599.000000,10989.000000,50903.000000
6074.000000,16608.000000,10961.000000,50886.000000
6045.000000,16594.000000,10956.000000,50892.000000
6062.000000,16605.000000,10978.000000,50891.000000
6065.000000,16612.000000,11004.000000,50898.000000
6048.000000,16628.000000,10965.000000,50903.000000
6096.000000,16647.000000,10983.000000,50906.000000
6066.000000,16657.000000,11015.000000,50892.000000
6128.000000,16675.000000,11025.000000,50924.000000
6089.000000,16669.000000,11063.000000,50944.000000
6152.000000,16691.000000,11074.000000,50968.000000
6141.000000,16703.000000,11073.000000,50973.000000
6166.000000,16715.000000,11098.000000,50977.000000
6169.000000,16729.000000,11132.000000,50977.000000
6199.000000,16742.000000,11133.000000,50977.000000
6262.000000,16771.000000,11162.000000,51010.000000
6284.000000,16780.000000,11218.000000,51061.000000
6290.000000,16819.000000,11256.000000,51075.000000
6342.000000,16827.000000,11290.000000,51040.000000
6385.000000,16857.000000,11326.000000,51108.000000
6402.000000,16863.000000,11363.000000,51125.000000
6443.000000,16917.000000,11436.000000,51159.000000
6458.000000,16954.000000,11452.000000,51199.000000
6520.000000,16961.000000,11512.000000,51264.000000
6532.000000,17005.000000,11578.000000,51235.000000
6631.000000,17036.000000,11601.000000,51259.000000
6677.000000,17112.000000,11675.000000,51331.000000
6722.000000,17142.000000,11768.000000,51362.000000
6791.000000,17184.000000,11811.000000,51387.000000
6858.000000,17218.000000,11883.000000,51430.000000
6886.000000,17265.000000,11955.000000,51471.000000
6971.000000,17313.000000,11998.000000,51501.000000
7052.000000,17376.000000,12091.000000,51571.000000
7124.000000,17415.000000,12198.000000,51583.000000
7210.000000,17471.000000,12255.000000,51644.000000
7238.000000,17503.000000,12327.000000,51682.000000
7273.000000,17543.000000,12390.000000,51707.000000
7335.000000,17534.000000,12402.000000,51704.000000
7323.000000,17604.000000,12425.000000,51742.000000
7347.000000,17621.000000,12427.000000,51730.000000
7359.000000,17576.000000,12435.000000,51743.000000
7336.000000,17591.000000,12447.000000,51729.000000
7327.000000,17610.000000,12444.000000,51752.000000
7344.000000,17588.000000,12420.000000,51700.000000
7337.000000,17584.000000,12436.000000,51739.000000
7317.000000,17559.000000,12398.000000,51728.000000
7290.000000,17570.000000,12394.000000,51730.000000
7293.000000,17541.000000,12366.000000,51707.000000
7299.000000,17553.000000,12357.000000,51672.000000
7271.000000,17534.000000,12373.000000,51711.000000
7258.000000,17542.000000,12338.000000,51709.000000
7259.000000,17549.000000,12332.000000,51676.000000
7279.000000,17526.000000,12316.000000,51664.000000
7245.000000,17520.000000,12330.000000,51656.000000
7245.000000,17504.000000,12292.000000,51659.000000
7202.000000,17533.000000,12285.000000,51639.000000
7248.000000,17509.000000,12297.000000,51644.000000
7194.000000,17513.000000,12282.000000,51669.000000
7218.000000,17480.000000,12284.000000,51647.000000
7197.000000,17448.000000,12245.000000,51603.000000
7147.000000,17458.000000,12254.000000,51611.000000
7146.000000,17465.000000,12237.000000,51599.000000
7141.000000,17454.000000,12216.000000,51619.000000
7175.000000,17444.000000,12220.000000,51577.000000
7154.000000,17440.000000,12204.000000,51593.000000
7121.000000,17437.000000,12147.000000,51591.000000
7111.000000,17436.000000,12220.000000,51547.000000
7123.000000,17438.000000,12159.000000,51587.000000
7099.000000,17393.000000,12148.000000,51551.000000
7105.000000,17387.000000,12160.000000,51551.000000
7090.000000,17371.000000,12109.000000,51552.000000
7066.000000,17415.000000,12142.000000,51563.000000
7046.000000,17349.000000,12102.000000,51568.000000
7067.000000,17375.000000,12094.000000,51535.000000
7050.000000,17344.000000,12058.000000,51527.000000
7025.000000,17343.000000,12043.000000,51538.000000
7008.000000,17322.000000,12016.000000,51497.000000
7004.000000,17300.000000,12042.000000,51532.000000
6975.000000,17295.000000,11988.000000,51472.000000
6973.000000,17331.000000,12012.000000,51491.000000
6955.000000,17321.000000,11978.000000,51490.000000
6961.000000,17266.000000,11978.000000,51458.000000
6955.000000,17283.000000,11977.000000,51487.000000
6938.000000,17306.000000,11975.000000,51467.000000
6948.000000,17267.000000,11943.000000,51442.000000
6917.000000,17268.000000,11939.000000,51448.000000
6925.000000,17237.000000,11929.000000,51421.000000
6919.000000,17267.000000,11897.000000,51428.000000
6889.000000,17252.000000,11917.000000,51403.000000
6887.000000,17247.000000,11899.000000,51417.000000
6888.000000,17225.000000,11907.000000,51409.000000
6865.000000,17248.000000,11891.000000,51414.000000
6841.000000,17203.000000,11863.000000,51412.000000
6821.000000,17191.000000,11866.000000,51393.000000
6831.000000,17236.000000,11833.000000,51394.000000
6852.000000,17207.000000,11834.000000,51408.000000
6821.000000,17181.000000,11823.000000,51386.000000
6843.000000,17164.000000,11809.000000,51376.000000
6796.000000,17199.000000,11812.000000,51387.000000
6796.000000,17400.000000,11751.000000,51365.000000
6769.000000,17174.000000,11762.000000,51339.000000
6766.000000,17135.000000,11767.000000,51338.000000
6789.000000,17156.000000,11767.000000,51352.000000
6738.000000,17141.000000,11723.000000,51328.000000
6718.000000,17086.000000,11719.000000,51316.000000
6721.000000,17118.000000,11742.000000,51306.000000
6688.000000,17379.000000,11714.000000,51331.000000
6709.000000,17116.000000,11706.000000,51286.000000
6724.000000,17087.000000,11660.000000,51294.000000
6655.000000,17080.000000,11687.000000,51302.000000
6670.000000,17086.000000,11669.000000,51287.000000
6651.000000,17071.000000,11658.000000,51290.000000
6666.000000,17013.000000,11644.000000,51278.000000
6624.000000,17043.000000,11641.000000,51256.000000
6625.000000,17048.000000,11604.000000,51255.000000
6605.000000,17055.000000,11612.000000,51250.000000
6588.000000,17263.000000,11583.000000,51201.000000
6619.000000,17035.000000,11535.000000,51239.000000
6556.000000,17247.000000,11527.000000,51232.000000
6565.000000,16986.000000,11489.000000,51201.000000
6532.000000,16978.000000,11509.000000,51211.000000
6523.000000,16981.000000,11515.000000,51217.000000
6530.000000,16988.000000,11465.000000,51199.000000
6534.000000,16989.000000,11478.000000,51172.000000
6477.000000,16953.000000,11449.000000,51153.000000
6479.000000,16946.000000,11438.000000,51146.000000
6433.000000,16908.000000,11397.000000,51132.000000
6409.000000,16889.000000,11370.000000,51107.000000
6405.000000,16883.000000,11335.000000,51103.000000
6415.000000,16889.000000,11334.000000,51136.000000
6352.000000,16855.000000,11297.000000,51083.000000
6318.000000,16827.000000,11276.000000,51050.000000
6325.000000,16849.000000,11237.000000,51023.000000
6330.000000,16831.000000,11247.000000,51068.000000
6275.000000,16809.000000,11237.000000,51064.000000
6254.000000,16787.000000,11224.000000,51035.000000
6291.000000,16740.000000,11189.000000,51016.000000
6249.000000,16788.000000,11186.000000,51024.000000
6241.000000,16749.000000,11155.000000,51005.000000
6216.000000,16771.000000,11180.000000,51015.000000
6219.000000,16755.000000,11161.000000,51013.000000
6236.000000,16783.000000,11168.000000,51031.000000
6222.000000,16777.000000,11164.000000,50987.000000
6240.000000,16776.000000,11169.000000,51029.000000
6259.000000,16764.000000,11173.000000,51025.000000
6264.000000,16773.000000,11202.000000,51029.000000
6264.000000,16779.000000,11179.000000,51034.000000
6304.000000,16805.000000,11236.000000,51015.000000
6307.000000,16819.000000,11249.000000,51039.000000
6332.000000,16828.000000,11280.000000,51052.000000
6331.000000,16848.000000,11269.000000,51063.000000
6353.000000,16863.000000,11329.000000,51087.000000
6382.000000,16893.000000,11308.000000,51115.000000
6438.000000,16903.000000,11370.000000,51135.000000
6437.000000,16934.000000,11394.000000,51185.000000
6481.000000,16936.000000,11419.000000,51159.000000
6487.000000,16950.000000,11465.000000,51179.000000
6535.000000,16981.000000,11492.000000,51199.000000
6559.000000,17015.000000,11564.000000,51231.000000
6572.000000,16998.000000,11586.000000,51242.000000
6602.000000,17047.000000,11609.000000,51287.000000
6687.000000,17104.000000,11692.000000,51306.000000
6725.000000,17114.000000,11752.000000,51355.000000
6743.000000,17161.000000,11799.000000,51377.000000
6834.000000,17212.000000,11899.000000,51434.000000
6892.000000,17252.000000,11933.000000,51454.000000
6946.000000,17293.000000,12008.000000,51484.000000
7011.000000,17353.000000,12063.000000,51543.000000
7101.000000,17395.000000,12176.000000,51576.000000
7163.000000,17456.000000,12238.000000,51629.000000
7250.000000,17492.000000,12329.000000,51643.000000
7314.000000,17596.000000,12397.000000,51716.000000
7355.000000,17613.000000,12462.000000,51754.000000
7406.000000,17677.000000,12540.000000,51773.000000
7449.000000,17699.000000,12546.000000,51795.000000
7501.000000,17703.000000,12585.000000,51806.000000
7506.000000,17740.000000,12600.000000,51847.000000
7531.000000,17699.000000,12618.000000,51819.000000
7530.000000,17759.000000,12645.000000,51843.000000
7511.000000,17728.000000,12603.000000,51845.000000
7483.000000,17733.000000,12622.000000,51801.000000
7499.000000,17720.000000,12618.000000,51829.000000
7460.000000,17696.000000,12605.000000,51825.000000
7508.000000,17703.000000,12569.000000,51786.000000
7496.000000,17692.000000,12579.000000,51779.000000
7431.000000,17707.000000,12563.000000,51819.000000
7437.000000,17701.000000,12545.000000,51787.000000
7427.000000,17656.000000,12549.000000,51787.000000
7426.000000,17664.000000,12516.000000,51792.000000
7391.000000,17662.000000,12518.000000,51779.000000
7399.000000,17647.000000,12504.000000,51773.000000
7392.000000,17643.000000,12485.000000,51761.000000
7375.000000,17647.000000,12492.000000,51748.000000
7347.000000,17632.000000,12471.000000,51753.000000
7348.000000,17643.000000,12431.000000,51747.000000
7341.000000,17624.000000,12427.000000,51734.000000
7341.000000,17541.000000,12430.000000,51729.000000
7287.000000,17594.000000,12404.000000,51713.000000
7324.000000,17598.000000,12428.000000,51713.000000
7287.000000,17582.000000,12385.000000,51714.000000
7329.000000,17550.000000,12387.000000,51701.000000
7306.000000,17565.000000,12389.000000,51671.000000
7289.000000,17562.000000,12341.000000,51691.000000
7276.000000,17568.000000,12346.000000,51701.000000
7268.000000,17549.000000,12332.000000,51679.000000
7249.000000,17521.000000,12301.000000,51676.000000
7221.000000,17538.000000,12309.000000,51668.000000
7234.000000,17506.000000,12290.000000,51642.000000
7229.000000,17521.000000,12307.000000,51644.000000
7188.000000,17494.000000,12270.000000,51645.000000
7155.000000,17465.000000,12236.000000,51626.000000
7165.000000,17471.000000,12252.000000,51631.000000
7173.000000,17466.000000,12236.000000,51613.000000
7121.000000,17465.000000,12197.000000,51592.000000
7108.000000,17419.000000,12181.000000,51596.000000
7109.000000,17427.000000,12161.000000,51574.000000
7092.000000,17420.000000,12150.000000,51573.000000
7124.000000,17411.000000,12155.000000,51572.000000
7098.000000,17395.000000,12097.000000,51546.000000
7092.000000,17404.000000,12110.000000,51543.000000
7052.000000,17383.000000,12082.000000,51535.000000
7023.000000,17353.000000,12056.000000,51511.000000
7018.000000,17377.000000,12061.000000,51507.000000
6992.000000,17360.000000,12025.000000,51512.000000
6998.000000,17336.000000,12028.000000,51527.000000
6967.000000,17311.000000,11990.000000,51499.000000
6957.000000,17304.000000,11985.000000,51469.000000
6956.000000,17297.000000,11968.000000,51455.000000
6934.000000,17295.000000,11949.000000,51452.000000
6906.000000,17305.000000,11942.000000,51450.000000
6925.000000,17244.000000,11931.000000,51435.000000
6889.000000,17236.000000,11911.000000,51435.000000
6862.000000,17253.000000,11901.000000,51406.000000
6872.000000,17253.000000,11910.000000,51429.000000
6849.000000,17207.000000,11890.000000,51391.000000
6847.000000,17199.000000,11864.000000,51399.000000
6842.000000,17225.000000,11839.000000,51414.000000
6799.000000,17195.000000,11805.000000,51396.000000
6820.000000,17184.000000,11808.000000,51405.000000
6799.000000,17176.000000,11805.000000,51344.000000
6782.000000,17169.000000,11776.000000,51365.000000
6736.000000,17150.000000,11767.000000,51366.000000
6740.000000,17118.000000,11725.000000,51321.000000
6742.000000,17142.000000,11741.000000,51313.000000
6698.000000,17133.000000,11717.000000,51298.000000
6993.000000,17135.000000,11712.000000,51287.000000
6724.000000,17139.000000,11679.000000,51312.000000
6665.000000,17075.000000,11697.000000,51309.000000
6659.000000,17090.000000,11644.000000,51286.000000
6667.000000,17095.000000,11646.000000,51277.000000
6660.000000,17073.000000,11609.000000,51246.000000
6629.000000,17051.000000,11605.000000,51283.000000
6612.000000,17042.000000,11571.000000,51250.000000
6583.000000,17029.000000,11575.000000,51225.000000
6594.000000,17023.000000,11550.000000,51251.000000
6547.000000,16982.000000,11527.000000,51210.000000
6551.000000,16966.000000,11495.000000,51210.000000
6555.000000,16982.000000,11484.000000,51206.000000
6520.000000,16969.000000,11475.000000,51191.000000
6519.000000,16970.000000,11460.000000,51167.000000
6495.000000,16978.000000,11449.000000,51158.000000
6481.000000,16963.000000,11430.000000,51160.000000
6459.000000,16940.000000,11404.000000,51172.000000
6460.000000,16927.000000,11390.000000,51156.000000
6402.000000,16896.000000,11358.000000,51115.000000
6437.000000,16891.000000,11376.000000,51105.000000
6379.000000,16883.000000,11309.000000,51110.000000
6379.000000,16845.000000,11292.000000,51074.000000
6365.000000,16829.000000,11301.000000,51051.000000
6314.000000,16852.000000,11248.000000,51056.000000
6284.000000,16847.000000,11215.000000,51048.000000
6271.000000,16796.000000,11197.000000,51051.000000
6269.000000,16772.000000,11175.000000,51008.000000
6252.000000,16775.000000,11165.000000,51011.000000
6230.000000,16759.000000,11110.000000,50967.000000
6193.000000,16736.000000,11114.000000,50954.000000
6205.000000,16728.000000,11101.000000,50962.000000
6178.000000,16751.000000,11087.000000,50959.000000
6159.000000,16711.000000,11048.000000,50951.000000
6164.000000,16715.000000,11052.000000,50965.000000
6161.000000,16711.000000,11027.000000,50957.000000
6155.000000,16705.000000,11055.000000,50943.000000
6175.000000,16700.000000,11072.000000,50957.000000
6152.000000,16707.000000,11013.000000,50955.000000
6140.000000,16707.000000,11061.000000,50940.000000
6163.000000,16707.000000,11078.000000,50963.000000
6161.000000,16700.000000,11065.000000,50938.000000
6172.000000,16719.000000,11116.000000,50979.000000
6224.000000,16729.000000,11097.000000,50962.000000
6215.000000,16725.000000,11101.000000,50994.000000
6229.000000,16764.000000,11131.000000,51003.000000
6239.000000,16784.000000,11169.000000,51007.000000
6259.000000,16751.000000,11195.000000,51009.000000
6286.000000,16795.000000,11203.000000,51025.000000
6287.000000,16831.000000,11232.000000,51073.000000
6323.000000,16848.000000,11244.000000,51076.000000
6333.000000,16848.000000,11307.000000,51058.000000
6390.000000,16864.000000,11349.000000,51100.000000
6426.000000,16903.000000,11334.000000,51124.000000
6433.000000,16947.000000,11393.000000,51131.000000
6484.000000,16975.000000,11435.000000,51187.000000
6567.000000,16975.000000,11496.000000,51179.000000
6557.000000,17014.000000,11541.000000,51220.000000
6599.000000,17036.000000,11601.000000,51243.000000
6640.000000,17101.000000,11677.000000,51272.000000
6716.000000,17089.000000,11723.000000,51336.000000
6751.000000,17151.000000,11790.000000,51380.000000
6836.000000,17195.000000,11848.000000,51415.000000
6905.000000,17263.000000,11953.000000,51459.000000
6971.000000,17315.000000,11989.000000,51478.000000
7017.000000,17365.000000,12059.000000,51500.000000
7081.000000,17391.000000,12132.000000,51592.000000
7136.000000,17467.000000,12205.000000,51619.000000
7230.000000,17517.000000,12297.000000,51663.000000
7289.000000,17534.000000,12347.000000,51650.000000
7348.000000,17571.000000,12399.000000,51725.000000
7337.000000,17612.000000,12443.000000,51732.000000
7373.000000,17605.000000,12459.000000,51730.000000
7389.000000,17643.000000,12495.000000,51744.000000
7381.000000,17627.000000,12466.000000,51773.000000
7367.000000,17659.000000,12478.000000,51762.000000
7365.000000,17617.000000,12433.000000,51754.000000
7390.000000,17647.000000,12431.000000,51754.000000
7354.000000,17593.000000,12444.000000,51744.000000
7351.000000,17620.000000,12435.000000,51751.000000
7352.000000,17631.000000,12436.000000,51736.000000
7319.000000,17607.000000,12405.000000,51716.000000
7308.000000,17616.000000,12399.000000,51736.000000
7333.000000,17595.000000,12410.000000,51723.000000
7271.000000,17556.000000,12374.000000,51690.000000
7303.000000,17587.000000,12374.000000,51675.000000
7298.000000,17568.000000,12389.000000,51674.000000
7317.000000,17577.000000,12334.000000,51712.000000
7301.000000,17544.000000,12341.000000,51697.000000
7251.000000,17531.000000,12322.000000,51668.000000
7277.000000,17571.000000,12340.000000,51673.000000
7276.000000,17550.000000,12319.000000,51653.000000
7249.000000,17521.000000,12310.000000,51643.000000
7231.000000,17516.000000,12299.000000,51667.000000
7190.000000,17526.000000,12277.000000,51637.000000
7198.000000,17515.000000,12269.000000,51651.000000
7219.000000,17507.000000,12259.000000,51645.000000
7188.000000,17515.000000,12239.000000,51636.000000
7167.000000,17465.000000,12209.000000,51597.000000
7142.000000,17466.000000,12216.000000,51597.000000
7165.000000,17484.000000,12195.000000,51577.000000
7129.000000,17460.000000,12176.000000,51564.000000
7112.000000,17457.000000,12184.000000,51595.000000
7114.000000,17437.000000,12176.000000,51587.000000
7078.000000,17414.000000,12154.000000,51589.000000
7111.000000,17401.000000,12098.000000,51573.000000
7110.000000,17404.000000,12136.000000,51559.000000
7063.000000,17380.000000,12115.000000,51547.000000
7084.000000,17407.000000,12100.000000,51542.000000
7079.000000,17367.000000,12112.000000,51549.000000
7089.000000,17378.000000,12091.000000,51535.000000
7042.000000,17373.000000,12059.000000,51507.000000
7030.000000,17347.000000,12084.000000,51515.000000
7051.000000,17347.000000,12055.000000,51521.000000
7014.000000,17347.000000,12044.000000,51520.000000
7031.000000,17339.000000,12018.000000,51530.000000
6976.000000,17317.000000,12011.000000,51475.000000
6987.000000,17327.000000,11991.000000,51500.000000
6933.000000,17275.000000,11987.000000,51450.000000
6951.000000,17269.000000,11949.000000,51453.000000
6935.000000,17308.000000,11948.000000,51458.000000
6945.000000,17269.000000,11928.000000,51478.000000
6918.000000,17237.000000,11906.000000,51452.000000
6912.000000,17251.000000,11896.000000,51417.000000
6873.000000,17232.000000,11910.000000,51418.000000
6881.000000,17225.000000,11884.000000,51397.000000
6866.000000,17251.000000,11866.000000,51401.000000
6832.000000,17231.000000,11861.000000,51426.000000
6848.000000,17192.000000,11833.000000,51383.000000
6839.000000,17204.000000,11813.000000,51375.000000
6830.000000,17212.000000,11802.000000,51388.000000
6809.000000,17187.000000,11767.000000,51359.000000
6808.000000,17180.000000,11761.000000,51347.000000
6796.000000,17175.000000,11771.000000,51352.000000
6735.000000,17183.000000,11787.000000,51323.000000
6787.000000,17164.000000,11712.000000,51348.000000
6762.000000,17122.000000,11717.000000,51310.000000
6735.000000,17131.000000,11705.000000,51328.000000
6740.000000,17114.000000,11697.000000,51306.000000
6715.000000,17113.000000,11675.000000,51333.000000
6698.000000,17092.000000,11676.000000,51295.000000
6676.000000,17110.000000,11668.000000,51282.000000
6660.000000,17088.000000,11645.000000,51281.000000
6655.000000,17066.000000,11601.000000,51275.000000
6641.000000,17052.000000,11594.000000,51274.000000
6590.000000,17013.000000,11554.000000,51262.000000
6611.000000,17023.000000,11583.000000,51259.000000
6580.000000,17012.000000,11551.000000,51208.000000
6586.000000,17032.000000,11516.000000,51230.000000
6578.000000,16996.000000,11491.000000,51228.000000
6538.000000,16992.000000,11487.000000,51191.000000
6543.000000,16968.000000,11508.000000,51205.000000
6531.000000,16977.000000,11480.000000,51185.000000
6517.000000,16980.000000,11453.000000,51166.000000
6512.000000,16986.000000,11456.000000,51169.000000
6513.000000,16930.000000,11412.000000,51155.000000
6459.000000,16935.000000,11406.000000,51135.000000
6461.000000,16937.000000,11377.000000,51120.000000
6464.000000,16908.000000,11364.000000,51143.000000
6393.000000,16928.000000,11362.000000,51085.000000
6407.000000,17157.000000,11320.000000,51085.000000
6385.000000,17163.000000,11300.000000,51069.000000
6347.000000,16883.000000,11255.000000,51069.000000
6346.000000,16820.000000,11225.000000,51083.000000
6336.000000,16820.000000,11237.000000,51050.000000
6256.000000,16833.000000,11193.000000,51043.000000
6289.000000,16819.000000,11167.000000,51028.000000
6243.000000,16775.000000,11159.000000,50987.000000
6254.000000,16787.000000,11142.000000,51000.000000
6222.000000,16779.000000,11105.000000,50962.000000
6193.000000,16751.000000,11100.000000,50951.000000
6188.000000,16747.000000,11095.000000,50962.000000
6183.000000,16748.000000,11098.000000,50973.000000
6175.000000,16707.000000,11079.000000,50973.000000
6169.000000,16696.000000,11048.000000,50965.000000
6194.000000,16743.000000,11111.000000,50978.000000
6183.000000,16692.000000,11057.000000,50981.000000
6155.000000,16763.000000,11084.000000,50953.000000
6169.000000,16731.000000,11091.000000,50983.000000
6211.000000,16723.000000,11088.000000,50955.000000
6194.000000,16713.000000,11105.000000,50957.000000
6180.000000,16748.000000,11115.000000,51016.000000
6180.000000,16747.000000,11101.000000,50984.000000
6213.000000,16756.000000,11132.000000,50975.000000
6238.000000,16763.000000,11156.000000,51020.000000
6277.000000,16785.000000,11170.000000,51038.000000
6304.000000,16803.000000,11232.000000,51036.000000
6321.000000,16851.000000,11250.000000,51066.000000
6347.000000,16836.000000,11272.000000,51113.000000
6408.000000,16872.000000,11316.000000,51086.000000
6422.000000,16915.000000,11353.000000,51143.000000
6440.000000,16965.000000,11398.000000,51142.000000
6486.000000,16958.000000,11455.000000,51187.000000
6523.000000,16971.000000,11461.000000,51181.000000
6568.000000,17029.000000,11489.000000,51226.000000
6576.000000,17039.000000,11583.000000,51250.000000
6635.000000,17074.000000,11606.000000,51299.000000
6679.000000,17087.000000,11687.000000,51320.000000
6744.000000,17167.000000,11744.000000,51351.000000
6776.000000,17193.000000,11800.000000,51400.000000
6850.000000,17215.000000,11855.000000,51429.000000
6937.000000,17295.000000,11931.000000,51495.000000
6971.000000,17299.000000,11976.000000,51496.000000
7030.000000,17349.000000,12067.000000,51529.000000
7098.000000,17409.000000,12164.000000,51571.000000
7172.000000,17460.000000,12223.000000,51652.000000
7248.000000,17539.000000,12284.000000,51647.000000
7288.000000,17559.000000,12337.000000,51691.000000
7352.000000,17609.000000,12437.000000,51765.000000
7398.000000,17653.000000,12457.000000,51761.000000
7431.000000,17660.000000,12513.000000,51790.000000
7432.000000,17707.000000,12536.000000,51770.000000
7477.000000,17665.000000,12564.000000,51833.000000
7455.000000,17695.000000,12540.000000,51788.000000
7475.000000,17701.000000,12550.000000,51795.000000
7477.000000,17723.000000,12534.000000,51799.000000
7440.000000,17683.000000,12534.000000,51798.000000
7468.000000,17703.000000,12556.000000,51788.000000
7447.000000,17691.000000,12542.000000,51799.000000
7439.000000,17693.000000,12517.000000,51783.000000
7449.000000,17684.000000,12513.000000,51798.000000
7438.000000,17673.000000,12506.000000,51781.000000
7437.000000,17665.000000,12517.000000,51802.000000
7433.000000,17675.000000,12468.000000,51767.000000
7391.000000,17663.000000,12504.000000,51766.000000
7391.000000,17649.000000,12471.000000,51777.000000
7371.000000,17664.000000,12456.000000,51753.000000
7383.000000,17626.000000,12443.000000,51728.000000
7337.000000,17655.000000,12442.000000,51728.000000
7349.000000,17610.000000,12409.000000,51740.000000
7329.000000,17616.000000,12397.000000,51711.000000
7328.000000,17577.000000,12425.000000,51746.000000
7343.000000,17588.000000,12402.000000,51696.000000
7335.000000,17570.000000,12363.000000,51708.000000
7331.000000,17601.000000,12361.000000,51709.000000
7297.000000,17576.000000,12388.000000,51688.000000
7271.000000,17596.000000,12340.000000,51721.000000
7273.000000,17591.000000,12332.000000,51663.000000
7264.000000,17570.000000,12312.000000,51661.000000
7253.000000,17575.000000,12326.000000,51665.000000
7236.000000,17536.000000,12317.000000,51659.000000
7235.000000,17521.000000,12309.000000,51687.000000
7235.000000,17501.000000,12289.000000,51651.000000
7202.000000,17514.000000,12255.000000,51637.000000
7220.000000,17533.000000,12256.000000,51635.000000
7221.000000,17507.000000,12264.000000,51637.000000
7196.000000,17485.000000,12235.000000,51628.000000
7147.000000,17488.000000,12231.000000,51645.000000
7180.000000,17482.000000,12230.000000,51616.000000
7179.000000,17475.000000,12209.000000,51615.000000
7149.000000,17465.000000,12188.000000,51592.000000
7131.000000,17458.000000,12180.000000,51608.000000
7161.000000,17456.000000,12162.000000,51577.000000
7124.000000,17466.000000,12157.000000,51594.000000
7136.000000,17459.000000,12152.000000,51560.000000
7100.000000,17392.000000,12105.000000,51572.000000
7096.000000,17418.000000,12120.000000,51567.000000
7056.000000,17399.000000,12073.000000,51559.000000
7063.000000,17423.000000,12093.000000,51520.000000
7064.000000,17364.000000,12087.000000,51525.000000
7030.000000,17389.000000,12061.000000,51551.000000
7031.000000,17370.000000,12040.000000,51541.000000
7013.000000,17372.000000,12039.000000,51491.000000
7021.000000,17355.000000,12007.000000,51513.000000
6984.000000,17344.000000,12006.000000,51500.000000
6986.000000,17327.000000,11973.000000,51492.000000
6990.000000,17319.000000,12002.000000,51524.000000
6948.000000,17303.000000,11951.000000,51467.000000
6945.000000,17313.000000,11967.000000,51462.000000
6918.000000,17291.000000,11922.000000,51471.000000
6920.000000,17272.000000,11926.000000,51453.000000
6872.000000,17247.000000,11907.000000,51442.000000
6866.000000,17276.000000,11885.000000,51406.000000
6883.000000,17227.000000,11870.000000,51419.000000
6871.000000,17271.000000,11841.000000,51406.000000
6841.000000,17219.000000,11838.000000,51393.000000
6822.000000,17255.000000,11852.000000,51401.000000
6814.000000,17200.000000,11789.000000,51386.000000
6825.000000,17208.000000,11822.000000,51405.000000
6761.000000,17183.000000,11774.000000,51341.000000
6780.000000,17191.000000,11754.000000,51350.000000
6799.000000,17171.000000,11756.000000,51302.000000
6776.000000,17185.000000,11748.000000,51346.000000
6727.000000,17167.000000,11737.000000,51347.000000
6736.000000,17159.000000,11730.000000,51356.000000
6719.000000,17143.000000,11691.000000,51310.000000
6704.000000,17383.000000,11684.000000,51302.000000
6714.000000,17128.000000,11687.000000,51293.000000
6701.000000,17098.000000,11654.000000,51303.000000
6702.000000,17055.000000,11658.000000,51297.000000
6657.000000,17060.000000,11649.000000,51275.000000
6655.000000,17067.000000,11624.000000,51266.000000
6651.000000,17327.000000,11605.000000,51283.000000
6655.000000,17042.000000,11573.000000,51244.000000
6608.000000,17053.000000,11529.000000,51247.000000
6587.000000,17029.000000,11540.000000,51231.000000
6579.000000,17021.000000,11515.000000,51210.000000
6570.000000,17011.000000,11514.000000,51185.000000
6534.000000,16974.000000,11476.000000,51220.000000
6532.000000,16960.000000,11445.000000,51179.000000
6504.000000,16948.000000,11448.000000,51180.000000
6458.000000,16955.000000,11413.000000,51173.000000
6464.000000,16910.000000,11385.000000,51143.000000
6446.000000,16901.000000,11353.000000,51137.000000
6403.000000,17189.000000,11338.000000,51119.000000
6392.000000,16887.000000,11294.000000,51115.000000
6360.000000,16881.000000,11281.000000,51094.000000
6347.000000,16855.000000,11292.000000,51091.000000
6359.000000,16867.000000,11263.000000,51090.000000
6330.000000,16843.000000,11200.000000,51072.000000
6310.000000,16821.000000,11249.000000,51031.000000
6314.000000,16804.000000,11241.000000,51055.000000
6312.000000,16832.000000,11221.000000,51063.000000
6309.000000,16851.000000,11240.000000,51060.000000
6315.000000,16844.000000,11228.000000,51059.000000
6342.000000,16835.000000,11242.000000,51065.000000
6324.000000,16855.000000,11260.000000,51049.000000
6324.000000,16843.000000,11275.000000,51074.000000
6360.000000,16845.000000,11258.000000,51085.000000
6339.000000,16865.000000,11279.000000,51099.000000
6339.000000,16891.000000,11268.000000,51092.000000
6368.000000,16875.000000,11322.000000,51079.000000
6380.000000,16917.000000,11314.000000,51092.000000
6401.000000,16899.000000,11349.000000,51129.000000
6439.000000,16956.000000,11388.000000,51151.000000
6464.000000,16988.000000,11402.000000,51162.000000
6453.000000,16997.000000,11427.000000,51166.000000
6517.000000,17007.000000,11484.000000,51208.000000
6560.000000,17051.000000,11497.000000,51213.000000
6593.000000,17048.000000,11578.000000,51259.000000
6612.000000,17074.000000,11601.000000,51262.000000
6642.000000,17096.000000,11640.000000,51271.000000
6674.000000,17143.000000,11679.000000,51316.000000
6741.000000,17161.000000,11718.000000,51349.000000
6757.000000,17183.000000,11790.000000,51379.000000
6815.000000,17217.000000,11845.000000,51393.000000
6874.000000,17272.000000,11914.000000,51449.000000
6908.000000,17317.000000,11964.000000,51473.000000
6972.000000,17337.000000,12002.000000,51523.000000
7039.000000,17388.000000,12101.000000,51563.000000
7093.000000,17439.000000,12146.000000,51591.000000
7169.000000,17481.000000,12217.000000,51640.000000
7227.000000,17545.000000,12299.000000,51659.000000
7270.000000,17610.000000,12385.000000,51753.000000
7377.000000,17644.000000,12464.000000,51743.000000
7463.000000,17676.000000,12541.000000,51788.000000
7541.000000,17740.000000,12588.000000,51842.000000
7549.000000,17773.000000,12642.000000,51865.000000
7553.000000,17785.000000,12697.000000,51850.000000
7631.000000,17809.000000,12689.000000,51873.000000
7605.000000,17819.000000,12716.000000,51907.000000
7608.000000,17817.000000,12733.000000,51893.000000
7611.000000,17815.000000,12706.000000,51905.000000
7595.000000,17819.000000,12718.000000,51884.000000
7586.000000,17803.000000,12714.000000,51911.000000
7616.000000,17833.000000,12689.000000,51897.000000
7587.000000,17817.000000,12703.000000,51891.000000
7556.000000,17791.000000,12682.000000,51910.000000
7564.000000,17799.000000,12683.000000,51881.000000
7530.000000,17785.000000,12669.000000,51861.000000
7574.000000,17779.000000,12655.000000,51876.000000
7548.000000,17781.000000,12663.000000,51856.000000
7523.000000,17775.000000,12671.000000,51847.000000
7500.000000,17775.000000,12619.000000,51847.000000
7505.000000,17755.000000,12597.000000,51834.000000
7514.000000,17739.000000,12624.000000,51834.000000
7514.000000,17749.000000,12581.000000,51831.000000
7497.000000,17736.000000,12597.000000,51828.000000
7473.000000,17735.000000,12575.000000,51813.000000
7481.000000,17715.000000,12565.000000,51801.000000
7470.000000,17721.000000,12538.000000,51792.000000
7431.000000,17687.000000,12519.000000,51815.000000
7409.000000,17677.000000,12529.000000,51781.000000
7390.000000,17689.000000,12531.000000,51772.000000
7424.000000,17675.000000,12498.000000,51790.000000
7418.000000,17671.000000,12477.000000,51761.000000
7393.000000,17661.000000,12483.000000,51762.000000
7379.000000,17641.000000,12477.000000,51736.000000
7390.000000,17645.000000,12481.000000,51754.000000
7374.000000,17653.000000,12472.000000,51771.000000
7356.000000,17620.000000,12444.000000,51743.000000
7339.000000,17618.000000,12437.000000,51716.000000
7363.000000,17586.000000,12410.000000,51713.000000
7342.000000,17607.000000,12383.000000,51741.000000
7289.000000,17605.000000,12396.000000,51709.000000
7291.000000,17599.000000,12379.000000,51704.000000
7297.000000,17602.000000,12376.000000,51694.000000
7277.000000,17599.000000,12341.000000,51708.000000
7287.000000,17561.000000,12344.000000,51650.000000
7287.000000,17570.000000,12347.000000,51695.000000
7243.000000,17547.000000,12323.000000,51693.000000
7252.000000,17540.000000,12315.000000,51693.000000
7223.000000,17542.000000,12313.000000,51651.000000
7218.000000,17520.000000,12271.000000,51689.000000
7229.000000,17514.000000,12258.000000,51631.000000
7199.000000,17515.000000,12251.000000,51647.000000
7162.000000,17487.000000,12233.000000,51641.000000
7172.000000,17482.000000,12224.000000,51632.000000
7132.000000,17477.000000,12214.000000,51620.000000
7141.000000,17477.000000,12196.000000,51581.000000
7105.000000,17462.000000,12188.000000,51599.000000
7122.000000,17458.000000,12123.000000,51601.000000
7073.000000,17417.000000,12097.000000,51540.000000
7088.000000,17409.000000,12108.000000,51545.000000
7053.000000,17417.000000,12089.000000,51549.000000
7024.000000,17388.000000,12085.000000,51531.000000
7037.000000,17399.000000,12075.000000,51535.000000
7008.000000,17357.000000,12043.000000,51503.000000
7014.000000,17365.000000,12045.000000,51496.000000
7007.000000,17364.000000,12032.000000,51468.000000
6963.000000,17365.000000,12008.000000,51511.000000
6966.000000,17347.000000,11977.000000,51481.000000
6965.000000,17304.000000,11945.000000,51459.000000
6955.000000,17335.000000,11971.000000,51468.000000
6932.000000,17311.000000,11931.000000,51457.000000
6921.000000,17301.000000,11945.000000,51451.000000
6903.000000,17263.000000,11913.000000,51442.000000
6923.000000,17272.000000,11907.000000,51429.000000
6872.000000,17281.000000,11887.000000,51425.000000
6876.000000,17259.000000,11870.000000,51429.000000
6826.000000,17272.000000,11899.000000,51403.000000
7104.000000,17240.000000,11842.000000,51392.000000
6837.000000,17223.000000,11842.000000,51406.000000
6837.000000,17216.000000,11824.000000,51410.000000
6802.000000,17211.000000,11804.000000,51367.000000
6812.000000,17211.000000,11780.000000,51384.000000
6786.000000,17175.000000,11724.000000,51347.000000
6739.000000,17184.000000,11772.000000,51349.000000
6734.000000,17127.000000,11720.000000,51356.000000
6731.000000,17145.000000,11724.000000,51328.000000
6726.000000,17153.000000,11701.000000,51320.000000
6692.000000,17131.000000,11659.000000,51286.000000
6667.000000,17086.000000,11639.000000,51279.000000
6684.000000,17073.000000,11643.000000,51296.000000
6674.000000,17069.000000,11631.000000,51283.000000
6659.000000,17070.000000,11607.000000,51261.000000
6620.000000,17057.000000,11603.000000,51212.000000
6601.000000,17018.000000,11568.000000,51276.000000
6570.000000,17058.000000,11557.000000,51234.000000
6577.000000,17005.000000,11531.000000,51202.000000
6550.000000,17018.000000,11502.000000,51187.000000
6511.000000,16998.000000,11439.000000,51171.000000
6503.000000,16974.000000,11412.000000,51167.000000
6495.000000,16938.000000,11429.000000,51167.000000
6448.000000,16940.000000,11375.000000,51139.000000
6434.000000,16925.000000,11366.000000,51121.000000
6407.000000,16935.000000,11339.000000,51104.000000
6369.000000,16903.000000,11314.000000,51084.000000
6368.000000,16892.000000,11300.000000,51103.000000
6383.000000,16888.000000,11287.000000,51073.000000
6326.000000,16837.000000,11252.000000,51074.000000
6327.000000,16848.000000,11276.000000,51055.000000
6335.000000,16883.000000,11246.000000,51079.000000
6350.000000,16887.000000,11246.000000,51067.000000
6368.000000,16877.000000,11281.000000,51084.000000
6354.000000,16879.000000,11274.000000,51056.000000
6357.000000,16877.000000,11281.000000,51067.000000
6385.000000,16887.000000,11276.000000,51089.000000
6388.000000,16907.000000,11285.000000,51113.000000
6383.000000,16881.000000,11303.000000,51123.000000
6387.000000,16914.000000,11328.000000,51095.000000
6401.000000,16925.000000,11324.000000,51143.000000
6416.000000,17175.000000,11339.000000,51113.000000
6423.000000,16939.000000,11376.000000,51136.000000
6465.000000,16960.000000,11423.000000,51179.000000
6472.000000,16955.000000,11417.000000,51184.000000
6498.000000,16968.000000,11464.000000,51183.000000
6509.000000,16992.000000,11487.000000,51195.000000
6570.000000,17042.000000,11532.000000,51230.000000
6589.000000,17081.000000,11575.000000,51254.000000
6633.000000,17111.000000,11609.000000,51270.000000
6667.000000,17086.000000,11651.000000,51295.000000
6722.000000,17175.000000,11701.000000,51351.000000
6721.000000,17199.000000,11744.000000,51337.000000
6778.000000,17188.000000,11767.000000,51386.000000
6827.000000,17243.000000,11841.000000,51414.000000
6876.000000,17303.000000,11915.000000,51442.000000
6930.000000,17327.000000,11972.000000,51461.000000
7013.000000,17363.000000,12030.000000,51527.000000
7076.000000,17410.000000,12109.000000,51556.000000
7122.000000,17439.000000,12211.000000,51593.000000
7210.000000,17510.000000,12280.000000,51656.000000
7284.000000,17563.000000,12317.000000,51712.000000
7342.000000,17617.000000,12441.000000,51740.000000
7395.000000,17649.000000,12485.000000,51779.000000
7430.000000,17708.000000,12550.000000,51818.000000
7497.000000,17751.000000,12613.000000,51879.000000
7533.000000,17803.000000,12653.000000,51867.000000
7568.000000,17811.000000,12696.000000,51886.000000
7607.000000,17803.000000,12699.000000,51866.000000
7583.000000,17815.000000,12700.000000,51882.000000
7580.000000,17809.000000,12695.000000,51876.000000
7560.000000,17808.000000,12713.000000,51899.000000
7594.000000,17799.000000,12674.000000,51859.000000
7592.000000,17789.000000,12672.000000,51883.000000
7547.000000,17799.000000,12654.000000,51875.000000
7541.000000,17767.000000,12647.000000,51842.000000
7543.000000,17773.000000,12654.000000,51873.000000
7550.000000,17783.000000,12643.000000,51867.000000
7498.000000,17769.000000,12643.000000,51837.000000
7525.000000,17783.000000,12608.000000,51828.000000
7516.000000,17780.000000,12611.000000,51841.000000
7493.000000,17755.000000,12563.000000,51839.000000
7485.000000,17743.000000,12608.000000,51818.000000
7475.000000,17735.000000,12588.000000,51799.000000
7444.000000,17711.000000,12566.000000,51790.000000
7472.000000,17707.000000,12525.000000,51782.000000
7412.000000,17721.000000,12532.000000,51793.000000
7420.000000,17687.000000,12500.000000,51789.000000
7421.000000,17689.000000,12498.000000,51781.000000
7413.000000,17672.000000,12495.000000,51781.000000
7393.000000,17680.000000,12466.000000,51759.000000
7383.000000,17672.000000,12484.000000,51757.000000
7398.000000,17660.000000,12439.000000,51744.000000
7375.000000,17645.000000,12461.000000,51751.000000
7348.000000,17649.000000,12397.000000,51738.000000
7340.000000,17630.000000,12413.000000,51700.000000
7311.000000,17619.000000,12385.000000,51704.000000
7331.000000,17621.000000,12384.000000,51705.000000
7293.000000,17591.000000,12358.000000,51692.000000
7308.000000,17592.000000,12384.000000,51685.000000
7304.000000,17593.000000,12358.000000,51671.000000
7276.000000,17593.000000,12315.000000,51659.000000
7259.000000,17563.000000,12330.000000,51691.000000
7239.000000,17546.000000,12287.000000,51653.000000
7225.000000,17533.000000,12288.000000,51666.000000
7232.000000,17551.000000,12255.000000,51658.000000
7210.000000,17540.000000,12270.000000,51644.000000
7189.000000,17504.000000,12287.000000,51631.000000
7192.000000,17466.000000,12247.000000,51613.000000
7178.000000,17456.000000,12232.000000,51603.000000
7150.000000,17480.000000,12194.000000,51619.000000
7145.000000,17458.000000,12149.000000,51551.000000
7114.000000,17463.000000,12151.000000,51580.000000
7111.000000,17420.000000,12136.000000,51557.000000
7081.000000,17424.000000,12147.000000,51572.000000
7077.000000,17405.000000,12102.000000,51575.000000
7070.000000,17385.000000,12090.000000,51528.000000
7067.000000,17410.000000,12080.000000,51542.000000
7055.000000,17365.000000,12058.000000,51540.000000
7030.000000,17360.000000,12021.000000,51491.000000
7026.000000,17391.000000,12018.000000,51520.000000
6980.000000,17387.000000,12020.000000,51508.000000
6980.000000,17324.000000,11977.000000,51471.000000
6967.000000,17339.000000,11975.000000,51499.000000
6957.000000,17356.000000,11956.000000,51483.000000
6924.000000,17323.000000,11959.000000,51462.000000
6934.000000,17299.000000,11955.000000,51438.000000
6955.000000,17307.000000,11925.000000,51444.000000
6927.000000,17292.000000,11913.000000,51444.000000
6913.000000,17292.000000,11879.000000,51425.000000
6846.000000,17283.000000,11862.000000,51413.000000
6883.000000,17259.000000,11851.000000,51430.000000
6859.000000,17252.000000,11858.000000,51423.000000
6829.000000,17231.000000,11833.000000,51397.000000
6841.000000,17235.000000,11834.000000,51358.000000
6827.000000,17233.000000,11833.000000,51383.000000
6833.000000,17219.000000,11767.000000,51365.000000
6810.000000,17237.000000,11799.000000,51365.000000
6804.000000,17209.000000,11778.000000,51347.000000
6782.000000,17179.000000,11751.000000,51356.000000
6768.000000,17192.000000,11736.000000,51339.000000
6754.000000,17151.000000,11725.000000,51338.000000
6765.000000,17171.000000,11739.000000,51341.000000
6737.000000,17173.000000,11682.000000,51321.000000
6735.000000,17155.000000,11700.000000,51296.000000
6721.000000,17181.000000,11657.000000,51297.000000
6664.000000,17144.000000,11624.000000,51268.000000
6684.000000,17112.000000,11610.000000,51273.000000
6683.000000,17106.000000,11629.000000,51284.000000
6620.000000,17107.000000,11583.000000,51252.000000
6633.000000,17080.000000,11587.000000,51244.000000
6632.000000,17088.000000,11553.000000,51248.000000
6573.000000,17299.000000,11527.000000,51209.000000
6586.000000,17032.000000,11521.000000,51214.000000
6577.000000,17029.000000,11503.000000,51205.000000
6529.000000,17017.000000,11474.000000,51218.000000
6536.000000,17263.000000,11490.000000,51193.000000
6518.000000,16996.000000,11450.000000,51179.000000
6515.000000,16996.000000,11434.000000,51167.000000
6459.000000,16967.000000,11384.000000,51147.000000
6460.000000,17203.000000,11345.000000,51147.000000
6439.000000,16951.000000,11355.000000,51151.000000
6421.000000,16944.000000,11328.000000,51108.000000
6366.000000,16913.000000,11291.000000,51079.000000
6368.000000,16915.000000,11271.000000,51091.000000
6329.000000,16864.000000,11276.000000,51074.000000
6318.000000,16856.000000,11224.000000,51052.000000
6301.000000,16865.000000,11232.000000,51051.000000
6290.000000,16831.000000,11218.000000,51045.000000
6290.000000,16835.000000,11197.000000,51031.000000
6276.000000,16835.000000,11193.000000,51043.000000
6269.000000,16855.000000,11189.000000,51016.000000
6265.000000,16833.000000,11162.000000,51025.000000
6263.000000,16839.000000,11157.000000,51023.000000
6250.000000,16831.000000,11183.000000,51003.000000
6272.000000,16833.000000,11194.000000,51023.000000
6287.000000,16831.000000,11172.000000,51020.000000
6300.000000,16839.000000,11199.000000,51071.000000
6296.000000,16844.000000,11185.000000,51039.000000
6315.000000,16863.000000,11243.000000,51051.000000
6325.000000,16843.000000,11242.000000,51049.000000
6330.000000,16857.000000,11271.000000,51090.000000
6377.000000,16875.000000,11291.000000,51109.000000
6349.000000,16910.000000,11318.000000,51119.000000
6419.000000,16935.000000,11328.000000,51142.000000
6442.000000,16916.000000,11332.000000,51133.000000
6448.000000,16981.000000,11427.000000,51179.000000
6514.000000,16991.000000,11418.000000,51159.000000
6503.000000,17273.000000,11484.000000,51187.000000
6573.000000,17063.000000,11510.000000,51218.000000
6624.000000,17088.000000,11568.000000,51252.000000
6643.000000,17357.000000,11596.000000,51280.000000
6725.000000,17132.000000,11682.000000,51329.000000
6738.000000,17181.000000,11732.000000,51314.000000
6767.000000,17209.000000,11800.000000,51386.000000
6823.000000,17272.000000,11832.000000,51430.000000
6892.000000,17273.000000,11889.000000,51450.000000
6930.000000,17329.000000,11986.000000,51506.000000
7014.000000,17380.000000,12032.000000,51527.000000
7052.000000,17405.000000,12098.000000,51563.000000
7119.000000,17443.000000,12208.000000,51601.000000
7206.000000,17533.000000,12243.000000,51659.000000
7249.000000,17602.000000,12344.000000,51681.000000
7331.000000,17646.000000,12439.000000,51764.000000
7423.000000,17663.000000,12475.000000,51782.000000
7468.000000,17715.000000,12592.000000,51855.000000
7525.000000,17810.000000,12636.000000,51842.000000
7556.000000,17813.000000,12679.000000,51872.000000
7580.000000,17816.000000,12689.000000,51879.000000
7606.000000,17871.000000,12710.000000,51900.000000
7596.000000,17863.000000,12733.000000,51888.000000
7601.000000,17847.000000,12710.000000,51898.000000
7593.000000,17869.000000,12716.000000,51924.000000
7595.000000,17825.000000,12688.000000,51861.000000
7575.000000,17820.000000,12710.000000,51877.000000
7565.000000,17820.000000,12701.000000,51886.000000
7569.000000,17829.000000,12713.000000,51902.000000
7586.000000,17799.000000,12659.000000,51874.000000
7565.000000,17816.000000,12677.000000,51859.000000
7551.000000,17791.000000,12639.000000,51877.000000
7525.000000,17797.000000,12634.000000,51845.000000
7547.000000,17788.000000,12647.000000,51860.000000
7539.000000,17769.000000,12639.000000,51833.000000
7511.000000,17805.000000,12592.000000,51856.000000
7509.000000,17760.000000,12636.000000,51829.000000
7500.000000,17736.000000,12572.000000,51825.000000
7459.000000,17763.000000,12578.000000,51856.000000
7477.000000,17736.000000,12562.000000,51822.000000
7463.000000,17713.000000,12531.000000,51825.000000
7421.000000,17727.000000,12528.000000,51802.000000
7436.000000,17744.000000,12519.000000,51807.000000
7449.000000,17699.000000,12491.000000,51815.000000
7453.000000,17691.000000,12496.000000,51768.000000
7427.000000,17697.000000,12499.000000,52075.000000
7437.000000,17695.000000,12504.000000,51776.000000
7388.000000,17665.000000,12491.000000,51761.000000
7396.000000,17692.000000,12483.000000,51767.000000
7391.000000,17684.000000,12460.000000,51757.000000
7385.000000,17687.000000,12459.000000,51764.000000
7389.000000,17675.000000,12481.000000,51742.000000
7363.000000,17687.000000,12447.000000,51768.000000
7354.000000,17638.000000,12432.000000,51734.000000
7317.000000,17667.000000,12408.000000,51716.000000
7335.000000,17657.000000,12412.000000,51741.000000
7319.000000,17641.000000,12410.000000,51698.000000
7295.000000,17605.000000,12391.000000,51697.000000
7331.000000,17590.000000,12361.000000,51722.000000
7270.000000,17595.000000,12321.000000,51692.000000
7258.000000,17570.000000,12343.000000,51663.000000
7280.000000,17569.000000,12337.000000,51688.000000
7243.000000,17591.000000,12296.000000,51667.000000
7240.000000,17574.000000,12306.000000,51649.000000
7232.000000,17537.000000,12273.000000,51639.000000
7236.000000,17580.000000,12256.000000,51658.000000
7176.000000,17525.000000,12231.000000,51633.000000
7170.000000,17491.000000,12222.000000,51621.000000
7176.000000,17507.000000,12199.000000,51591.000000
7167.000000,17487.000000,12187.000000,51591.000000
7140.000000,17463.000000,12178.000000,51563.000000
7146.000000,17486.000000,12149.000000,51577.000000
7105.000000,17443.000000,12161.000000,51564.000000
7092.000000,17455.000000,12127.000000,51572.000000
7093.000000,17448.000000,12076.000000,51556.000000
7065.000000,17413.000000,12072.000000,51532.000000
7052.000000,17426.000000,12114.000000,51547.000000
7065.000000,17432.000000,12083.000000,51559.000000
7046.000000,17402.000000,12036.000000,51540.000000
7028.000000,17404.000000,12057.000000,51522.000000
7021.000000,17372.000000,12046.000000,51525.000000
7003.000000,17363.000000,12016.000000,51505.000000
6978.000000,17379.000000,12019.000000,51508.000000
6969.000000,17384.000000,11982.000000,51521.000000
6974.000000,17385.000000,11984.000000,51491.000000
6981.000000,17345.000000,11957.000000,51483.000000
6951.000000,17353.000000,11970.000000,51452.000000
6929.000000,17319.000000,11959.000000,51479.000000
6929.000000,17335.000000,11940.000000,51483.000000
6895.000000,17308.000000,11911.000000,51438.000000
6884.000000,17292.000000,11885.000000,51441.000000
6896.000000,17281.000000,11884.000000,51402.000000
6889.000000,17284.000000,11879.000000,51413.000000
6850.000000,17272.000000,11820.000000,51409.000000
6848.000000,17277.000000,11825.000000,51405.000000
6841.000000,17249.000000,11811.000000,51397.000000
6821.000000,17251.000000,11825.000000,51402.000000
6804.000000,17239.000000,11810.000000,51383.000000
6794.000000,17231.000000,11786.000000,51388.000000
6776.000000,17240.000000,11766.000000,51359.000000
6780.000000,17223.000000,11784.000000,51383.000000
6755.000000,17161.000000,11719.000000,51364.000000
6750.000000,17215.000000,11743.000000,51359.000000
6715.000000,17152.000000,11689.000000,51328.000000
6721.000000,17164.000000,11657.000000,51317.000000
6709.000000,17125.000000,11672.000000,51293.000000
6684.000000,17161.000000,11661.000000,51297.000000
6672.000000,17129.000000,11642.000000,51302.000000
6649.000000,17375.000000,11620.000000,51281.000000
6625.000000,17120.000000,11605.000000,51290.000000
6621.000000,17103.000000,11577.000000,51261.000000
6577.000000,17070.000000,11541.000000,51225.000000
6607.000000,17051.000000,11529.000000,51252.000000
6564.000000,17060.000000,11503.000000,51229.000000
6500.000000,17024.000000,11466.000000,51188.000000
6495.000000,16984.000000,11422.000000,51180.000000
6500.000000,17000.000000,11408.000000,51176.000000
6423.000000,16946.000000,11398.000000,51156.000000
6416.000000,16957.000000,11364.000000,51157.000000
6415.000000,16946.000000,11361.000000,51146.000000
6403.000000,16912.000000,11321.000000,51133.000000
6399.000000,17191.000000,11297.000000,51119.000000
6410.000000,16905.000000,11315.000000,51099.000000
6349.000000,16915.000000,11285.000000,51103.000000
6337.000000,16903.000000,11297.000000,51127.000000
6379.000000,16911.000000,11310.000000,51099.000000
6364.000000,16933.000000,11291.000000,51081.000000
6374.000000,16914.000000,11273.000000,51108.000000
6387.000000,16913.000000,11311.000000,51087.000000
6377.000000,17197.000000,11337.000000,51119.000000
6361.000000,16927.000000,11329.000000,51123.000000
6416.000000,16967.000000,11382.000000,51151.000000
6421.000000,16915.000000,11360.000000,51121.000000
6432.000000,17001.000000,11379.000000,51139.000000
6431.000000,16989.000000,11365.000000,51184.000000
6473.000000,16958.000000,11423.000000,51174.000000
6487.000000,16976.000000,11452.000000,51173.000000
6497.000000,17046.000000,11474.000000,51211.000000
6551.000000,17319.000000,11488.000000,51184.000000
6542.000000,17056.000000,11527.000000,51221.000000
6553.000000,17351.000000,11574.000000,51270.000000
6608.000000,17109.000000,11621.000000,51293.000000
6664.000000,17159.000000,11658.000000,51310.000000
6693.000000,17168.000000,11670.000000,51340.000000
6746.000000,17232.000000,11771.000000,51368.000000
6770.000000,17236.000000,11797.000000,51376.000000
6847.000000,17296.000000,11878.000000,51429.000000
6898.000000,17307.000000,11900.000000,51451.000000
6923.000000,17339.000000,11965.000000,51489.000000
6955.000000,17377.000000,12021.000000,51524.000000
7034.000000,17413.000000,12084.000000,51577.000000
7115.000000,17507.000000,12169.000000,51599.000000
7171.000000,17494.000000,12249.000000,51649.000000
7240.000000,17570.000000,12318.000000,51694.000000
7309.000000,17605.000000,12371.000000,51723.000000
7370.000000,17660.000000,12455.000000,51777.000000
7408.000000,17728.000000,12552.000000,51825.000000
7475.000000,17739.000000,12616.000000,51831.000000
7576.000000,17823.000000,12695.000000,51903.000000
7607.000000,17875.000000,12735.000000,51933.000000
7651.000000,17879.000000,12817.000000,51941.000000
7681.000000,17900.000000,12805.000000,51974.000000
7659.000000,17935.000000,12870.000000,51983.000000
7708.000000,17921.000000,12864.000000,51971.000000
7704.000000,17907.000000,12852.000000,51953.000000
7691.000000,17892.000000,12863.000000,51996.000000
7701.000000,17926.000000,12847.000000,51959.000000
7667.000000,17936.000000,12840.000000,51958.000000
7697.000000,17931.000000,12827.000000,51987.000000
7660.000000,17915.000000,12819.000000,51991.000000
7671.000000,17915.000000,12799.000000,51964.000000
7683.000000,17899.000000,12792.000000,51971.000000
7635.000000,17895.000000,12795.000000,51970.000000
7646.000000,17904.000000,12780.000000,51935.000000
7643.000000,17881.000000,12778.000000,51926.000000
7630.000000,17880.000000,12783.000000,51931.000000
7615.000000,17901.000000,12764.000000,51934.000000
7611.000000,17855.000000,12767.000000,51914.000000
7603.000000,17849.000000,12707.000000,51936.000000
7565.000000,17831.000000,12742.000000,51905.000000
7554.000000,17813.000000,12700.000000,51901.000000
7518.000000,17813.000000,12703.000000,51912.000000
7541.000000,17811.000000,12692.000000,51883.000000
7515.000000,17809.000000,12677.000000,51855.000000
7508.000000,17812.000000,12674.000000,51887.000000
7523.000000,17787.000000,12641.000000,51851.000000
7509.000000,17768.000000,12654.000000,51876.000000
7480.000000,17784.000000,12587.000000,51850.000000
7468.000000,17788.000000,12611.000000,51848.000000
7457.000000,17739.000000,12570.000000,51825.000000
7441.000000,17747.000000,12557.000000,51832.000000
7447.000000,17727.000000,12573.000000,51808.000000
7411.000000,17720.000000,12535.000000,51809.000000
7411.000000,17731.000000,12548.000000,51785.000000
7416.000000,17728.000000,12528.000000,51790.000000
7391.000000,17717.000000,12516.000000,51797.000000
7398.000000,17709.000000,12486.000000,51787.000000
7372.000000,17698.000000,12498.000000,51800.000000
7360.000000,17695.000000,12465.000000,51731.000000
7343.000000,17663.000000,12450.000000,51753.000000
7341.000000,17663.000000,12431.000000,51757.000000
7340.000000,17689.000000,12451.000000,51744.000000
7335.000000,17683.000000,12438.000000,51707.000000
7319.000000,17653.000000,12408.000000,51726.000000
7347.000000,17656.000000,12405.000000,51768.000000
7308.000000,17640.000000,12378.000000,51748.000000
7290.000000,17635.000000,12372.000000,51711.000000
7283.000000,17625.000000,12360.000000,51703.000000
7262.000000,17615.000000,12351.000000,51722.000000
7249.000000,17622.000000,12321.000000,51707.000000
7221.000000,17568.000000,12312.000000,51656.000000
7226.000000,17599.000000,12305.000000,51691.000000
7190.000000,17588.000000,12279.000000,51667.000000
7214.000000,17558.000000,12261.000000,51644.000000
7185.000000,17552.000000,12265.000000,51663.000000
7178.000000,17551.000000,12269.000000,51651.000000
7162.000000,17516.000000,12219.000000,51591.000000
7166.000000,17519.000000,12210.000000,51593.000000
7158.000000,17503.000000,12201.000000,51619.000000
7118.000000,17507.000000,12199.000000,51607.000000
7105.000000,17473.000000,12147.000000,51565.000000
7118.000000,17497.000000,12160.000000,51599.000000
7092.000000,17464.000000,12125.000000,51570.000000
7087.000000,17430.000000,12115.000000,51542.000000
7060.000000,17455.000000,12111.000000,51552.000000
7052.000000,17449.000000,12093.000000,51545.000000
7063.000000,17441.000000,12093.000000,51537.000000
7024.000000,17407.000000,12060.000000,51547.000000
7033.000000,17430.000000,12059.000000,51564.000000
7020.000000,17425.000000,12065.000000,51544.000000
7005.000000,17396.000000,12043.000000,51516.000000
7007.000000,17399.000000,12015.000000,51507.000000
6960.000000,17385.000000,12016.000000,51517.000000
6952.000000,17379.000000,12012.000000,51493.000000
6956.000000,17389.000000,11970.000000,51468.000000
6924.000000,17363.000000,11977.000000,51483.000000
6948.000000,17371.000000,11933.000000,51463.000000
6910.000000,17369.000000,11961.000000,51471.000000
6901.000000,17339.000000,11948.000000,51475.000000
6889.000000,17304.000000,11900.000000,51457.000000
6870.000000,17323.000000,11887.000000,51441.000000
6866.000000,17301.000000,11901.000000,51423.000000
6855.000000,17281.000000,11871.000000,51404.000000
6840.000000,17248.000000,11840.000000,51411.000000
6818.000000,17283.000000,11864.000000,51394.000000
6795.000000,17267.000000,11843.000000,51416.000000
6779.000000,17248.000000,11772.000000,51371.000000
7007.000000,17227.000000,11767.000000,51372.000000
6749.000000,17227.000000,11762.000000,51365.000000
6710.000000,17227.000000,11734.000000,51338.000000
6715.000000,17195.000000,11699.000000,51321.000000
6692.000000,17171.000000,11696.000000,51309.000000
6677.000000,17148.000000,11660.000000,51311.000000
6656.000000,17122.000000,11657.000000,51291.000000
6629.000000,17095.000000,11617.000000,51283.000000
6614.000000,17119.000000,11596.000000,51292.000000
6559.000000,17064.000000,11562.000000,51251.000000
6549.000000,17060.000000,11543.000000,51223.000000
6528.000000,17031.000000,11551.000000,51233.000000
6511.000000,17056.000000,11473.000000,51216.000000
6514.000000,17034.000000,11477.000000,51218.000000
6473.000000,17271.000000,11450.000000,51191.000000
6475.000000,17037.000000,11443.000000,51202.000000
6446.000000,16973.000000,11461.000000,51181.000000
6431.000000,17255.000000,11427.000000,51159.000000
6461.000000,17263.000000,11413.000000,51168.000000
6443.000000,16985.000000,11436.000000,51161.000000
6449.000000,17011.000000,11418.000000,51179.000000
6456.000000,16997.000000,11447.000000,51172.000000
6480.000000,17035.000000,11471.000000,51191.000000
6461.000000,17000.000000,11452.000000,51173.000000
6447.000000,17011.000000,11477.000000,51183.000000
6503.000000,17060.000000,11477.000000,51230.000000
6499.000000,17057.000000,11520.000000,51229.000000
6527.000000,17081.000000,11536.000000,51223.000000
6539.000000,17070.000000,11536.000000,51208.000000
6564.000000,17061.000000,11577.000000,51283.000000
6566.000000,17103.000000,11588.000000,51259.000000
6607.000000,17112.000000,11621.000000,51310.000000
6652.000000,17137.000000,11687.000000,51326.000000
6663.000000,17188.000000,11686.000000,51348.000000
6720.000000,17199.000000,11713.000000,51345.000000
6745.000000,17224.000000,11810.000000,51399.000000
6783.000000,17287.000000,11858.000000,51392.000000
6808.000000,17293.000000,11898.000000,51440.000000
6862.000000,17323.000000,11926.000000,51497.000000
6920.000000,17347.000000,12000.000000,51506.000000
6958.000000,17380.000000,12038.000000,51553.000000
7017.000000,17466.000000,12130.000000,51577.000000
7015.000000,17454.000000,12191.000000,51604.000000
7115.000000,17553.000000,12258.000000,51658.000000
7175.000000,17548.000000,12291.000000,51684.000000
7232.000000,17613.000000,12340.000000,51741.000000
7300.000000,17642.000000,12450.000000,51791.000000
7343.000000,17688.000000,12498.000000,51807.000000
7428.000000,17785.000000,12592.000000,51843.000000
7509.000000,17784.000000,12665.000000,51878.000000
7553.000000,17835.000000,12760.000000,51934.000000
7604.000000,17888.000000,12825.000000,51971.000000
7624.000000,17860.000000,12847.000000,51987.000000
7692.000000,17962.000000,12895.000000,52021.000000
7687.000000,17966.000000,12914.000000,52037.000000
7689.000000,17956.000000,12911.000000,52016.000000
7736.000000,17979.000000,12934.000000,52027.000000
7679.000000,17961.000000,12906.000000,52005.000000
7714.000000,17965.000000,12923.000000,52024.000000
7692.000000,17954.000000,12866.000000,51980.000000
7710.000000,18236.000000,12870.000000,52033.000000
7702.000000,18199.000000,12887.000000,51975.000000
7677.000000,17945.000000,12851.000000,51995.000000
7699.000000,17939.000000,12885.000000,52012.000000
7660.000000,17941.000000,12842.000000,51961.000000
7658.000000,17911.000000,12828.000000,51979.000000
7644.000000,17925.000000,12826.000000,51954.000000
7637.000000,17911.000000,12831.000000,51959.000000
7609.000000,17903.000000,12767.000000,51963.000000
7627.000000,17920.000000,12806.000000,51969.000000
7611.000000,17905.000000,12802.000000,51954.000000
7617.000000,17889.000000,12799.000000,51952.000000
7603.000000,17863.000000,12773.000000,51943.000000
7579.000000,17911.000000,12748.000000,51918.000000
7587.000000,17891.000000,12725.000000,51941.000000
7570.000000,17883.000000,12725.000000,51905.000000
7548.000000,17849.000000,12709.000000,51913.000000
7529.000000,17823.000000,12688.000000,51894.000000
7515.000000,17835.000000,12679.000000,51895.000000
7511.000000,17800.000000,12667.000000,51884.000000
7497.000000,17780.000000,12641.000000,51916.000000
7495.000000,17800.000000,12623.000000,51858.000000
7498.000000,17804.000000,12659.000000,51857.000000
7455.000000,17787.000000,12609.000000,51857.000000
7445.000000,17791.000000,12607.000000,51831.000000
7457.000000,17757.000000,12570.000000,51826.000000
7422.000000,17771.000000,12584.000000,51827.000000
7406.000000,17743.000000,12541.000000,51798.000000
7384.000000,17708.000000,12537.000000,51795.000000
7413.000000,17739.000000,12564.000000,51823.000000
7402.000000,17735.000000,12512.000000,51802.000000
7354.000000,17700.000000,12492.000000,51821.000000
7353.000000,17699.000000,12501.000000,51783.000000
7343.000000,17675.000000,12477.000000,51794.000000
7333.000000,17673.000000,12464.000000,51768.000000
7319.000000,17667.000000,12456.000000,51774.000000
7293.000000,17649.000000,12428.000000,51742.000000
7301.000000,17650.000000,12448.000000,51733.000000
7280.000000,17639.000000,12411.000000,51730.000000
7252.000000,17638.000000,12380.000000,51735.000000
7244.000000,17613.000000,12343.000000,51726.000000
7239.000000,17635.000000,12365.000000,51709.000000
7206.000000,17589.000000,12332.000000,51709.000000
7198.000000,17567.000000,12345.000000,51683.000000
7183.000000,17546.000000,12298.000000,51681.000000
7157.000000,17542.000000,12271.000000,51685.000000
7163.000000,17540.000000,12243.000000,51663.000000
7131.000000,17531.000000,12257.000000,51633.000000
7131.000000,17528.000000,12228.000000,51623.000000
7124.000000,17504.000000,12222.000000,51597.000000
7107.000000,17471.000000,12204.000000,51625.000000
7111.000000,17507.000000,12208.000000,51611.000000
7042.000000,17501.000000,12166.000000,51578.000000
7049.000000,17461.000000,12174.000000,51588.000000
7053.000000,17418.000000,12103.000000,51561.000000
7035.000000,17465.000000,12101.000000,51592.000000
7026.000000,17445.000000,12098.000000,51548.000000
7011.000000,17417.000000,12073.000000,51568.000000
6995.000000,17424.000000,12078.000000,51535.000000
6994.000000,17422.000000,12031.000000,51540.000000
6963.000000,17380.000000,12012.000000,51527.000000
6942.000000,17364.000000,12017.000000,51509.000000
6936.000000,17367.000000,12012.000000,51519.000000
6915.000000,17343.000000,12004.000000,51501.000000
6903.000000,17364.000000,11954.000000,51491.000000
6877.000000,17339.000000,11930.000000,51483.000000
6863.000000,17327.000000,11914.000000,51422.000000
6855.000000,17291.000000,11886.000000,51467.000000
6853.000000,17344.000000,11904.000000,51438.000000
6828.000000,17273.000000,11852.000000,51433.000000
6808.000000,17301.000000,11857.000000,51436.000000
6807.000000,17281.000000,11846.000000,51412.000000
6777.000000,17260.000000,11810.000000,51410.000000
6761.000000,17239.000000,11797.000000,51415.000000
6760.000000,17235.000000,11814.000000,51383.000000
6720.000000,17215.000000,11785.000000,51381.000000
6729.000000,17196.000000,11751.000000,51395.000000
6713.000000,17207.000000,11751.000000,51345.000000
6708.000000,17172.000000,11723.000000,51350.000000
6697.000000,17175.000000,11711.000000,51355.000000
6661.000000,17168.000000,11689.000000,51312.000000
6654.000000,17169.000000,11678.000000,51324.000000
6634.000000,17395.000000,11666.000000,51354.000000
6583.000000,17124.000000,11623.000000,51300.000000
6573.000000,17108.000000,11623.000000,51268.000000
6550.000000,17086.000000,11571.000000,51263.000000
6525.000000,17087.000000,11567.000000,51258.000000
6520.000000,17031.000000,11549.000000,51261.000000
6468.000000,17013.000000,11469.000000,51215.000000
6447.000000,17027.000000,11469.000000,51207.000000
6455.000000,16991.000000,11453.000000,51191.000000
6420.000000,17249.000000,11425.000000,51190.000000
6373.000000,16984.000000,11395.000000,51173.000000
6405.000000,16947.000000,11362.000000,51161.000000
6356.000000,17215.000000,11334.000000,51140.000000
6315.000000,16930.000000,11328.000000,51141.000000
6300.000000,17167.000000,11296.000000,51117.000000
6320.000000,16904.000000,11307.000000,51092.000000
6280.000000,16924.000000,11282.000000,51101.000000
6298.000000,16888.000000,11284.000000,51112.000000
6304.000000,16900.000000,11273.000000,51096.000000
6284.000000,16902.000000,11286.000000,51095.000000
6262.000000,16896.000000,11288.000000,51101.000000
6280.000000,16871.000000,11280.000000,51106.000000
6287.000000,16899.000000,11302.000000,51101.000000
6334.000000,16939.000000,11261.000000,51115.000000
6321.000000,16936.000000,11310.000000,51107.000000
6322.000000,16922.000000,11319.000000,51113.000000
6321.000000,16924.000000,11325.000000,51115.000000
6317.000000,16963.000000,11349.000000,51141.000000
6366.000000,16959.000000,11370.000000,51179.000000
6384.000000,17017.000000,11374.000000,51153.000000
6394.000000,16978.000000,11421.000000,51159.000000
6425.000000,17005.000000,11438.000000,51218.000000
6432.000000,17019.000000,11484.000000,51225.000000
6514.000000,17041.000000,11526.000000,51241.000000
6515.000000,17068.000000,11564.000000,51236.000000
6555.000000,17111.000000,11607.000000,51294.000000
6588.000000,17129.000000,11635.000000,51294.000000
6608.000000,17157.000000,11656.000000,51345.000000
6655.000000,17183.000000,11732.000000,51373.000000
6686.000000,17195.000000,11759.000000,51371.000000
6765.000000,17244.000000,11861.000000,51419.000000
6791.000000,17303.000000,11908.000000,51448.000000
6828.000000,17329.000000,11930.000000,51507.000000
6895.000000,17360.000000,11995.000000,51543.000000
6962.000000,17408.000000,12072.000000,51521.000000
7000.000000,17455.000000,12167.000000,51601.000000
7082.000000,17503.000000,12219.000000,51628.000000
7151.000000,17511.000000,12268.000000,51673.000000
7215.000000,17607.000000,12369.000000,51746.000000
7293.000000,17649.000000,12432.000000,51765.000000
7320.000000,17696.000000,12490.000000,51804.000000
7417.000000,17749.000000,12575.000000,51846.000000
7452.000000,17771.000000,12637.000000,51877.000000
7491.000000,17803.000000,12652.000000,51896.000000
7515.000000,17831.000000,12697.000000,51937.000000
7540.000000,17835.000000,12729.000000,51931.000000
7529.000000,17851.000000,12751.000000,51922.000000
7532.000000,17859.000000,12743.000000,51928.000000
7508.000000,17844.000000,12733.000000,51932.000000
7512.000000,17831.000000,12722.000000,51908.000000
7509.000000,17851.000000,12749.000000,51936.000000
7491.000000,17819.000000,12696.000000,51902.000000
7503.000000,17783.000000,12688.000000,51902.000000
7498.000000,17803.000000,12643.000000,51912.000000
7481.000000,17803.000000,12639.000000,51898.000000
7443.000000,17776.000000,12629.000000,51858.000000
7431.000000,17764.000000,12611.000000,51853.000000
7419.000000,17759.000000,12611.000000,51849.000000
7427.000000,17772.000000,12598.000000,51888.000000
7406.000000,17723.000000,12577.000000,51847.000000
7390.000000,17752.000000,12565.000000,51852.000000
7386.000000,17735.000000,12570.000000,51864.000000
7382.000000,17756.000000,12534.000000,51853.000000
7399.000000,17725.000000,12570.000000,51825.000000
7351.000000,17708.000000,12545.000000,51819.000000
7357.000000,17691.000000,12532.000000,51822.000000
7348.000000,17739.000000,12519.000000,51802.000000
7384.000000,17739.000000,12530.000000,51796.000000
7344.000000,17715.000000,12517.000000,51814.000000
7345.000000,17725.000000,12524.000000,51799.000000
7309.000000,17720.000000,12527.000000,51806.000000
7323.000000,17715.000000,12508.000000,51801.000000
7332.000000,17693.000000,12487.000000,51774.000000
7291.000000,17679.000000,12480.000000,51781.000000
7307.000000,17661.000000,12437.000000,51774.000000
7306.000000,17663.000000,12458.000000,51766.000000
7262.000000,17647.000000,12426.000000,51769.000000
7267.000000,17638.000000,12419.000000,51759.000000
7262.000000,17606.000000,12390.000000,51750.000000
7271.000000,17621.000000,12407.000000,51725.000000
7238.000000,17603.000000,12355.000000,51711.000000
7205.000000,17609.000000,12368.000000,51716.000000
7189.000000,17616.000000,12337.000000,51708.000000
7174.000000,17591.000000,12323.000000,51687.000000
7163.000000,17567.000000,12320.000000,51707.000000
7152.000000,17544.000000,12311.000000,51679.000000
7144.000000,17543.000000,12287.000000,51692.000000
7136.000000,17543.000000,12262.000000,51670.000000
7112.000000,17519.000000,12249.000000,51673.000000
7115.000000,17506.000000,12242.000000,51663.000000
7083.000000,17514.000000,12204.000000,51640.000000
7082.000000,17497.000000,12212.000000,51621.000000
7047.000000,17485.000000,12169.000000,51609.000000
7032.000000,17479.000000,12147.000000,51609.000000
7064.000000,17443.000000,12128.000000,51615.000000
7034.000000,17451.000000,12168.000000,51596.000000
6992.000000,17427.000000,12109.000000,51608.000000
6988.000000,17440.000000,12114.000000,51575.000000
6989.000000,17404.000000,12090.000000,51559.000000
6939.000000,17422.000000,12083.000000,51580.000000
6951.000000,17393.000000,12030.000000,51548.000000
6935.000000,17373.000000,12064.000000,51528.000000
6906.000000,17398.000000,12036.000000,51548.000000
6912.000000,17365.000000,12031.000000,51523.000000
6894.000000,17372.000000,11995.000000,51517.000000
6889.000000,17349.000000,11983.000000,51511.000000
6864.000000,17389.000000,11981.000000,51493.000000
6867.000000,17315.000000,11944.000000,51477.000000
6865.000000,17339.000000,11982.000000,51495.000000
6827.000000,17337.000000,11925.000000,51482.000000
6809.000000,17327.000000,11925.000000,51455.000000
6808.000000,17263.000000,11898.000000,51434.000000
6767.000000,17268.000000,11867.000000,51443.000000
6742.000000,17257.000000,11854.000000,51414.000000
6738.000000,17239.000000,11830.000000,51407.000000
6741.000000,17255.000000,11833.000000,51403.000000
6728.000000,17220.000000,11824.000000,51411.000000
6687.000000,17221.000000,11782.000000,51418.000000
6703.000000,17211.000000,11759.000000,51369.000000
6690.000000,17183.000000,11757.000000,51380.000000
6664.000000,17187.000000,11741.000000,51344.000000
6650.000000,17197.000000,11757.000000,51363.000000
6622.000000,17188.000000,11727.000000,51364.000000
6615.000000,17160.000000,11666.000000,51354.000000
6627.000000,17133.000000,11662.000000,51322.000000
6617.000000,17143.000000,11673.000000,51309.000000
6588.000000,17116.000000,11645.000000,51302.000000
6582.000000,17102.000000,11627.000000,51276.000000
6539.000000,17115.000000,11623.000000,51305.000000
6533.000000,17106.000000,11569.000000,51294.000000
6529.000000,17048.000000,11581.000000,51267.000000
6507.000000,17071.000000,11567.000000,51268.000000
6470.000000,17059.000000,11510.000000,51249.000000
6456.000000,17296.000000,11513.000000,51242.000000
6463.000000,17006.000000,11490.000000,51219.000000
6420.000000,17006.000000,11475.000000,51210.000000
6397.000000,17020.000000,11450.000000,51173.000000
6374.000000,16980.000000,11418.000000,51176.000000
6349.000000,17227.000000,11386.000000,51139.000000
6303.000000,16932.000000,11364.000000,51139.000000
6320.000000,16929.000000,11304.000000,51128.000000
6247.000000,16923.000000,11293.000000,51111.000000
6245.000000,16877.000000,11249.000000,51091.000000
6216.000000,16872.000000,11228.000000,51083.000000
6187.000000,16859.000000,11193.000000,51051.000000
6158.000000,16837.000000,11191.000000,51055.000000
6166.000000,16836.000000,11182.000000,51048.000000
6145.000000,16839.000000,11152.000000,51043.000000
6127.000000,16789.000000,11144.000000,51037.000000
6139.000000,16825.000000,11146.000000,51026.000000
6132.000000,16833.000000,11156.000000,51017.000000
6121.000000,16796.000000,11146.000000,51029.000000
6108.000000,16827.000000,11149.000000,51024.000000
6129.000000,16824.000000,11157.000000,51043.000000
6145.000000,16829.000000,11214.000000,51055.000000
6159.000000,16843.000000,11195.000000,51055.000000
6194.000000,16851.000000,11177.000000,51089.000000
6180.000000,16859.000000,11229.000000,51101.000000
6180.000000,16859.000000,11238.000000,51066.000000
6218.000000,16899.000000,11245.000000,51087.000000
6255.000000,16899.000000,11281.000000,51095.000000
6276.000000,16898.000000,11305.000000,51155.000000
6319.000000,16947.000000,11320.000000,51133.000000
6334.000000,16944.000000,11341.000000,51155.000000
6357.000000,16962.000000,11410.000000,51183.000000
6386.000000,16994.000000,11411.000000,51211.000000
6378.000000,17002.000000,11467.000000,51190.000000
6450.000000,17027.000000,11505.000000,51237.000000
6449.000000,17080.000000,11543.000000,51261.000000
6500.000000,17120.000000,11588.000000,51293.000000
6576.000000,17131.000000,11651.000000,51312.000000
6558.000000,17180.000000,11693.000000,51371.000000
6644.000000,17213.000000,11755.000000,51398.000000
6676.000000,17235.000000,11834.000000,51422.000000
6721.000000,17265.000000,11870.000000,51447.000000
6789.000000,17309.000000,11916.000000,51484.000000
6847.000000,17311.000000,11976.000000,51516.000000
6904.000000,17391.000000,12052.000000,51565.000000
6971.000000,17424.000000,12147.000000,51603.000000
