660nm,730nm,850nm,940nm
51713.000000,1776.000000,1313.000000,42867.000000
51709.000000,1793.000000,1339.000000,42867.000000
51704.000000,1763.000000,1311.000000,42847.000000
51705.000000,1803.000000,1293.000000,42856.000000
51703.000000,1774.000000,1289.000000,42851.000000
51699.000000,1771.000000,1297.000000,42833.000000
51664.000000,1985.000000,1297.000000,42851.000000
51679.000000,1993.000000,1298.000000,42847.000000
51671.000000,1742.000000,1322.000000,42831.000000
51673.000000,1999.000000,1287.000000,42807.000000
51668.000000,1757.000000,1292.000000,42835.000000
51652.000000,1744.000000,1311.000000,42817.000000
51635.000000,1741.000000,1294.000000,42808.000000
51646.000000,1710.000000,1264.000000,42812.000000
51622.000000,1699.000000,1287.000000,42807.000000
51619.000000,1693.000000,1272.000000,42801.000000
51616.000000,1688.000000,1281.000000,42824.000000
51609.000000,1703.000000,1236.000000,42780.000000
51627.000000,1929.000000,1214.000000,42794.000000
51601.000000,1700.000000,1248.000000,42799.000000
51621.000000,1939.000000,1261.000000,42803.000000
51623.000000,1688.000000,1200.000000,42807.000000
51612.000000,1943.000000,1207.000000,42795.000000
51655.000000,1951.000000,1214.000000,42819.000000
51660.000000,1703.000000,1185.000000,42841.000000
51662.000000,2000.000000,1192.000000,42816.000000
51688.000000,1699.000000,1157.000000,42813.000000
51673.000000,1983.000000,1133.000000,42855.000000
51718.000000,1999.000000,1154.000000,42863.000000
51704.000000,2009.000000,1119.000000,42852.000000
51735.000000,2009.000000,1135.000000,42843.000000
51752.000000,2039.000000,1139.000000,42879.000000
51773.000000,1805.000000,1132.000000,42905.000000
51764.000000,1825.000000,1116.000000,42901.000000
51811.000000,1843.000000,1133.000000,42915.000000
51847.000000,1857.000000,1129.000000,42966.000000
51886.000000,1891.000000,1137.000000,42971.000000
51920.000000,1900.000000,1122.000000,42975.000000
51915.000000,1912.000000,1124.000000,42985.000000
51922.000000,1912.000000,1105.000000,43015.000000
51937.000000,1919.000000,1130.000000,43009.000000
51966.000000,1955.000000,1119.000000,42996.000000
51987.000000,1948.000000,1149.000000,43049.000000
51977.000000,1967.000000,1162.000000,43041.000000
51969.000000,1987.000000,1171.000000,43011.000000
51999.000000,1967.000000,1214.000000,43035.000000
51981.000000,1979.000000,1205.000000,43059.000000
51960.000000,1987.000000,1279.000000,43013.000000
52004.000000,1969.000000,1288.000000,43043.000000
51992.000000,1993.000000,1348.000000,43015.000000
51987.000000,1951.000000,1371.000000,43022.000000
51967.000000,1960.000000,1398.000000,43038.000000
51967.000000,1964.000000,1426.000000,43036.000000
51966.000000,1983.000000,1432.000000,43007.000000
51971.000000,1963.000000,1446.000000,43068.000000
51956.000000,1979.000000,1471.000000,43007.000000
51939.000000,1933.000000,1498.000000,43019.000000
51934.000000,1916.000000,1533.000000,43009.000000
51947.000000,1936.000000,1537.000000,42979.000000
51934.000000,1945.000000,1527.000000,43007.000000
51967.000000,1931.000000,1477.000000,43026.000000
51940.000000,1921.000000,1542.000000,42987.000000
51913.000000,1916.000000,1506.000000,42985.000000
51936.000000,1939.000000,1505.000000,43007.000000
51947.000000,1940.000000,1501.000000,42977.000000
51926.000000,1955.000000,1531.000000,42995.000000
51932.000000,1937.000000,1473.000000,43015.000000
51928.000000,1947.000000,1523.000000,42984.000000
51914.000000,1940.000000,1502.000000,43013.000000
51932.000000,1931.000000,1550.000000,42995.000000
51911.000000,1937.000000,1538.000000,43007.000000
51918.000000,1931.000000,1529.000000,42979.000000
51913.000000,1941.000000,1506.000000,42988.000000
51921.000000,1891.000000,1518.000000,43018.000000
51910.000000,1931.000000,1512.000000,42972.000000
51905.000000,1913.000000,1483.000000,42977.000000
51877.000000,1907.000000,1543.000000,42963.000000
51890.000000,1928.000000,1513.000000,42983.000000
51907.000000,1927.000000,1511.000000,42984.000000
51869.000000,1925.000000,1509.000000,42987.000000
51880.000000,1927.000000,1538.000000,42967.000000
51883.000000,1891.000000,1499.000000,42981.000000
51886.000000,1913.000000,1501.000000,42975.000000
51867.000000,1879.000000,1500.000000,42968.000000
51882.000000,1907.000000,1535.000000,42983.000000
51844.000000,1899.000000,1516.000000,42947.000000
51861.000000,1887.000000,1529.000000,42959.000000
51849.000000,1872.000000,1515.000000,42929.000000
51847.000000,1873.000000,1511.000000,42908.000000
51860.000000,1847.000000,1515.000000,42929.000000
51864.000000,1863.000000,1502.000000,42931.000000
51812.000000,1859.000000,1497.000000,42927.000000
51818.000000,1853.000000,1528.000000,42936.000000
51836.000000,1863.000000,1516.000000,42911.000000
51803.000000,1844.000000,1504.000000,42917.000000
51856.000000,1859.000000,1476.000000,42903.000000
52072.000000,1837.000000,1494.000000,42921.000000
51815.000000,1837.000000,1511.000000,42921.000000
51819.000000,1825.000000,1517.000000,42911.000000
52055.000000,1840.000000,1503.000000,42908.000000
51748.000000,1835.000000,1518.000000,42914.000000
51763.000000,1828.000000,1504.000000,42919.000000
51776.000000,1831.000000,1496.000000,42907.000000
51792.000000,1859.000000,1491.000000,42920.000000
51763.000000,1817.000000,1498.000000,42897.000000
51777.000000,1829.000000,1499.000000,42899.000000
51761.000000,1824.000000,1476.000000,42905.000000
51789.000000,1809.000000,1491.000000,42877.000000
51750.000000,1841.000000,1493.000000,42881.000000
51727.000000,1811.000000,1499.000000,42863.000000
51734.000000,1836.000000,1505.000000,42896.000000
51717.000000,1801.000000,1529.000000,42867.000000
51691.000000,1791.000000,1489.000000,42853.000000
51728.000000,1796.000000,1500.000000,42867.000000
51702.000000,1787.000000,1510.000000,42852.000000
51741.000000,1811.000000,1502.000000,42867.000000
51727.000000,1776.000000,1481.000000,42881.000000
51692.000000,1795.000000,1515.000000,42897.000000
51709.000000,1799.000000,1491.000000,42860.000000
51705.000000,2035.000000,1491.000000,42851.000000
51686.000000,1774.000000,1487.000000,42837.000000
51683.000000,2002.000000,1483.000000,42819.000000
51677.000000,1754.000000,1503.000000,42845.000000
51654.000000,1755.000000,1473.000000,42829.000000
51686.000000,2003.000000,1463.000000,42839.000000
51629.000000,1727.000000,1478.000000,42847.000000
51632.000000,1720.000000,1480.000000,42827.000000
51638.000000,1957.000000,1503.000000,42779.000000
51645.000000,1708.000000,1516.000000,42799.000000
51624.000000,1965.000000,1475.000000,42799.000000
51623.000000,1698.000000,1492.000000,42804.000000
51629.000000,1940.000000,1485.000000,42788.000000
51636.000000,1935.000000,1499.000000,42792.000000
51629.000000,1706.000000,1455.000000,42767.000000
51591.000000,1701.000000,1453.000000,42799.000000
51613.000000,1932.000000,1453.000000,42780.000000
51601.000000,1933.000000,1484.000000,42763.000000
51595.000000,1961.000000,1447.000000,42799.000000
51622.000000,1700.000000,1467.000000,42777.000000
51597.000000,1965.000000,1453.000000,42792.000000
51604.000000,1684.000000,1431.000000,42793.000000
51581.000000,1690.000000,1441.000000,42775.000000
51625.000000,1691.000000,1414.000000,42765.000000
51577.000000,1711.000000,1452.000000,42791.000000
51633.000000,1698.000000,1423.000000,42795.000000
51636.000000,1717.000000,1417.000000,42791.000000
51702.000000,1964.000000,1445.000000,42825.000000
51641.000000,1743.000000,1408.000000,42804.000000
51668.000000,1732.000000,1397.000000,42837.000000
51734.000000,2032.000000,1393.000000,42843.000000
51739.000000,2011.000000,1356.000000,42875.000000
51772.000000,1780.000000,1374.000000,42868.000000
51789.000000,1775.000000,1361.000000,42894.000000
51841.000000,1812.000000,1357.000000,42919.000000
51817.000000,1853.000000,1356.000000,42925.000000
51872.000000,1873.000000,1345.000000,42937.000000
51872.000000,1891.000000,1316.000000,42944.000000
51916.000000,1899.000000,1284.000000,42973.000000
51930.000000,1899.000000,1311.000000,42980.000000
51985.000000,1967.000000,1299.000000,43041.000000
51995.000000,1979.000000,1281.000000,43029.000000
52007.000000,1980.000000,1270.000000,43027.000000
51999.000000,1996.000000,1294.000000,43051.000000
51995.000000,1975.000000,1264.000000,43017.000000
52008.000000,1977.000000,1288.000000,43046.000000
52008.000000,1939.000000,1266.000000,43018.000000
52009.000000,1996.000000,1303.000000,43012.000000
51993.000000,1956.000000,1277.000000,43008.000000
51988.000000,1957.000000,1261.000000,43008.000000
51981.000000,1966.000000,1279.000000,43008.000000
51982.000000,1935.000000,1297.000000,43029.000000
52004.000000,1947.000000,1295.000000,43013.000000
51983.000000,1983.000000,1321.000000,43019.000000
51976.000000,1979.000000,1322.000000,43008.000000
51928.000000,1971.000000,1349.000000,43005.000000
51976.000000,1951.000000,1360.000000,42993.000000
51936.000000,1941.000000,1395.000000,42991.000000
51925.000000,1936.000000,1407.000000,42996.000000
51957.000000,1971.000000,1451.000000,42991.000000
51923.000000,1939.000000,1461.000000,43004.000000
51948.000000,1905.000000,1477.000000,42999.000000
51963.000000,1959.000000,1508.000000,42995.000000
51921.000000,1925.000000,1526.000000,42976.000000
51923.000000,1960.000000,1552.000000,42953.000000
51913.000000,1920.000000,1549.000000,42959.000000
51909.000000,1931.000000,1602.000000,42968.000000
51932.000000,1931.000000,1605.000000,42985.000000
51929.000000,1928.000000,1604.000000,42959.000000
51895.000000,1937.000000,1635.000000,42975.000000
51889.000000,1923.000000,1656.000000,42959.000000
51902.000000,1927.000000,1651.000000,42988.000000
51913.000000,1932.000000,1619.000000,42979.000000
51885.000000,1913.000000,1633.000000,42973.000000
51900.000000,1907.000000,1658.000000,42939.000000
51874.000000,1923.000000,1644.000000,42955.000000
51849.000000,1891.000000,1641.000000,42944.000000
51838.000000,1851.000000,1636.000000,42940.000000
51896.000000,1904.000000,1634.000000,42954.000000
51870.000000,1883.000000,1632.000000,42940.000000
51857.000000,1888.000000,1620.000000,42930.000000
51886.000000,1904.000000,1640.000000,42927.000000
51879.000000,1907.000000,1636.000000,42932.000000
51842.000000,1905.000000,1633.000000,42935.000000
51857.000000,1901.000000,1655.000000,42892.000000
51845.000000,1865.000000,1651.000000,42923.000000
51819.000000,1891.000000,1629.000000,42927.000000
51828.000000,1868.000000,1654.000000,42915.000000
51822.000000,1865.000000,1627.000000,42923.000000
51809.000000,1863.000000,1653.000000,42923.000000
51818.000000,1864.000000,1642.000000,42902.000000
51789.000000,1875.000000,1618.000000,42903.000000
52057.000000,1853.000000,1653.000000,42863.000000
51804.000000,1883.000000,1654.000000,42887.000000
51807.000000,1847.000000,1644.000000,42903.000000
51805.000000,1857.000000,1620.000000,42889.000000
51771.000000,1875.000000,1660.000000,42896.000000
51788.000000,1825.000000,1650.000000,42886.000000
51787.000000,1855.000000,1635.000000,42876.000000
51788.000000,1828.000000,1633.000000,42871.000000
51792.000000,1836.000000,1624.000000,42891.000000
51766.000000,1839.000000,1638.000000,42895.000000
51762.000000,1812.000000,1625.000000,42844.000000
51776.000000,1825.000000,1620.000000,42872.000000
51768.000000,1832.000000,1644.000000,42880.000000
51758.000000,1839.000000,1616.000000,42864.000000
51752.000000,1825.000000,1616.000000,42883.000000
51721.000000,1847.000000,1876.000000,42848.000000
51707.000000,1872.000000,1623.000000,42853.000000
51732.000000,1816.000000,1610.000000,42852.000000
51717.000000,1793.000000,1602.000000,42823.000000
51714.000000,1821.000000,1596.000000,42837.000000
51717.000000,1823.000000,1631.000000,42859.000000
51722.000000,2033.000000,1624.000000,42827.000000
51698.000000,1793.000000,1606.000000,42867.000000
51694.000000,2019.000000,1637.000000,42817.000000
51700.000000,1788.000000,1615.000000,42844.000000
51675.000000,1788.000000,1635.000000,42813.000000
51700.000000,2020.000000,1603.000000,42833.000000
51681.000000,1738.000000,1609.000000,42827.000000
51712.000000,1775.000000,1583.000000,42831.000000
51704.000000,1769.000000,1608.000000,42848.000000
51684.000000,1993.000000,1627.000000,42789.000000
51706.000000,1758.000000,1616.000000,42804.000000
51639.000000,1738.000000,1583.000000,42801.000000
51664.000000,2019.000000,1584.000000,42823.000000
51654.000000,1956.000000,1579.000000,42801.000000
51701.000000,1969.000000,1602.000000,42775.000000
51638.000000,1961.000000,1605.000000,42783.000000
51664.000000,1711.000000,1585.000000,42779.000000
51608.000000,1959.000000,1560.000000,42781.000000
51629.000000,1683.000000,1599.000000,42767.000000
51612.000000,1939.000000,1573.000000,42753.000000
51567.000000,1903.000000,1576.000000,42740.000000
51618.000000,1919.000000,1596.000000,42731.000000
51598.000000,1708.000000,1577.000000,42736.000000
51611.000000,1973.000000,1580.000000,42752.000000
51603.000000,1671.000000,1575.000000,42751.000000
51591.000000,1681.000000,1573.000000,42770.000000
51606.000000,1916.000000,1553.000000,42761.000000
51593.000000,1931.000000,1539.000000,42741.000000
51611.000000,1933.000000,1562.000000,42768.000000
51611.000000,1684.000000,1537.000000,42756.000000
51670.000000,1947.000000,1525.000000,42773.000000
51641.000000,1691.000000,1538.000000,42764.000000
51682.000000,1964.000000,1533.000000,42791.000000
51704.000000,1721.000000,1514.000000,42751.000000
51707.000000,1973.000000,1542.000000,42804.000000
51750.000000,1756.000000,1497.000000,42831.000000
51759.000000,2032.000000,1481.000000,42835.000000
51773.000000,1796.000000,1487.000000,42855.000000
51824.000000,1803.000000,1502.000000,42872.000000
51843.000000,1804.000000,1439.000000,42867.000000
51838.000000,1856.000000,1464.000000,42891.000000
51904.000000,1887.000000,1398.000000,42897.000000
51950.000000,1904.000000,1372.000000,42949.000000
51949.000000,1912.000000,1404.000000,42951.000000
51975.000000,1952.000000,1380.000000,42981.000000
51981.000000,1956.000000,1405.000000,42999.000000
52000.000000,1979.000000,1408.000000,42996.000000
52024.000000,1999.000000,1379.000000,43038.000000
52029.000000,2012.000000,1364.000000,43050.000000
52089.000000,2028.000000,1391.000000,43064.000000
52039.000000,1991.000000,1393.000000,43052.000000
52038.000000,2019.000000,1407.000000,43017.000000
52043.000000,2013.000000,1390.000000,43046.000000
52036.000000,2015.000000,1391.000000,43028.000000
52051.000000,1999.000000,1382.000000,43041.000000
52056.000000,2035.000000,1417.000000,43013.000000
52042.000000,2003.000000,1405.000000,43039.000000
52024.000000,1987.000000,1409.000000,43009.000000
52017.000000,1975.000000,1457.000000,43018.000000
52017.000000,1980.000000,1523.000000,43015.000000
52008.000000,1977.000000,1473.000000,43011.000000
52005.000000,1979.000000,1542.000000,42995.000000
51972.000000,1959.000000,1557.000000,43001.000000
51990.000000,1988.000000,1602.000000,42983.000000
51985.000000,1981.000000,1614.000000,42981.000000
51991.000000,1964.000000,1607.000000,42996.000000
51961.000000,1995.000000,1674.000000,42979.000000
51933.000000,1959.000000,1688.000000,42963.000000
51970.000000,1971.000000,1711.000000,42968.000000
51984.000000,1993.000000,1727.000000,42992.000000
51973.000000,1983.000000,1768.000000,42981.000000
51968.000000,1943.000000,1812.000000,42959.000000
51940.000000,1963.000000,1812.000000,42976.000000
51935.000000,1960.000000,1828.000000,42961.000000
51912.000000,1937.000000,1832.000000,42964.000000
51952.000000,1961.000000,1820.000000,42943.000000
51925.000000,1953.000000,1830.000000,42984.000000
51919.000000,1939.000000,1829.000000,42956.000000
51921.000000,1927.000000,1826.000000,42959.000000
51940.000000,1939.000000,1828.000000,42940.000000
51871.000000,1939.000000,1845.000000,42915.000000
51910.000000,1908.000000,1816.000000,42909.000000
51876.000000,1933.000000,1817.000000,42932.000000
51873.000000,1901.000000,1832.000000,42923.000000
52145.000000,1923.000000,1825.000000,42960.000000
51876.000000,1919.000000,1827.000000,42930.000000
51897.000000,1941.000000,1839.000000,42936.000000
51869.000000,1903.000000,1835.000000,42959.000000
51844.000000,1899.000000,1844.000000,42911.000000
51867.000000,1927.000000,1848.000000,42925.000000
51858.000000,1919.000000,1833.000000,42904.000000
51857.000000,1921.000000,1842.000000,42922.000000
51870.000000,1905.000000,1813.000000,42923.000000
51889.000000,1883.000000,1850.000000,42891.000000
51875.000000,1892.000000,1843.000000,42920.000000
51844.000000,1888.000000,1835.000000,42903.000000
51850.000000,1909.000000,1815.000000,42895.000000
51827.000000,1875.000000,1841.000000,42881.000000
51816.000000,1883.000000,1847.000000,42889.000000
51849.000000,1907.000000,1836.000000,42883.000000
51850.000000,1865.000000,1831.000000,42884.000000
51840.000000,1892.000000,1817.000000,42915.000000
51814.000000,1871.000000,1829.000000,42888.000000
51860.000000,1875.000000,1797.000000,42885.000000
51799.000000,1876.000000,1819.000000,42876.000000
51824.000000,1847.000000,1813.000000,42881.000000
51813.000000,1871.000000,1854.000000,42864.000000
51819.000000,1863.000000,1831.000000,42872.000000
51817.000000,1860.000000,1775.000000,42863.000000
51828.000000,1869.000000,1835.000000,42849.000000
51795.000000,1873.000000,1830.000000,42861.000000
51803.000000,1840.000000,1840.000000,42864.000000
51774.000000,1856.000000,1815.000000,42872.000000
51785.000000,1848.000000,1792.000000,42864.000000
51766.000000,1827.000000,1815.000000,42859.000000
51766.000000,1840.000000,1798.000000,42839.000000
51768.000000,1805.000000,1823.000000,42851.000000
51754.000000,1817.000000,1845.000000,42855.000000
51742.000000,1803.000000,1859.000000,42839.000000
51756.000000,1823.000000,1834.000000,42823.000000
51775.000000,1819.000000,1828.000000,42829.000000
51733.000000,1789.000000,1814.000000,42831.000000
51738.000000,1796.000000,1819.000000,42825.000000
51747.000000,1771.000000,1811.000000,42829.000000
51740.000000,1803.000000,1816.000000,42802.000000
51702.000000,1776.000000,1815.000000,42802.000000
51682.000000,1767.000000,1813.000000,42771.000000
51726.000000,1753.000000,1812.000000,42791.000000
51700.000000,1749.000000,1808.000000,42791.000000
51704.000000,1769.000000,1800.000000,42803.000000
51695.000000,1729.000000,1775.000000,42764.000000
51700.000000,2016.000000,1824.000000,42795.000000
51705.000000,1706.000000,1823.000000,42804.000000
51703.000000,1737.000000,1809.000000,42767.000000
51690.000000,1751.000000,1797.000000,42751.000000
51726.000000,1995.000000,1807.000000,42789.000000
51723.000000,1748.000000,1823.000000,42779.000000
51715.000000,2023.000000,1782.000000,42771.000000
51707.000000,1762.000000,1800.000000,42800.000000
51725.000000,1755.000000,1799.000000,42808.000000
51706.000000,1756.000000,1802.000000,42797.000000
51772.000000,1786.000000,1819.000000,42799.000000
51742.000000,2037.000000,1794.000000,42815.000000
51762.000000,2023.000000,1791.000000,42797.000000
51807.000000,1837.000000,1800.000000,42836.000000
51816.000000,1816.000000,1781.000000,42860.000000
51865.000000,1827.000000,1765.000000,42863.000000
51868.000000,1876.000000,1784.000000,42908.000000
51885.000000,1889.000000,1795.000000,42892.000000
51917.000000,1891.000000,1767.000000,42899.000000
51978.000000,1943.000000,1789.000000,42943.000000
51982.000000,1953.000000,1757.000000,42977.000000
51997.000000,1975.000000,1767.000000,42971.000000
52016.000000,1988.000000,1732.000000,42966.000000
52055.000000,2023.000000,1758.000000,43025.000000
52070.000000,1987.000000,1729.000000,43021.000000
52095.000000,2053.000000,1731.000000,43031.000000
52079.000000,2048.000000,1715.000000,43030.000000
52072.000000,2061.000000,1726.000000,43043.000000
52125.000000,2024.000000,1731.000000,43007.000000
52072.000000,2047.000000,1741.000000,43017.000000
52101.000000,2041.000000,1691.000000,43027.000000
52083.000000,2053.000000,1695.000000,43020.000000
52078.000000,2061.000000,1660.000000,43013.000000
52086.000000,2044.000000,1652.000000,43035.000000
52080.000000,2031.000000,1895.000000,43007.000000
52075.000000,2067.000000,1641.000000,43037.000000
52059.000000,2043.000000,1613.000000,43000.000000
52025.000000,2015.000000,1615.000000,43012.000000
52016.000000,2017.000000,1612.000000,42981.000000
52037.000000,2003.000000,1591.000000,42993.000000
52034.000000,2011.000000,1575.000000,42994.000000
52051.000000,1995.000000,1569.000000,42987.000000
52025.000000,2020.000000,1605.000000,43007.000000
52042.000000,2023.000000,1558.000000,43013.000000
52021.000000,2060.000000,1581.000000,42988.000000
52011.000000,1975.000000,1578.000000,42991.000000
52007.000000,2020.000000,1555.000000,42985.000000
52001.000000,1996.000000,1584.000000,42975.000000
52008.000000,1975.000000,1618.000000,42983.000000
52040.000000,1991.000000,1612.000000,42959.000000
52012.000000,2015.000000,1618.000000,42972.000000
51991.000000,2009.000000,1636.000000,42974.000000
52006.000000,1991.000000,1632.000000,42975.000000
52008.000000,2003.000000,1661.000000,42981.000000
51998.000000,2005.000000,1690.000000,42959.000000
51991.000000,1984.000000,1670.000000,42959.000000
51997.000000,1995.000000,1709.000000,42985.000000
51992.000000,1992.000000,1748.000000,42971.000000
51964.000000,1964.000000,1766.000000,42943.000000
51967.000000,1969.000000,1771.000000,42967.000000
51970.000000,1969.000000,1810.000000,42951.000000
51994.000000,1997.000000,1844.000000,42980.000000
51976.000000,1971.000000,1874.000000,42951.000000
51965.000000,1955.000000,1884.000000,42907.000000
51984.000000,1973.000000,1910.000000,42971.000000
51985.000000,1924.000000,1919.000000,42911.000000
51967.000000,1971.000000,1930.000000,42937.000000
51928.000000,1963.000000,1965.000000,42932.000000
51966.000000,1979.000000,1979.000000,42931.000000
51971.000000,1984.000000,1975.000000,42903.000000
51959.000000,1935.000000,1979.000000,42931.000000
51945.000000,1953.000000,1979.000000,42921.000000
52185.000000,1939.000000,1991.000000,42953.000000
51920.000000,1935.000000,1984.000000,42943.000000
51949.000000,1949.000000,2001.000000,42929.000000
51925.000000,1924.000000,2001.000000,42907.000000
51925.000000,1933.000000,1984.000000,42933.000000
51928.000000,1948.000000,1980.000000,42941.000000
51920.000000,1965.000000,1989.000000,42939.000000
51947.000000,1947.000000,1962.000000,42945.000000
51898.000000,1945.000000,2003.000000,42919.000000
51902.000000,1924.000000,1994.000000,42923.000000
51900.000000,1921.000000,1994.000000,42916.000000
51911.000000,1919.000000,2010.000000,42904.000000
51864.000000,1939.000000,1993.000000,42893.000000
51889.000000,1915.000000,1984.000000,42899.000000
51881.000000,1920.000000,1998.000000,42911.000000
51889.000000,1920.000000,2019.000000,42891.000000
51859.000000,1917.000000,2002.000000,42885.000000
51848.000000,1903.000000,1992.000000,42892.000000
51829.000000,1883.000000,1980.000000,42895.000000
51856.000000,1912.000000,1989.000000,42892.000000
51871.000000,1887.000000,1983.000000,42863.000000
51883.000000,1909.000000,1997.000000,42905.000000
51828.000000,1892.000000,2003.000000,42871.000000
51863.000000,1881.000000,1991.000000,42875.000000
51823.000000,1885.000000,1991.000000,42869.000000
51837.000000,1883.000000,2005.000000,42843.000000
51794.000000,1881.000000,2000.000000,42873.000000
51835.000000,1923.000000,2001.000000,42863.000000
51821.000000,1892.000000,1987.000000,42855.000000
51828.000000,1887.000000,2009.000000,42875.000000
51813.000000,1891.000000,1986.000000,42875.000000
51807.000000,1872.000000,1992.000000,42871.000000
51854.000000,1859.000000,1979.000000,42851.000000
51789.000000,1857.000000,1924.000000,42841.000000
51820.000000,1853.000000,1972.000000,42851.000000
51827.000000,1847.000000,1943.000000,42820.000000
51776.000000,1841.000000,1965.000000,42834.000000
51779.000000,1835.000000,1938.000000,42828.000000
51780.000000,1881.000000,1952.000000,42836.000000
51770.000000,1829.000000,1951.000000,42828.000000
51782.000000,1793.000000,1979.000000,42813.000000
51780.000000,1839.000000,1970.000000,42829.000000
51748.000000,1824.000000,1955.000000,42811.000000
51753.000000,1819.000000,1958.000000,42818.000000
51729.000000,1815.000000,1958.000000,42820.000000
51734.000000,1815.000000,1993.000000,42808.000000
52024.000000,1796.000000,1963.000000,42798.000000
51758.000000,1797.000000,1950.000000,42823.000000
51760.000000,1800.000000,1953.000000,42787.000000
51775.000000,1796.000000,1966.000000,42807.000000
51758.000000,2040.000000,1965.000000,42791.000000
51726.000000,2035.000000,1965.000000,42764.000000
51723.000000,1788.000000,1964.000000,42796.000000
51707.000000,1782.000000,1954.000000,42795.000000
51712.000000,1791.000000,1943.000000,42791.000000
51722.000000,1791.000000,1965.000000,42791.000000
51715.000000,2043.000000,1936.000000,42776.000000
51686.000000,1770.000000,1983.000000,42757.000000
51667.000000,1767.000000,1957.000000,42791.000000
51680.000000,1772.000000,1942.000000,42763.000000
51671.000000,1764.000000,1949.000000,42749.000000
51665.000000,1740.000000,1952.000000,42734.000000
51701.000000,1987.000000,1943.000000,42740.000000
51663.000000,1724.000000,1943.000000,42769.000000
51643.000000,1975.000000,1912.000000,42722.000000
51660.000000,1700.000000,1946.000000,42718.000000
51640.000000,1711.000000,1905.000000,42714.000000
51649.000000,1720.000000,1888.000000,42716.000000
51649.000000,1995.000000,1939.000000,42716.000000
51652.000000,1698.000000,1915.000000,42709.000000
51660.000000,1705.000000,1929.000000,42731.000000
51649.000000,1985.000000,1917.000000,42729.000000
51647.000000,1725.000000,1897.000000,42737.000000
51686.000000,1702.000000,1883.000000,42755.000000
51674.000000,1979.000000,1909.000000,42726.000000
51669.000000,1718.000000,1883.000000,42771.000000
51716.000000,1770.000000,1884.000000,42763.000000
51699.000000,1745.000000,1841.000000,42764.000000
51720.000000,2047.000000,1838.000000,42764.000000
51748.000000,2024.000000,1863.000000,42759.000000
51743.000000,1777.000000,1860.000000,42789.000000
51763.000000,1801.000000,1839.000000,42764.000000
51757.000000,1841.000000,1829.000000,42785.000000
51794.000000,1815.000000,1804.000000,42816.000000
51827.000000,1840.000000,1814.000000,42831.000000
51822.000000,1891.000000,1827.000000,42848.000000
51875.000000,1872.000000,1791.000000,42879.000000
51908.000000,1903.000000,1815.000000,42881.000000
51939.000000,1923.000000,1817.000000,42933.000000
51965.000000,1940.000000,1809.000000,42911.000000
51946.000000,1964.000000,1787.000000,42917.000000
51973.000000,1972.000000,1790.000000,42932.000000
52004.000000,2003.000000,1804.000000,42963.000000
52003.000000,1997.000000,1809.000000,42973.000000
52044.000000,2031.000000,1807.000000,42981.000000
52026.000000,2013.000000,1790.000000,42986.000000
52013.000000,2027.000000,1816.000000,43004.000000
52017.000000,2027.000000,1827.000000,42988.000000
52026.000000,2003.000000,1841.000000,42977.000000
52018.000000,1997.000000,1857.000000,42993.000000
51987.000000,2043.000000,1875.000000,42979.000000
51989.000000,1999.000000,1891.000000,42953.000000
52010.000000,2007.000000,1904.000000,42952.000000
52007.000000,2003.000000,1921.000000,42936.000000
52001.000000,1991.000000,1923.000000,42945.000000
51999.000000,2019.000000,1924.000000,42948.000000
52014.000000,2025.000000,1991.000000,42948.000000
51976.000000,1965.000000,2002.000000,42943.000000
51971.000000,1999.000000,2007.000000,42948.000000
51993.000000,1961.000000,2010.000000,42939.000000
51975.000000,1976.000000,2075.000000,42955.000000
51967.000000,1985.000000,2092.000000,42947.000000
51982.000000,2027.000000,2071.000000,42936.000000
51987.000000,1971.000000,2090.000000,42931.000000
51948.000000,1967.000000,2068.000000,42880.000000
51982.000000,1981.000000,2091.000000,42935.000000
51981.000000,2003.000000,2061.000000,42939.000000
51950.000000,1963.000000,2133.000000,42925.000000
51959.000000,1952.000000,2108.000000,42931.000000
51950.000000,1943.000000,2071.000000,42907.000000
51943.000000,1964.000000,2059.000000,42909.000000
51960.000000,1948.000000,2102.000000,42915.000000
51919.000000,1955.000000,2098.000000,42895.000000
51902.000000,1951.000000,2087.000000,42889.000000
51927.000000,1971.000000,2101.000000,42887.000000
51921.000000,1920.000000,2077.000000,42893.000000
51918.000000,1964.000000,2087.000000,42907.000000
51902.000000,1971.000000,2092.000000,42911.000000
51923.000000,1971.000000,2096.000000,42905.000000
51914.000000,1947.000000,2108.000000,42907.000000
51888.000000,1945.000000,2073.000000,42895.000000
51903.000000,1948.000000,2062.000000,42889.000000
51893.000000,1955.000000,2093.000000,42879.000000
51872.000000,1927.000000,2073.000000,42891.000000
51894.000000,1951.000000,2081.000000,42895.000000
51895.000000,1945.000000,2080.000000,42859.000000
52140.000000,1964.000000,2094.000000,42866.000000
51892.000000,1931.000000,2104.000000,42899.000000
51843.000000,1948.000000,2094.000000,42861.000000
51875.000000,1915.000000,2084.000000,42859.000000
51861.000000,1932.000000,2073.000000,42861.000000
51867.000000,1916.000000,2112.000000,42871.000000
51862.000000,1928.000000,2074.000000,42857.000000
51869.000000,1908.000000,2063.000000,42844.000000
51865.000000,1931.000000,2096.000000,42851.000000
51875.000000,1925.000000,2072.000000,42824.000000
51854.000000,1887.000000,2099.000000,42852.000000
51866.000000,1937.000000,2061.000000,42843.000000
51861.000000,1887.000000,2082.000000,42849.000000
51838.000000,1937.000000,2069.000000,42849.000000
51845.000000,1907.000000,2056.000000,42859.000000
51852.000000,1912.000000,2073.000000,42859.000000
51859.000000,1889.000000,2080.000000,42847.000000
52105.000000,1911.000000,2103.000000,42839.000000
51833.000000,1895.000000,2064.000000,42827.000000
51825.000000,1879.000000,2101.000000,42849.000000
51789.000000,1901.000000,2059.000000,42829.000000
51800.000000,1885.000000,2086.000000,42835.000000
51797.000000,1848.000000,2068.000000,42796.000000
51819.000000,1867.000000,2064.000000,42813.000000
51765.000000,1883.000000,2067.000000,42803.000000
51777.000000,1855.000000,2074.000000,42800.000000
51790.000000,1867.000000,2086.000000,42792.000000
51781.000000,1863.000000,2076.000000,42785.000000
51792.000000,1872.000000,2061.000000,42811.000000
51781.000000,1820.000000,2048.000000,42783.000000
51766.000000,1860.000000,2067.000000,42775.000000
51761.000000,1807.000000,2058.000000,42749.000000
51748.000000,1833.000000,2075.000000,42803.000000
51756.000000,1820.000000,2048.000000,42795.000000
51759.000000,1833.000000,2036.000000,42760.000000
51711.000000,1827.000000,2066.000000,42777.000000
51712.000000,1815.000000,2064.000000,42771.000000
51718.000000,2047.000000,2069.000000,42765.000000
51731.000000,1795.000000,2042.000000,42755.000000
51676.000000,1771.000000,2083.000000,42742.000000
51691.000000,2039.000000,2073.000000,42737.000000
51676.000000,2029.000000,2059.000000,42713.000000
51670.000000,1744.000000,2052.000000,42724.000000
51662.000000,1999.000000,2058.000000,42718.000000
51655.000000,1993.000000,2067.000000,42729.000000
51664.000000,1756.000000,2041.000000,42724.000000
51660.000000,1719.000000,2058.000000,42705.000000
51637.000000,1736.000000,2036.000000,42695.000000
51659.000000,1992.000000,2032.000000,42694.000000
51643.000000,2015.000000,2064.000000,42705.000000
51671.000000,1747.000000,2024.000000,42723.000000
51671.000000,1732.000000,2000.000000,42688.000000
51660.000000,2005.000000,2045.000000,42725.000000
51659.000000,1769.000000,2017.000000,42720.000000
51679.000000,1741.000000,2035.000000,42728.000000
51684.000000,2003.000000,2024.000000,42726.000000
51695.000000,1760.000000,1997.000000,42716.000000
51656.000000,1785.000000,2017.000000,42733.000000
51697.000000,1777.000000,2033.000000,42728.000000
51691.000000,1789.000000,2044.000000,42756.000000
51741.000000,1804.000000,2056.000000,42771.000000
51769.000000,1815.000000,2005.000000,42780.000000
51804.000000,1835.000000,2032.000000,42783.000000
51803.000000,1863.000000,2029.000000,42824.000000
51824.000000,1871.000000,1991.000000,42830.000000
51859.000000,1891.000000,1987.000000,42829.000000
51881.000000,1947.000000,1976.000000,42871.000000
51914.000000,1955.000000,1967.000000,42881.000000
51936.000000,1972.000000,1992.000000,42888.000000
51985.000000,1967.000000,1961.000000,42927.000000
51983.000000,1967.000000,1919.000000,42935.000000
52011.000000,1999.000000,1900.000000,42932.000000
51990.000000,2011.000000,1924.000000,42955.000000
51996.000000,2043.000000,1922.000000,42941.000000
52037.000000,2036.000000,1911.000000,42969.000000
52024.000000,2031.000000,1900.000000,42963.000000
52022.000000,2029.000000,1919.000000,42959.000000
52016.000000,2035.000000,1901.000000,42945.000000
52036.000000,2032.000000,1915.000000,42968.000000
52005.000000,2101.000000,1896.000000,42940.000000
52020.000000,2036.000000,1900.000000,42967.000000
52011.000000,2041.000000,1877.000000,42956.000000
52012.000000,2040.000000,1879.000000,42943.000000
52015.000000,2019.000000,1883.000000,42943.000000
52003.000000,2035.000000,1907.000000,42931.000000
51983.000000,2009.000000,1897.000000,42941.000000
51977.000000,2029.000000,1923.000000,42951.000000
52007.000000,1999.000000,1901.000000,42947.000000
51999.000000,2001.000000,1917.000000,42949.000000
51977.000000,2017.000000,1951.000000,42923.000000
51975.000000,2001.000000,1952.000000,42932.000000
51929.000000,2023.000000,1947.000000,42923.000000
51969.000000,2023.000000,1966.000000,42929.000000
51995.000000,2009.000000,1999.000000,42921.000000
51972.000000,2003.000000,1993.000000,42923.000000
51962.000000,1989.000000,2022.000000,42900.000000
51979.000000,1991.000000,2023.000000,42888.000000
51991.000000,2024.000000,2074.000000,42908.000000
51970.000000,2003.000000,2085.000000,42880.000000
51971.000000,1979.000000,2113.000000,42904.000000
51955.000000,2011.000000,2129.000000,42933.000000
51965.000000,2017.000000,2173.000000,42905.000000
51964.000000,2021.000000,2155.000000,42893.000000
51938.000000,1981.000000,2175.000000,42908.000000
51972.000000,2015.000000,2180.000000,42897.000000
52204.000000,2013.000000,2153.000000,42925.000000
51955.000000,1993.000000,2151.000000,42915.000000
51983.000000,2021.000000,2185.000000,42883.000000
51975.000000,2031.000000,2193.000000,42898.000000
51955.000000,2003.000000,2167.000000,42919.000000
51924.000000,1993.000000,2185.000000,42909.000000
51928.000000,1959.000000,2142.000000,42896.000000
51934.000000,1992.000000,2182.000000,42887.000000
51939.000000,1989.000000,2208.000000,42871.000000
51923.000000,1997.000000,2199.000000,42880.000000
51934.000000,1952.000000,2175.000000,42875.000000
51942.000000,1944.000000,2177.000000,42871.000000
51950.000000,1984.000000,2142.000000,42883.000000
51922.000000,1983.000000,2205.000000,42883.000000
51928.000000,1964.000000,2177.000000,42863.000000
51929.000000,1962.000000,2173.000000,42871.000000
51926.000000,1961.000000,2169.000000,42864.000000
51917.000000,1955.000000,2209.000000,42875.000000
51891.000000,1929.000000,2173.000000,42857.000000
51883.000000,1963.000000,2180.000000,42835.000000
51862.000000,1911.000000,2156.000000,42855.000000
51886.000000,1928.000000,2188.000000,42832.000000
51890.000000,1921.000000,2180.000000,42832.000000
51874.000000,1951.000000,2154.000000,42831.000000
51880.000000,1924.000000,2175.000000,42825.000000
51867.000000,1947.000000,2161.000000,42827.000000
51855.000000,1921.000000,2155.000000,42791.000000
51827.000000,1927.000000,2178.000000,42847.000000
51861.000000,1903.000000,2161.000000,42800.000000
51832.000000,1927.000000,2191.000000,42843.000000
51858.000000,1895.000000,2201.000000,42825.000000
51845.000000,1907.000000,2185.000000,42811.000000
51819.000000,1912.000000,2187.000000,42803.000000
51820.000000,1903.000000,2157.000000,42831.000000
51841.000000,1901.000000,2166.000000,42819.000000
51816.000000,1880.000000,2176.000000,42764.000000
51823.000000,1900.000000,2160.000000,42803.000000
51803.000000,1875.000000,2184.000000,42787.000000
51810.000000,1860.000000,2139.000000,42775.000000
51807.000000,1857.000000,2176.000000,42785.000000
51783.000000,1895.000000,2171.000000,42772.000000
51787.000000,1871.000000,2128.000000,42779.000000
51796.000000,1872.000000,2168.000000,42780.000000
51779.000000,1847.000000,2174.000000,42788.000000
51806.000000,1891.000000,2143.000000,42791.000000
51770.000000,1867.000000,2116.000000,42746.000000
51797.000000,1871.000000,2175.000000,42771.000000
51772.000000,1824.000000,2174.000000,42755.000000
51768.000000,1845.000000,2157.000000,42763.000000
51796.000000,1863.000000,2123.000000,42771.000000
51764.000000,1851.000000,2160.000000,42760.000000
51771.000000,1863.000000,2154.000000,42735.000000
51772.000000,1840.000000,2112.000000,42736.000000
51789.000000,1853.000000,2141.000000,42753.000000
51764.000000,1836.000000,2111.000000,42724.000000
51785.000000,1867.000000,2137.000000,42718.000000
51783.000000,1811.000000,2128.000000,42712.000000
51738.000000,1793.000000,2124.000000,42732.000000
51731.000000,1795.000000,2150.000000,42715.000000
51738.000000,1795.000000,2115.000000,42692.000000
51717.000000,1809.000000,2153.000000,42711.000000
51713.000000,1811.000000,2121.000000,42693.000000
51716.000000,1784.000000,2126.000000,42725.000000
51721.000000,1763.000000,2075.000000,42707.000000
51700.000000,1773.000000,2114.000000,42704.000000
51715.000000,2029.000000,2105.000000,42711.000000
51687.000000,2040.000000,2132.000000,42659.000000
51712.000000,1743.000000,2100.000000,42685.000000
51686.000000,2044.000000,2129.000000,42653.000000
51692.000000,2023.000000,2105.000000,42689.000000
51689.000000,1784.000000,2095.000000,42674.000000
51671.000000,1754.000000,2128.000000,42667.000000
51731.000000,1739.000000,2056.000000,42653.000000
51689.000000,1759.000000,2094.000000,42689.000000
51703.000000,1779.000000,2087.000000,42695.000000
51720.000000,2043.000000,2072.000000,42701.000000
51734.000000,1821.000000,2066.000000,42697.000000
51745.000000,1792.000000,2036.000000,42717.000000
51767.000000,1791.000000,2037.000000,42709.000000
51757.000000,1827.000000,2023.000000,42711.000000
51791.000000,1811.000000,1998.000000,42736.000000
51828.000000,1837.000000,2013.000000,42752.000000
51797.000000,1863.000000,2016.000000,42753.000000
51873.000000,1871.000000,2027.000000,42763.000000
52119.000000,1895.000000,2008.000000,42755.000000
51887.000000,1879.000000,1967.000000,42779.000000
51902.000000,1939.000000,1969.000000,42809.000000
51937.000000,1907.000000,1992.000000,42856.000000
51935.000000,1933.000000,1980.000000,42835.000000
51972.000000,1977.000000,1979.000000,42843.000000
51951.000000,1963.000000,1943.000000,42859.000000
51983.000000,1981.000000,1983.000000,42877.000000
52007.000000,2005.000000,1968.000000,42867.000000
52031.000000,1999.000000,1975.000000,42867.000000
52041.000000,2039.000000,1979.000000,42905.000000
52053.000000,2027.000000,2006.000000,42916.000000
52049.000000,2035.000000,1983.000000,42871.000000
52029.000000,2029.000000,1987.000000,42899.000000
52028.000000,2051.000000,2024.000000,42905.000000
52013.000000,2028.000000,2050.000000,42887.000000
51982.000000,2039.000000,2052.000000,42876.000000
52013.000000,2029.000000,2044.000000,42859.000000
51983.000000,2051.000000,2053.000000,42871.000000
51989.000000,2017.000000,2100.000000,42885.000000
52013.000000,2021.000000,2145.000000,42912.000000
51976.000000,2004.000000,2165.000000,42864.000000
51991.000000,2008.000000,2196.000000,42865.000000
51988.000000,2023.000000,2191.000000,42859.000000
51979.000000,2020.000000,2245.000000,42867.000000
52000.000000,2023.000000,2276.000000,42863.000000
51979.000000,2016.000000,2295.000000,42889.000000
51958.000000,2013.000000,2307.000000,42861.000000
51967.000000,2007.000000,2343.000000,42843.000000
51983.000000,2032.000000,2343.000000,42849.000000
51981.000000,1996.000000,2352.000000,42887.000000
51969.000000,2007.000000,2344.000000,42851.000000
51946.000000,2000.000000,2337.000000,42871.000000
51973.000000,1969.000000,2311.000000,42836.000000
51971.000000,1999.000000,2305.000000,42848.000000
51953.000000,1987.000000,2323.000000,42847.000000
51980.000000,2011.000000,2357.000000,42843.000000
51939.000000,1991.000000,2332.000000,42854.000000
51958.000000,1983.000000,2320.000000,42877.000000
51938.000000,1973.000000,2333.000000,42827.000000
51934.000000,1985.000000,2368.000000,42822.000000
51937.000000,1991.000000,2349.000000,42815.000000
51906.000000,1991.000000,2353.000000,42831.000000
51929.000000,1989.000000,2351.000000,42841.000000
51903.000000,1965.000000,2342.000000,42831.000000
51919.000000,1972.000000,2348.000000,42808.000000
51918.000000,2007.000000,2353.000000,42811.000000
51907.000000,1979.000000,2333.000000,42803.000000
51912.000000,1973.000000,2351.000000,42819.000000
51910.000000,1971.000000,2330.000000,42831.000000
51918.000000,1972.000000,2370.000000,42816.000000
51911.000000,1963.000000,2332.000000,42807.000000
51919.000000,1963.000000,2345.000000,42824.000000
51900.000000,1947.000000,2356.000000,42816.000000
51889.000000,1936.000000,2332.000000,42791.000000
51879.000000,1941.000000,2344.000000,42761.000000
51878.000000,1947.000000,2328.000000,42780.000000
51901.000000,1932.000000,2295.000000,42809.000000
51905.000000,1927.000000,2303.000000,42803.000000
51868.000000,1947.000000,2348.000000,42813.000000
51878.000000,1927.000000,2330.000000,42785.000000
52139.000000,1913.000000,2348.000000,42811.000000
51905.000000,1932.000000,2331.000000,42795.000000
51873.000000,1956.000000,2343.000000,42779.000000
51895.000000,1909.000000,2330.000000,42803.000000
51838.000000,1931.000000,2340.000000,42761.000000
51850.000000,1927.000000,2319.000000,42785.000000
51839.000000,1915.000000,2315.000000,42767.000000
51856.000000,1915.000000,2329.000000,42777.000000
51854.000000,1905.000000,2328.000000,42769.000000
51855.000000,1889.000000,2353.000000,42744.000000
51827.000000,1895.000000,2320.000000,42763.000000
51834.000000,1909.000000,2333.000000,42740.000000
51852.000000,1911.000000,2325.000000,42744.000000
51824.000000,1911.000000,2318.000000,42755.000000
51836.000000,1892.000000,2311.000000,42755.000000
51826.000000,1887.000000,2323.000000,42750.000000
51841.000000,1899.000000,2331.000000,42763.000000
51804.000000,1895.000000,2313.000000,42751.000000
51815.000000,1867.000000,2342.000000,42740.000000
51799.000000,1868.000000,2300.000000,42747.000000
51804.000000,1856.000000,2307.000000,42744.000000
51797.000000,1867.000000,2323.000000,42706.000000
51776.000000,1849.000000,2319.000000,42720.000000
51810.000000,1840.000000,2338.000000,42718.000000
51776.000000,1849.000000,2303.000000,42716.000000
51801.000000,1887.000000,2310.000000,42712.000000
51805.000000,1840.000000,2312.000000,42721.000000
51784.000000,1827.000000,2312.000000,42703.000000
51785.000000,1839.000000,2343.000000,42702.000000
51766.000000,1820.000000,2316.000000,42699.000000
51744.000000,1811.000000,2316.000000,42685.000000
51760.000000,1815.000000,2324.000000,42692.000000
51738.000000,1807.000000,2334.000000,42694.000000
51732.000000,1825.000000,2308.000000,42683.000000
51733.000000,1819.000000,2331.000000,42667.000000
51724.000000,1772.000000,2296.000000,42672.000000
51760.000000,1793.000000,2288.000000,42665.000000
51721.000000,2047.000000,2327.000000,42677.000000
51742.000000,1775.000000,2342.000000,42660.000000
51741.000000,1803.000000,2306.000000,42647.000000
51736.000000,1763.000000,2313.000000,42660.000000
51732.000000,2047.000000,2308.000000,42649.000000
51737.000000,2047.000000,2288.000000,42671.000000
51778.000000,1788.000000,2274.000000,42654.000000
51809.000000,1831.000000,2284.000000,42673.000000
51818.000000,1829.000000,2270.000000,42702.000000
51828.000000,1839.000000,2277.000000,42730.000000
51834.000000,1829.000000,2332.000000,42735.000000
51856.000000,1857.000000,2295.000000,42723.000000
51859.000000,1847.000000,2284.000000,42739.000000
51860.000000,1880.000000,2289.000000,42767.000000
51930.000000,1903.000000,2314.000000,42760.000000
51946.000000,1887.000000,2287.000000,42795.000000
51969.000000,1919.000000,2292.000000,42809.000000
51994.000000,1948.000000,2272.000000,42820.000000
52017.000000,1952.000000,2298.000000,42847.000000
52047.000000,2003.000000,2281.000000,42855.000000
52047.000000,2017.000000,2253.000000,42872.000000
52082.000000,2043.000000,2274.000000,42879.000000
52128.000000,2055.000000,2267.000000,42901.000000
52149.000000,2067.000000,2267.000000,42919.000000
52147.000000,2080.000000,2239.000000,42936.000000
52186.000000,2136.000000,2244.000000,42931.000000
52191.000000,2160.000000,2223.000000,42981.000000
52179.000000,2130.000000,2229.000000,42956.000000
52147.000000,2136.000000,2209.000000,42956.000000
52193.000000,2111.000000,2201.000000,42939.000000
52171.000000,2143.000000,2189.000000,42972.000000
52157.000000,2137.000000,2184.000000,42935.000000
52175.000000,2140.000000,2207.000000,42951.000000
52167.000000,2147.000000,2148.000000,42971.000000
52159.000000,2121.000000,2159.000000,42940.000000
52139.000000,2130.000000,2152.000000,42955.000000
52125.000000,2155.000000,2181.000000,42931.000000
52140.000000,2135.000000,2152.000000,42939.000000
52132.000000,2117.000000,2145.000000,42946.000000
52146.000000,2120.000000,2155.000000,42959.000000
52151.000000,2087.000000,2151.000000,42931.000000
52147.000000,2099.000000,2144.000000,42936.000000
52115.000000,2116.000000,2156.000000,42942.000000
52132.000000,2093.000000,2162.000000,42939.000000
52130.000000,2087.000000,2147.000000,42920.000000
52135.000000,2091.000000,2150.000000,42904.000000
52088.000000,2091.000000,2177.000000,42920.000000
52127.000000,2132.000000,2180.000000,42905.000000
52092.000000,2123.000000,2163.000000,42915.000000
52109.000000,2090.000000,2182.000000,42917.000000
52102.000000,2111.000000,2186.000000,42897.000000
52113.000000,2072.000000,2237.000000,42893.000000
52079.000000,2092.000000,2246.000000,42891.000000
52085.000000,2091.000000,2256.000000,42884.000000
52076.000000,2068.000000,2262.000000,42915.000000
52070.000000,2088.000000,2307.000000,42904.000000
52091.000000,2047.000000,2321.000000,42895.000000
52071.000000,2063.000000,2324.000000,42918.000000
52061.000000,2063.000000,2343.000000,42871.000000
52079.000000,2053.000000,2371.000000,42908.000000
52079.000000,2084.000000,2361.000000,42881.000000
52069.000000,2047.000000,2416.000000,42867.000000
52044.000000,2054.000000,2364.000000,42904.000000
52050.000000,2055.000000,2390.000000,42888.000000
52063.000000,2079.000000,2390.000000,42881.000000
52019.000000,2023.000000,2402.000000,42879.000000
52045.000000,2040.000000,2433.000000,42888.000000
52031.000000,2021.000000,2429.000000,42865.000000
52053.000000,2047.000000,2431.000000,42851.000000
52036.000000,2049.000000,2405.000000,42869.000000
52035.000000,2049.000000,2421.000000,42864.000000
52047.000000,2025.000000,2416.000000,42887.000000
52024.000000,2051.000000,2405.000000,42880.000000
52037.000000,2013.000000,2427.000000,42847.000000
52030.000000,2037.000000,2423.000000,42878.000000
52050.000000,2027.000000,2421.000000,42867.000000
52011.000000,2037.000000,2423.000000,42882.000000
52035.000000,2039.000000,2443.000000,42867.000000
52011.000000,2032.000000,2428.000000,42851.000000
51993.000000,1995.000000,2443.000000,42848.000000
52020.000000,2017.000000,2431.000000,42812.000000
52027.000000,1993.000000,2440.000000,42832.000000
52003.000000,2007.000000,2434.000000,42871.000000
51999.000000,2007.000000,2435.000000,42858.000000
52028.000000,2001.000000,2441.000000,42859.000000
52021.000000,2005.000000,2418.000000,42847.000000
52007.000000,1988.000000,2442.000000,42827.000000
51991.000000,2015.000000,2438.000000,42839.000000
51972.000000,2001.000000,2457.000000,42817.000000
51975.000000,1988.000000,2446.000000,42808.000000
51957.000000,1979.000000,2446.000000,42849.000000
51962.000000,1959.000000,2426.000000,42823.000000
51953.000000,1948.000000,2459.000000,42776.000000
51964.000000,1991.000000,2430.000000,42804.000000
51975.000000,1989.000000,2453.000000,42801.000000
51971.000000,1955.000000,2458.000000,42801.000000
51922.000000,1956.000000,2456.000000,42800.000000
51941.000000,1955.000000,2440.000000,42796.000000
51939.000000,1961.000000,2433.000000,42771.000000
51937.000000,1975.000000,2424.000000,42775.000000
51933.000000,1939.000000,2426.000000,42811.000000
51909.000000,1941.000000,2442.000000,42784.000000
51936.000000,1909.000000,2433.000000,42796.000000
51907.000000,1916.000000,2459.000000,42791.000000
51928.000000,1932.000000,2426.000000,42752.000000
51913.000000,1929.000000,2441.000000,42767.000000
51921.000000,1931.000000,2432.000000,42771.000000
51909.000000,1915.000000,2453.000000,42752.000000
51897.000000,1923.000000,2441.000000,42772.000000
51886.000000,1915.000000,2456.000000,42775.000000
51902.000000,1935.000000,2408.000000,42769.000000
51879.000000,1911.000000,2412.000000,42771.000000
51911.000000,1931.000000,2418.000000,42761.000000
51858.000000,1928.000000,2426.000000,42755.000000
51882.000000,1903.000000,2429.000000,42751.000000
51887.000000,1928.000000,2441.000000,42749.000000
51872.000000,1899.000000,2448.000000,42743.000000
51856.000000,1895.000000,2431.000000,42727.000000
51849.000000,1875.000000,2425.000000,42719.000000
51827.000000,1867.000000,2427.000000,42711.000000
51818.000000,1861.000000,2410.000000,42715.000000
51817.000000,1849.000000,2405.000000,42715.000000
51807.000000,1835.000000,2417.000000,42715.000000
51782.000000,1844.000000,2434.000000,42683.000000
51791.000000,1855.000000,2421.000000,42697.000000
51801.000000,1851.000000,2467.000000,42693.000000
51788.000000,1811.000000,2445.000000,42674.000000
51780.000000,1825.000000,2419.000000,42668.000000
51779.000000,1835.000000,2404.000000,42661.000000
51743.000000,1831.000000,2391.000000,42708.000000
51757.000000,1831.000000,2427.000000,42652.000000
51777.000000,1848.000000,2399.000000,42677.000000
51811.000000,1835.000000,2406.000000,42701.000000
51795.000000,1865.000000,2406.000000,42716.000000
51850.000000,1863.000000,2400.000000,42711.000000
51856.000000,1871.000000,2391.000000,42738.000000
51864.000000,1925.000000,2401.000000,42735.000000
52117.000000,1908.000000,2417.000000,42759.000000
51923.000000,1931.000000,2387.000000,42777.000000
51925.000000,1951.000000,2405.000000,42777.000000
52007.000000,1997.000000,2364.000000,42816.000000
52009.000000,2019.000000,2367.000000,42853.000000
52052.000000,2040.000000,2371.000000,42857.000000
52088.000000,2063.000000,2363.000000,42875.000000
52075.000000,2031.000000,2386.000000,42875.000000
52092.000000,2070.000000,2406.000000,42893.000000
52102.000000,2055.000000,2369.000000,42899.000000
52151.000000,2092.000000,2335.000000,42900.000000
52174.000000,2103.000000,2340.000000,42906.000000
52152.000000,2100.000000,2292.000000,42939.000000
52132.000000,2119.000000,2351.000000,42905.000000
52134.000000,2100.000000,2331.000000,42901.000000
52142.000000,2096.000000,2311.000000,42905.000000
52128.000000,2117.000000,2304.000000,42921.000000
52140.000000,2115.000000,2309.000000,42909.000000
52124.000000,2087.000000,2270.000000,42908.000000
52131.000000,2087.000000,2288.000000,42911.000000
52113.000000,2091.000000,2308.000000,42897.000000
52111.000000,2105.000000,2297.000000,42920.000000
52144.000000,2099.000000,2298.000000,42912.000000
52105.000000,2112.000000,2250.000000,42913.000000
52131.000000,2096.000000,2274.000000,42923.000000
52127.000000,2091.000000,2303.000000,42911.000000
52095.000000,2075.000000,2294.000000,42909.000000
52100.000000,2107.000000,2277.000000,42885.000000
52105.000000,2073.000000,2281.000000,42927.000000
52120.000000,2074.000000,2300.000000,42875.000000
52113.000000,2080.000000,2311.000000,42899.000000
52119.000000,2075.000000,2313.000000,42904.000000
52099.000000,2075.000000,2312.000000,42909.000000
52101.000000,2082.000000,2348.000000,42877.000000
52106.000000,2071.000000,2351.000000,42864.000000
52055.000000,2088.000000,2397.000000,42887.000000
52084.000000,2069.000000,2368.000000,42899.000000
52051.000000,2052.000000,2413.000000,42883.000000
52090.000000,2031.000000,2431.000000,42897.000000
52076.000000,2056.000000,2446.000000,42873.000000
52061.000000,2083.000000,2462.000000,42876.000000
52059.000000,2043.000000,2507.000000,42879.000000
52071.000000,2059.000000,2492.000000,42879.000000
52092.000000,2054.000000,2537.000000,42887.000000
52052.000000,2043.000000,2514.000000,42860.000000
52079.000000,2023.000000,2516.000000,42866.000000
52044.000000,2031.000000,2525.000000,42847.000000
52052.000000,2053.000000,2530.000000,42844.000000
52056.000000,2051.000000,2524.000000,42831.000000
52064.000000,2047.000000,2533.000000,42841.000000
52039.000000,2055.000000,2517.000000,42853.000000
52033.000000,2029.000000,2531.000000,42863.000000
51998.000000,2047.000000,2537.000000,42823.000000
52052.000000,2031.000000,2528.000000,42848.000000
52010.000000,2037.000000,2559.000000,42853.000000
52019.000000,2015.000000,2523.000000,42819.000000
52021.000000,2027.000000,2498.000000,42851.000000
51997.000000,2000.000000,2521.000000,42851.000000
51978.000000,2056.000000,2536.000000,42839.000000
52015.000000,2016.000000,2534.000000,42841.000000
52041.000000,2017.000000,2528.000000,42857.000000
52014.000000,2012.000000,2555.000000,42800.000000
51987.000000,1985.000000,2534.000000,42832.000000
52009.000000,1991.000000,2537.000000,42803.000000
52016.000000,1995.000000,2542.000000,42801.000000
51985.000000,1999.000000,2520.000000,42835.000000
52011.000000,2007.000000,2534.000000,42845.000000
51981.000000,1991.000000,2528.000000,42805.000000
51985.000000,1977.000000,2539.000000,42799.000000
51988.000000,1972.000000,2525.000000,42829.000000
51959.000000,1984.000000,2541.000000,42840.000000
51968.000000,1975.000000,2559.000000,42808.000000
51967.000000,1956.000000,2520.000000,42805.000000
51979.000000,1968.000000,2525.000000,42807.000000
51959.000000,1960.000000,2517.000000,42805.000000
51962.000000,1965.000000,2528.000000,42791.000000
51973.000000,1977.000000,2523.000000,42808.000000
51948.000000,1955.000000,2530.000000,42788.000000
51944.000000,1955.000000,2575.000000,42799.000000
51920.000000,1940.000000,2559.000000,42783.000000
51961.000000,1935.000000,2539.000000,42801.000000
51956.000000,1944.000000,2565.000000,42775.000000
51975.000000,1960.000000,2553.000000,42801.000000
51953.000000,1920.000000,2576.000000,42783.000000
51904.000000,1973.000000,2548.000000,42779.000000
51926.000000,1939.000000,2551.000000,42767.000000
52156.000000,1935.000000,2558.000000,42768.000000
51916.000000,1928.000000,2551.000000,42781.000000
51928.000000,1900.000000,2548.000000,42776.000000
51907.000000,1905.000000,2541.000000,42740.000000
51856.000000,1895.000000,2561.000000,42728.000000
51909.000000,1899.000000,2556.000000,42732.000000
51902.000000,1925.000000,2570.000000,42744.000000
51897.000000,1892.000000,2549.000000,42775.000000
51894.000000,1888.000000,2573.000000,42745.000000
51879.000000,1877.000000,2537.000000,42756.000000
51869.000000,1879.000000,2557.000000,42714.000000
51876.000000,1873.000000,2515.000000,42724.000000
51893.000000,1855.000000,2550.000000,42709.000000
51884.000000,1879.000000,2536.000000,42725.000000
51893.000000,1856.000000,2551.000000,42751.000000
51904.000000,1863.000000,2547.000000,42750.000000
51907.000000,1839.000000,2567.000000,42761.000000
51921.000000,1899.000000,2518.000000,42740.000000
51923.000000,1859.000000,2527.000000,42749.000000
51920.000000,1907.000000,2508.000000,42786.000000
51954.000000,1907.000000,2547.000000,42765.000000
51977.000000,1923.000000,2563.000000,42764.000000
51990.000000,1933.000000,2529.000000,42784.000000
52017.000000,1951.000000,2518.000000,42797.000000
52027.000000,1959.000000,2539.000000,42828.000000
52061.000000,1957.000000,2534.000000,42839.000000
52081.000000,1983.000000,2566.000000,42855.000000
52092.000000,1991.000000,2553.000000,42860.000000
52112.000000,2009.000000,2532.000000,42883.000000
52136.000000,2053.000000,2546.000000,42904.000000
52156.000000,2055.000000,2541.000000,42888.000000
52175.000000,2054.000000,2508.000000,42939.000000
52234.000000,2079.000000,2526.000000,42932.000000
52252.000000,2102.000000,2537.000000,42947.000000
52275.000000,2137.000000,2535.000000,42964.000000
52275.000000,2157.000000,2522.000000,42993.000000
52334.000000,2180.000000,2512.000000,42995.000000
52357.000000,2231.000000,2521.000000,43021.000000
52367.000000,2222.000000,2534.000000,43073.000000
52402.000000,2253.000000,2494.000000,43065.000000
52390.000000,2252.000000,2493.000000,43060.000000
52445.000000,2240.000000,2501.000000,43082.000000
52430.000000,2260.000000,2518.000000,43062.000000
52419.000000,2267.000000,2502.000000,43077.000000
52433.000000,2293.000000,2518.000000,43066.000000
52444.000000,2249.000000,2498.000000,43097.000000
52432.000000,2308.000000,2481.000000,43096.000000
52425.000000,2294.000000,2457.000000,43071.000000
52448.000000,2284.000000,2507.000000,43093.000000
52449.000000,2267.000000,2484.000000,43065.000000
52444.000000,2273.000000,2480.000000,43093.000000
52423.000000,2278.000000,2446.000000,43077.000000
52420.000000,2248.000000,2441.000000,43064.000000
52424.000000,2260.000000,2429.000000,43066.000000
52398.000000,2271.000000,2448.000000,43054.000000
52425.000000,2261.000000,2433.000000,43028.000000
52445.000000,2255.000000,2418.000000,43058.000000
52414.000000,2240.000000,2388.000000,43071.000000
52367.000000,2266.000000,2388.000000,43072.000000
52386.000000,2254.000000,2387.000000,43042.000000
52393.000000,2252.000000,2341.000000,43047.000000
52384.000000,2238.000000,2357.000000,43087.000000
52392.000000,2265.000000,2349.000000,43029.000000
52359.000000,2265.000000,2367.000000,43036.000000
52375.000000,2235.000000,2374.000000,43040.000000
52386.000000,2283.000000,2382.000000,43051.000000
52349.000000,2240.000000,2354.000000,43061.000000
52364.000000,2209.000000,2372.000000,43058.000000
52359.000000,2239.000000,2370.000000,43033.000000
52340.000000,2220.000000,2418.000000,43040.000000
52330.000000,2200.000000,2371.000000,43030.000000
52317.000000,2189.000000,2432.000000,43003.000000
52327.000000,2203.000000,2429.000000,43025.000000
52341.000000,2226.000000,2458.000000,43013.000000
52303.000000,2212.000000,2471.000000,43015.000000
52308.000000,2215.000000,2458.000000,43013.000000
52289.000000,2215.000000,2502.000000,42997.000000
52312.000000,2164.000000,2520.000000,42963.000000
52302.000000,2210.000000,2527.000000,43013.000000
52290.000000,2183.000000,2524.000000,42981.000000
52279.000000,2175.000000,2596.000000,42981.000000
52310.000000,2203.000000,2598.000000,43003.000000
52332.000000,2184.000000,2590.000000,42993.000000
52302.000000,2150.000000,2621.000000,42989.000000
52281.000000,2190.000000,2622.000000,42977.000000
52288.000000,2116.000000,2628.000000,42973.000000
52310.000000,2194.000000,2615.000000,42984.000000
52287.000000,2188.000000,2629.000000,43001.000000
52294.000000,2175.000000,2589.000000,42985.000000
52278.000000,2168.000000,2626.000000,42987.000000
52273.000000,2179.000000,2646.000000,42972.000000
52286.000000,2184.000000,2642.000000,42965.000000
52265.000000,2162.000000,2641.000000,42949.000000
52274.000000,2138.000000,2643.000000,42969.000000
52253.000000,2197.000000,2647.000000,42927.000000
52257.000000,2170.000000,2651.000000,42961.000000
52272.000000,2143.000000,2643.000000,42965.000000
52241.000000,2168.000000,2635.000000,42939.000000
52248.000000,2137.000000,2615.000000,42947.000000
52234.000000,2141.000000,2631.000000,42951.000000
52241.000000,2145.000000,2642.000000,42948.000000
52217.000000,2127.000000,2625.000000,42957.000000
52198.000000,2144.000000,2640.000000,42949.000000
52204.000000,2141.000000,2634.000000,42949.000000
52234.000000,2155.000000,2646.000000,42951.000000
52208.000000,2129.000000,2651.000000,42933.000000
52205.000000,2120.000000,2638.000000,42931.000000
52220.000000,2103.000000,2641.000000,42929.000000
52223.000000,2130.000000,2624.000000,42939.000000
52223.000000,2108.000000,2617.000000,42919.000000
52205.000000,2118.000000,2651.000000,42927.000000
52188.000000,2107.000000,2643.000000,42927.000000
52192.000000,2119.000000,2644.000000,42903.000000
52193.000000,2100.000000,2640.000000,42913.000000
52227.000000,2110.000000,2648.000000,42892.000000
52225.000000,2127.000000,2662.000000,42909.000000
52171.000000,2109.000000,2603.000000,42917.000000
52181.000000,2095.000000,2652.000000,42903.000000
52175.000000,2095.000000,2661.000000,42883.000000
52172.000000,2101.000000,2647.000000,42892.000000
52171.000000,2091.000000,2620.000000,42884.000000
52176.000000,2077.000000,2635.000000,42897.000000
52153.000000,2096.000000,2628.000000,42897.000000
52171.000000,2084.000000,2611.000000,42888.000000
52135.000000,2099.000000,2649.000000,42883.000000
52150.000000,2063.000000,2657.000000,42903.000000
52127.000000,2074.000000,2648.000000,42872.000000
52123.000000,2060.000000,2617.000000,42873.000000
52152.000000,2056.000000,2641.000000,42860.000000
52108.000000,2036.000000,2651.000000,42843.000000
52115.000000,2039.000000,2630.000000,42859.000000
52096.000000,2047.000000,2632.000000,42827.000000
52105.000000,2039.000000,2655.000000,42849.000000
52109.000000,2058.000000,2678.000000,42868.000000
52105.000000,2035.000000,2641.000000,42831.000000
52101.000000,2015.000000,2644.000000,42817.000000
52077.000000,2047.000000,2623.000000,42851.000000
52099.000000,2049.000000,2611.000000,42847.000000
52127.000000,2013.000000,2615.000000,42829.000000
52053.000000,2009.000000,2637.000000,42842.000000
52080.000000,2011.000000,2622.000000,42849.000000
52067.000000,2024.000000,2625.000000,42859.000000
52079.000000,1987.000000,2628.000000,42832.000000
52104.000000,2008.000000,2620.000000,42880.000000
52070.000000,2021.000000,2628.000000,42826.000000
52081.000000,2001.000000,2626.000000,42835.000000
52068.000000,2035.000000,2605.000000,42793.000000
52035.000000,2024.000000,2596.000000,42812.000000
52075.000000,2031.000000,2628.000000,42815.000000
52046.000000,1973.000000,2645.000000,42797.000000
52055.000000,1961.000000,2596.000000,42809.000000
52018.000000,1972.000000,2610.000000,42811.000000
52042.000000,1981.000000,2613.000000,42797.000000
52018.000000,1948.000000,2613.000000,42779.000000
52011.000000,1951.000000,2599.000000,42755.000000
51978.000000,1940.000000,2609.000000,42764.000000
51983.000000,1955.000000,2606.000000,42775.000000
51985.000000,1937.000000,2626.000000,42767.000000
51977.000000,1940.000000,2590.000000,42755.000000
51969.000000,1904.000000,2608.000000,42751.000000
51983.000000,1939.000000,2615.000000,42759.000000
51979.000000,1912.000000,2608.000000,42745.000000
51991.000000,1919.000000,2630.000000,42759.000000
51985.000000,1923.000000,2564.000000,42767.000000
51979.000000,1955.000000,2579.000000,42738.000000
51984.000000,1903.000000,2565.000000,42735.000000
52007.000000,1915.000000,2578.000000,42731.000000
51989.000000,1913.000000,2578.000000,42741.000000
52009.000000,1923.000000,2580.000000,42752.000000
52025.000000,1935.000000,2537.000000,42744.000000
52005.000000,1935.000000,2537.000000,42788.000000
52044.000000,1947.000000,2542.000000,42773.000000
52027.000000,1943.000000,2563.000000,42763.000000
52048.000000,1959.000000,2529.000000,42771.000000
52086.000000,1972.000000,2516.000000,42799.000000
52093.000000,2000.000000,2517.000000,42845.000000
52123.000000,2027.000000,2506.000000,42843.000000
52135.000000,2015.000000,2506.000000,42839.000000
52160.000000,2039.000000,2495.000000,42859.000000
52183.000000,2019.000000,2508.000000,42891.000000
52203.000000,2063.000000,2498.000000,42907.000000
52261.000000,2119.000000,2496.000000,42957.000000
52293.000000,2091.000000,2494.000000,42963.000000
52301.000000,2127.000000,2499.000000,42939.000000
52333.000000,2125.000000,2486.000000,42965.000000
52331.000000,2172.000000,2483.000000,42976.000000
52439.000000,2183.000000,2511.000000,43043.000000
52441.000000,2245.000000,2455.000000,43030.000000
52482.000000,2266.000000,2495.000000,43067.000000
52484.000000,2276.000000,2504.000000,43095.000000
52503.000000,2294.000000,2516.000000,43120.000000
52523.000000,2343.000000,2544.000000,43144.000000
52561.000000,2343.000000,2568.000000,43145.000000
52565.000000,2340.000000,2553.000000,43141.000000
52567.000000,2371.000000,2604.000000,43134.000000
52580.000000,2387.000000,2606.000000,43175.000000
52565.000000,2367.000000,2610.000000,43143.000000
52573.000000,2373.000000,2643.000000,43148.000000
52578.000000,2385.000000,2668.000000,43164.000000
52590.000000,2375.000000,2682.000000,43133.000000
52588.000000,2388.000000,2702.000000,43163.000000
52582.000000,2335.000000,2701.000000,43144.000000
52553.000000,2369.000000,2716.000000,43135.000000
52571.000000,2379.000000,2719.000000,43151.000000
52564.000000,2359.000000,2736.000000,43163.000000
52587.000000,2371.000000,2712.000000,43158.000000
52583.000000,2373.000000,2732.000000,43152.000000
52519.000000,2371.000000,2764.000000,43099.000000
52534.000000,2381.000000,2753.000000,43164.000000
52545.000000,2363.000000,2729.000000,43115.000000
52569.000000,2375.000000,2746.000000,43145.000000
52579.000000,2348.000000,2757.000000,43127.000000
52537.000000,2352.000000,2742.000000,43122.000000
52540.000000,2324.000000,2758.000000,43158.000000
52543.000000,2339.000000,2744.000000,43118.000000
52527.000000,2328.000000,2756.000000,43124.000000
52541.000000,2347.000000,2768.000000,43124.000000
52497.000000,2332.000000,2762.000000,43090.000000
52503.000000,2333.000000,2777.000000,43100.000000
52523.000000,2319.000000,2744.000000,43104.000000
52532.000000,2337.000000,2758.000000,43123.000000
52539.000000,2327.000000,2775.000000,43143.000000
52524.000000,2309.000000,2732.000000,43102.000000
52514.000000,2323.000000,2768.000000,43110.000000
52509.000000,2316.000000,2734.000000,43104.000000
52475.000000,2294.000000,2746.000000,43112.000000
52498.000000,2298.000000,2753.000000,43112.000000
52499.000000,2317.000000,2736.000000,43104.000000
52467.000000,2284.000000,2792.000000,43102.000000
52483.000000,2335.000000,2749.000000,43089.000000
52511.000000,2311.000000,2762.000000,43130.000000
52528.000000,2298.000000,2721.000000,43094.000000
52523.000000,2334.000000,2774.000000,43089.000000
52543.000000,2280.000000,2730.000000,43076.000000
52520.000000,2328.000000,2730.000000,43078.000000
52472.000000,2331.000000,2771.000000,43095.000000
52491.000000,2272.000000,2758.000000,43087.000000
52497.000000,2291.000000,2763.000000,43080.000000
52466.000000,2300.000000,2767.000000,43077.000000
52455.000000,2297.000000,2781.000000,43061.000000
52467.000000,2277.000000,2736.000000,43066.000000
52480.000000,2298.000000,2763.000000,43064.000000
52470.000000,2290.000000,2766.000000,43052.000000
52447.000000,2298.000000,2759.000000,43054.000000
52430.000000,2292.000000,2760.000000,43043.000000
52496.000000,2284.000000,2760.000000,43066.000000
52477.000000,2272.000000,2766.000000,43086.000000
52456.000000,2295.000000,2757.000000,43062.000000
52453.000000,2281.000000,2755.000000,43060.000000
52487.000000,2278.000000,2738.000000,43030.000000
52443.000000,2280.000000,2734.000000,43061.000000
52452.000000,2269.000000,2708.000000,43070.000000
52438.000000,2283.000000,2754.000000,43043.000000
52466.000000,2279.000000,2740.000000,43080.000000
52462.000000,2288.000000,2764.000000,43056.000000
52424.000000,2264.000000,2736.000000,43053.000000
52434.000000,2247.000000,2740.000000,43039.000000
52399.000000,2256.000000,2717.000000,43031.000000
52427.000000,2267.000000,2759.000000,43040.000000
52403.000000,2238.000000,2763.000000,43044.000000
52390.000000,2267.000000,2749.000000,43047.000000
52401.000000,2247.000000,2769.000000,43027.000000
52397.000000,2226.000000,2757.000000,43017.000000
52405.000000,2245.000000,2740.000000,43046.000000
52410.000000,2235.000000,2732.000000,43025.000000
52422.000000,2239.000000,2739.000000,43030.000000
52388.000000,2281.000000,2744.000000,43036.000000
52394.000000,2238.000000,2738.000000,43018.000000
52400.000000,2209.000000,2751.000000,43007.000000
52357.000000,2233.000000,2739.000000,43027.000000
52374.000000,2241.000000,2757.000000,43017.000000
52367.000000,2224.000000,2737.000000,42999.000000
52369.000000,2200.000000,2738.000000,43033.000000
52328.000000,2214.000000,2740.000000,43017.000000
52333.000000,2210.000000,2757.000000,42977.000000
52331.000000,2195.000000,2721.000000,42959.000000
52359.000000,2221.000000,2733.000000,43002.000000
52338.000000,2182.000000,2766.000000,42993.000000
52330.000000,2193.000000,2719.000000,42985.000000
52308.000000,2175.000000,2738.000000,42973.000000
52302.000000,2187.000000,2751.000000,42967.000000
52315.000000,2175.000000,2718.000000,42992.000000
52315.000000,2221.000000,2698.000000,43000.000000
52306.000000,2152.000000,2743.000000,42973.000000
52300.000000,2190.000000,2705.000000,43004.000000
52290.000000,2180.000000,2730.000000,42988.000000
52295.000000,2182.000000,2741.000000,42976.000000
52297.000000,2146.000000,2740.000000,42991.000000
52301.000000,2183.000000,2746.000000,42976.000000
52297.000000,2178.000000,2747.000000,42975.000000
52297.000000,2185.000000,2706.000000,42968.000000
52281.000000,2157.000000,2711.000000,42964.000000
52265.000000,2165.000000,2721.000000,42959.000000
52249.000000,2149.000000,2704.000000,42949.000000
52244.000000,2109.000000,2688.000000,42931.000000
52256.000000,2127.000000,2708.000000,42939.000000
52236.000000,2110.000000,2717.000000,42943.000000
52257.000000,2131.000000,2707.000000,42933.000000
52250.000000,2113.000000,2728.000000,42937.000000
52261.000000,2144.000000,2668.000000,42916.000000
52238.000000,2127.000000,2674.000000,42941.000000
52260.000000,2132.000000,2687.000000,42935.000000
52220.000000,2133.000000,2669.000000,42923.000000
52224.000000,2103.000000,2665.000000,42929.000000
52238.000000,2115.000000,2690.000000,42931.000000
52243.000000,2154.000000,2662.000000,42908.000000
52221.000000,2104.000000,2647.000000,42923.000000
52188.000000,2095.000000,2650.000000,42899.000000
52188.000000,2099.000000,2657.000000,42883.000000
52202.000000,2087.000000,2636.000000,42907.000000
52223.000000,2098.000000,2650.000000,42883.000000
52193.000000,2095.000000,2642.000000,42883.000000
52193.000000,2078.000000,2658.000000,42882.000000
52165.000000,2103.000000,2634.000000,42896.000000
52193.000000,2062.000000,2626.000000,42904.000000
52177.000000,2065.000000,2640.000000,42892.000000
52158.000000,2069.000000,2633.000000,42905.000000
52156.000000,2070.000000,2618.000000,42891.000000
52143.000000,2065.000000,2657.000000,42873.000000
52151.000000,2061.000000,2618.000000,42877.000000
52128.000000,2063.000000,2631.000000,42855.000000
52127.000000,2055.000000,2632.000000,42879.000000
52121.000000,2051.000000,2642.000000,42835.000000
52138.000000,2041.000000,2662.000000,42855.000000
52115.000000,2021.000000,2702.000000,42847.000000
52126.000000,2009.000000,2696.000000,42858.000000
52117.000000,2052.000000,2729.000000,42847.000000
52139.000000,2025.000000,2727.000000,42843.000000
52101.000000,2032.000000,2719.000000,42853.000000
52100.000000,2016.000000,2757.000000,42843.000000
52102.000000,2035.000000,2761.000000,42840.000000
52122.000000,2015.000000,2777.000000,42825.000000
52072.000000,2044.000000,2794.000000,42835.000000
52076.000000,2009.000000,2808.000000,42821.000000
52092.000000,1988.000000,2790.000000,42817.000000
52063.000000,1985.000000,2811.000000,42852.000000
52054.000000,2024.000000,2812.000000,42812.000000
52068.000000,2005.000000,2807.000000,42789.000000
52052.000000,1988.000000,2812.000000,42785.000000
52061.000000,1996.000000,2787.000000,42828.000000
52067.000000,1971.000000,2815.000000,42808.000000
52057.000000,1979.000000,2822.000000,42769.000000
52059.000000,1937.000000,2797.000000,42763.000000
52054.000000,1956.000000,2808.000000,42764.000000
52055.000000,1939.000000,2819.000000,42767.000000
52019.000000,1960.000000,2806.000000,42772.000000
52008.000000,1945.000000,2807.000000,42759.000000
52005.000000,1911.000000,2807.000000,42747.000000
52032.000000,1923.000000,2842.000000,42752.000000
52006.000000,1919.000000,2826.000000,42776.000000
52013.000000,1932.000000,2838.000000,42757.000000
52026.000000,1943.000000,2823.000000,42751.000000
51995.000000,1936.000000,2826.000000,42729.000000
52041.000000,1943.000000,2804.000000,42784.000000
52069.000000,1948.000000,2839.000000,42785.000000
52055.000000,1959.000000,2832.000000,42788.000000
52043.000000,1983.000000,2808.000000,42788.000000
52097.000000,1951.000000,2823.000000,42813.000000
52139.000000,1996.000000,2829.000000,42820.000000
52138.000000,2013.000000,2851.000000,42845.000000
52163.000000,2031.000000,2836.000000,42857.000000
52197.000000,2009.000000,2837.000000,42843.000000
52226.000000,2043.000000,2843.000000,42893.000000
52257.000000,2079.000000,2839.000000,42859.000000
52269.000000,2064.000000,2851.000000,42932.000000
52272.000000,2063.000000,2838.000000,42918.000000
52311.000000,2136.000000,2816.000000,42947.000000
52346.000000,2120.000000,2852.000000,42985.000000
52360.000000,2188.000000,2814.000000,42973.000000
52373.000000,2175.000000,2847.000000,43016.000000
52425.000000,2208.000000,2851.000000,43027.000000
52467.000000,2255.000000,2821.000000,43066.000000
52487.000000,2254.000000,2811.000000,43070.000000
52511.000000,2319.000000,2828.000000,43097.000000
52549.000000,2315.000000,2859.000000,43130.000000
52589.000000,2343.000000,2840.000000,43124.000000
52559.000000,2313.000000,2839.000000,43160.000000
52591.000000,2355.000000,2839.000000,43149.000000
52634.000000,2367.000000,2851.000000,43154.000000
52623.000000,2348.000000,2822.000000,43153.000000
52625.000000,2379.000000,2831.000000,43198.000000
52643.000000,2391.000000,2825.000000,43208.000000
52639.000000,2371.000000,2813.000000,43179.000000
52616.000000,2403.000000,2820.000000,43175.000000
52623.000000,2387.000000,2842.000000,43182.000000
52638.000000,2367.000000,2835.000000,43198.000000
52635.000000,2399.000000,2819.000000,43171.000000
52613.000000,2349.000000,2818.000000,43162.000000
52612.000000,2355.000000,2836.000000,43159.000000
52589.000000,2363.000000,2825.000000,43155.000000
52624.000000,2376.000000,2835.000000,43147.000000
52583.000000,2368.000000,2863.000000,43180.000000
52580.000000,2365.000000,2808.000000,43142.000000
52603.000000,2361.000000,2829.000000,43164.000000
52595.000000,2339.000000,2837.000000,43139.000000
52615.000000,2351.000000,2848.000000,43132.000000
52612.000000,2365.000000,2818.000000,43163.000000
52621.000000,2373.000000,2825.000000,43182.000000
52594.000000,2352.000000,2802.000000,43135.000000
52581.000000,2379.000000,2822.000000,43147.000000
52583.000000,2345.000000,2799.000000,43126.000000
52580.000000,2351.000000,2847.000000,43110.000000
52590.000000,2328.000000,2833.000000,43149.000000
52575.000000,2341.000000,2833.000000,43132.000000
52563.000000,2344.000000,2825.000000,43119.000000
52567.000000,2333.000000,2825.000000,43111.000000
52544.000000,2335.000000,2829.000000,43124.000000
52569.000000,2349.000000,2849.000000,43118.000000
52576.000000,2331.000000,2823.000000,43123.000000
52532.000000,2327.000000,2827.000000,43114.000000
52534.000000,2324.000000,2827.000000,43095.000000
52556.000000,2336.000000,2829.000000,43119.000000
52524.000000,2319.000000,2806.000000,43094.000000
52543.000000,2336.000000,2833.000000,43101.000000
52524.000000,2329.000000,2783.000000,43124.000000
52527.000000,2307.000000,2818.000000,43117.000000
52498.000000,2319.000000,2798.000000,43121.000000
52527.000000,2299.000000,2776.000000,43087.000000
52527.000000,2327.000000,2798.000000,43087.000000
52473.000000,2301.000000,2798.000000,43079.000000
52508.000000,2325.000000,2767.000000,43089.000000
52509.000000,2320.000000,2788.000000,43095.000000
52509.000000,2325.000000,2776.000000,43089.000000
52505.000000,2317.000000,2782.000000,43074.000000
52502.000000,2299.000000,2772.000000,43085.000000
52484.000000,2304.000000,2756.000000,43080.000000
52499.000000,2311.000000,2743.000000,43072.000000
52496.000000,2308.000000,2726.000000,43071.000000
52499.000000,2298.000000,2750.000000,43054.000000
52457.000000,2303.000000,2734.000000,43048.000000
52487.000000,2287.000000,2723.000000,43037.000000
52474.000000,2335.000000,2704.000000,43059.000000
52486.000000,2259.000000,2687.000000,43056.000000
52481.000000,2291.000000,2704.000000,43095.000000
52468.000000,2317.000000,2694.000000,43056.000000
52483.000000,2261.000000,2723.000000,43040.000000
52460.000000,2279.000000,2694.000000,43069.000000
52434.000000,2251.000000,2699.000000,43057.000000
52445.000000,2276.000000,2716.000000,43063.000000
52443.000000,2233.000000,2759.000000,43045.000000
52450.000000,2236.000000,2735.000000,43053.000000
52449.000000,2261.000000,2727.000000,43036.000000
52434.000000,2263.000000,2765.000000,43061.000000
52464.000000,2252.000000,2790.000000,43036.000000
52404.000000,2259.000000,2775.000000,43061.000000
52428.000000,2254.000000,2806.000000,43036.000000
52428.000000,2250.000000,2847.000000,43025.000000
52403.000000,2239.000000,2848.000000,43019.000000
52419.000000,2216.000000,2875.000000,43030.000000
52410.000000,2234.000000,2899.000000,43041.000000
52375.000000,2225.000000,2915.000000,43013.000000
52418.000000,2216.000000,2930.000000,43009.000000
52386.000000,2204.000000,2925.000000,42991.000000
52387.000000,2220.000000,2915.000000,43005.000000
52366.000000,2185.000000,2905.000000,42992.000000
52374.000000,2189.000000,2914.000000,42984.000000
52365.000000,2202.000000,2931.000000,42984.000000
52348.000000,2195.000000,2945.000000,42973.000000
52379.000000,2159.000000,2937.000000,42955.000000
52363.000000,2184.000000,2938.000000,42980.000000
52300.000000,2143.000000,2929.000000,42993.000000
52324.000000,2163.000000,2914.000000,42947.000000
52355.000000,2124.000000,2942.000000,42967.000000
52280.000000,2152.000000,2951.000000,42944.000000
52299.000000,2118.000000,2941.000000,42928.000000
52278.000000,2132.000000,2949.000000,42925.000000
52286.000000,2159.000000,2935.000000,42932.000000
52302.000000,2127.000000,2955.000000,42935.000000
52347.000000,2162.000000,2947.000000,42963.000000
52278.000000,2127.000000,2960.000000,42963.000000
52316.000000,2116.000000,2940.000000,42964.000000
52315.000000,2128.000000,2957.000000,42976.000000
52322.000000,2156.000000,2968.000000,42935.000000
52329.000000,2164.000000,2959.000000,42970.000000
52386.000000,2162.000000,2962.000000,42962.000000
52341.000000,2175.000000,2967.000000,42992.000000
52370.000000,2200.000000,2933.000000,43004.000000
52394.000000,2175.000000,2921.000000,43007.000000
52385.000000,2174.000000,2945.000000,43003.000000
52385.000000,2222.000000,2964.000000,43014.000000
52438.000000,2225.000000,2949.000000,42991.000000
52437.000000,2216.000000,2943.000000,43044.000000
52489.000000,2220.000000,2944.000000,43015.000000
52502.000000,2281.000000,2948.000000,43078.000000
52527.000000,2256.000000,2947.000000,43075.000000
52567.000000,2309.000000,2961.000000,43103.000000
52591.000000,2312.000000,2932.000000,43104.000000
52608.000000,2333.000000,2936.000000,43121.000000
52643.000000,2347.000000,2959.000000,43137.000000
52659.000000,2369.000000,2951.000000,43149.000000
52706.000000,2380.000000,2946.000000,43182.000000
52687.000000,2433.000000,2936.000000,43220.000000
52699.000000,2411.000000,2952.000000,43191.000000
52757.000000,2452.000000,2934.000000,43217.000000
52741.000000,2455.000000,2936.000000,43217.000000
52769.000000,2456.000000,2927.000000,43219.000000
52757.000000,2472.000000,2943.000000,43219.000000
52769.000000,2500.000000,2951.000000,43246.000000
52767.000000,2495.000000,2944.000000,43235.000000
52777.000000,2480.000000,2976.000000,43234.000000
52771.000000,2481.000000,2919.000000,43240.000000
52791.000000,2487.000000,2948.000000,43238.000000
52762.000000,2452.000000,2937.000000,43255.000000
52757.000000,2471.000000,2921.000000,43246.000000
52757.000000,2447.000000,2954.000000,43220.000000
52784.000000,2495.000000,2927.000000,43253.000000
52731.000000,2499.000000,2948.000000,43237.000000
52750.000000,2481.000000,2950.000000,43218.000000
52752.000000,2479.000000,2931.000000,43220.000000
52711.000000,2471.000000,2967.000000,43198.000000
52719.000000,2472.000000,2949.000000,43221.000000
52746.000000,2445.000000,2959.000000,43204.000000
52684.000000,2432.000000,2943.000000,43202.000000
52723.000000,2415.000000,2940.000000,43193.000000
52708.000000,2439.000000,2945.000000,43215.000000
52711.000000,2431.000000,2944.000000,43205.000000
52707.000000,2447.000000,2974.000000,43190.000000
52709.000000,2429.000000,2941.000000,43207.000000
52713.000000,2443.000000,2931.000000,43201.000000
52687.000000,2449.000000,2940.000000,43185.000000
52675.000000,2428.000000,2950.000000,43194.000000
52696.000000,2420.000000,2948.000000,43175.000000
52682.000000,2445.000000,2962.000000,43205.000000
52664.000000,2417.000000,2939.000000,43185.000000
52666.000000,2436.000000,2906.000000,43180.000000
52668.000000,2407.000000,2921.000000,43172.000000
52681.000000,2405.000000,2945.000000,43187.000000
52655.000000,2393.000000,2938.000000,43182.000000
52625.000000,2408.000000,2925.000000,43184.000000
52630.000000,2403.000000,2958.000000,43188.000000
52640.000000,2407.000000,2935.000000,43164.000000
52635.000000,2415.000000,2969.000000,43178.000000
52636.000000,2387.000000,2948.000000,43143.000000
52608.000000,2395.000000,2923.000000,43154.000000
52645.000000,2411.000000,2934.000000,43147.000000
52619.000000,2376.000000,2917.000000,43159.000000
52621.000000,2409.000000,2946.000000,43153.000000
52601.000000,2400.000000,2919.000000,43177.000000
52635.000000,2361.000000,2912.000000,43149.000000
52623.000000,2379.000000,2944.000000,43166.000000
52612.000000,2367.000000,2933.000000,43148.000000
52604.000000,2372.000000,2927.000000,43160.000000
52601.000000,2369.000000,2907.000000,43167.000000
52583.000000,2361.000000,2909.000000,43139.000000
52592.000000,2379.000000,2925.000000,43142.000000
52612.000000,2375.000000,2893.000000,43150.000000
52575.000000,2371.000000,2892.000000,43128.000000
52572.000000,2364.000000,2922.000000,43134.000000
52582.000000,2375.000000,2914.000000,43107.000000
52587.000000,2351.000000,2937.000000,43117.000000
52558.000000,2363.000000,2925.000000,43124.000000
52557.000000,2359.000000,2884.000000,43137.000000
52591.000000,2375.000000,2863.000000,43130.000000
52569.000000,2351.000000,2896.000000,43159.000000
52552.000000,2356.000000,2893.000000,43127.000000
52560.000000,2391.000000,2859.000000,43122.000000
52591.000000,2325.000000,2857.000000,43124.000000
52539.000000,2367.000000,2869.000000,43117.000000
52546.000000,2331.000000,2863.000000,43135.000000
52549.000000,2339.000000,2847.000000,43100.000000
52547.000000,2323.000000,2850.000000,43096.000000
52553.000000,2353.000000,2848.000000,43129.000000
52532.000000,2353.000000,2864.000000,43104.000000
52515.000000,2333.000000,2837.000000,43101.000000
52555.000000,2343.000000,2821.000000,43087.000000
52525.000000,2309.000000,2860.000000,43114.000000
52535.000000,2323.000000,2849.000000,43094.000000
52547.000000,2319.000000,2849.000000,43109.000000
52538.000000,2331.000000,2852.000000,43085.000000
52563.000000,2309.000000,2869.000000,43099.000000
52521.000000,2315.000000,2847.000000,43076.000000
52527.000000,2311.000000,2847.000000,43088.000000
52504.000000,2293.000000,2859.000000,43092.000000
52520.000000,2307.000000,2874.000000,43126.000000
52531.000000,2328.000000,2875.000000,43091.000000
52538.000000,2332.000000,2877.000000,43063.000000
52515.000000,2296.000000,2897.000000,43055.000000
52483.000000,2277.000000,2915.000000,43040.000000
52507.000000,2279.000000,2925.000000,43077.000000
52501.000000,2267.000000,2959.000000,43048.000000
52478.000000,2268.000000,2963.000000,43077.000000
52512.000000,2258.000000,2979.000000,43068.000000
52451.000000,2251.000000,2975.000000,43075.000000
52481.000000,2285.000000,2958.000000,43038.000000
52450.000000,2266.000000,2968.000000,43041.000000
52484.000000,2246.000000,2950.000000,43072.000000
52442.000000,2280.000000,3003.000000,43045.000000
52449.000000,2278.000000,2960.000000,43041.000000
52467.000000,2235.000000,2980.000000,43018.000000
52451.000000,2251.000000,2988.000000,43027.000000
52445.000000,2244.000000,2972.000000,43028.000000
52429.000000,2207.000000,2975.000000,43021.000000
52405.000000,2239.000000,2989.000000,43015.000000
52438.000000,2224.000000,2969.000000,43024.000000
52435.000000,2227.000000,2971.000000,43015.000000
52405.000000,2207.000000,2957.000000,43014.000000
52395.000000,2211.000000,2974.000000,42977.000000
52361.000000,2189.000000,2957.000000,42997.000000
52380.000000,2200.000000,2973.000000,42991.000000
52399.000000,2166.000000,2986.000000,43013.000000
52370.000000,2205.000000,2959.000000,42984.000000
52377.000000,2189.000000,2975.000000,42991.000000
52387.000000,2169.000000,2973.000000,42969.000000
52360.000000,2150.000000,2994.000000,43016.000000
52379.000000,2175.000000,2988.000000,43007.000000
52372.000000,2165.000000,3001.000000,42992.000000
52410.000000,2175.000000,2997.000000,42985.000000
52382.000000,2167.000000,2967.000000,42993.000000
52437.000000,2203.000000,2975.000000,42995.000000
52433.000000,2213.000000,2975.000000,43026.000000
52453.000000,2196.000000,2990.000000,43020.000000
52485.000000,2228.000000,2961.000000,43025.000000
52497.000000,2245.000000,2973.000000,43029.000000
52518.000000,2250.000000,2978.000000,43059.000000
52505.000000,2267.000000,2991.000000,43068.000000
52543.000000,2295.000000,2996.000000,43071.000000
52559.000000,2282.000000,2968.000000,43102.000000
52572.000000,2298.000000,2969.000000,43103.000000
52611.000000,2319.000000,2975.000000,43128.000000
52607.000000,2363.000000,2969.000000,43116.000000
52621.000000,2361.000000,2975.000000,43147.000000
52680.000000,2403.000000,2959.000000,43154.000000
52705.000000,2403.000000,2973.000000,43189.000000
52725.000000,2393.000000,2969.000000,43186.000000
52739.000000,2439.000000,2943.000000,43197.000000
52769.000000,2465.000000,2985.000000,43213.000000
52788.000000,2460.000000,2975.000000,43216.000000
52827.000000,2487.000000,2949.000000,43244.000000
52799.000000,2496.000000,2962.000000,43245.000000
52841.000000,2524.000000,2994.000000,43275.000000
52851.000000,2547.000000,2961.000000,43289.000000
52859.000000,2527.000000,2986.000000,43293.000000
52861.000000,2552.000000,2953.000000,43299.000000
52844.000000,2521.000000,2947.000000,43273.000000
52861.000000,2508.000000,2978.000000,43268.000000
52862.000000,2516.000000,2968.000000,43295.000000
52825.000000,2503.000000,2981.000000,43288.000000
52846.000000,2507.000000,2993.000000,43254.000000
52855.000000,2504.000000,2969.000000,43258.000000
52838.000000,2551.000000,2959.000000,43269.000000
52871.000000,2499.000000,2995.000000,43279.000000
52838.000000,2523.000000,2974.000000,43277.000000
52822.000000,2492.000000,2964.000000,43265.000000
52824.000000,2507.000000,2956.000000,43272.000000
52817.000000,2528.000000,2976.000000,43255.000000
52814.000000,2512.000000,2939.000000,43265.000000
52809.000000,2487.000000,2976.000000,43237.000000
52785.000000,2507.000000,2970.000000,43265.000000
52815.000000,2491.000000,2976.000000,43292.000000
52799.000000,2435.000000,2948.000000,43259.000000
52776.000000,2479.000000,2959.000000,43233.000000
52809.000000,2469.000000,2968.000000,43248.000000
52773.000000,2499.000000,2952.000000,43236.000000
52758.000000,2465.000000,2967.000000,43256.000000
52773.000000,2497.000000,2979.000000,43222.000000
52747.000000,2471.000000,2981.000000,43245.000000
53039.000000,2451.000000,2976.000000,43237.000000
52770.000000,2464.000000,2971.000000,43207.000000
52774.000000,2452.000000,2937.000000,43209.000000
52735.000000,2451.000000,2962.000000,43206.000000
52754.000000,2443.000000,2935.000000,43212.000000
52741.000000,2483.000000,2931.000000,43244.000000
52753.000000,2448.000000,2961.000000,43243.000000
52749.000000,2471.000000,2960.000000,43226.000000
52729.000000,2452.000000,2972.000000,43207.000000
52758.000000,2455.000000,2944.000000,43232.000000
52718.000000,2435.000000,2906.000000,43185.000000
52715.000000,2439.000000,2922.000000,43200.000000
52736.000000,2432.000000,2917.000000,43210.000000
52722.000000,2391.000000,2965.000000,43205.000000
52711.000000,2451.000000,2928.000000,43213.000000
52691.000000,2443.000000,2939.000000,43214.000000
52701.000000,2383.000000,2938.000000,43178.000000
52715.000000,2405.000000,2951.000000,43198.000000
52681.000000,2403.000000,2917.000000,43165.000000
52697.000000,2425.000000,2897.000000,43197.000000
52685.000000,2421.000000,2911.000000,43180.000000
52734.000000,2412.000000,2912.000000,43207.000000
52693.000000,2429.000000,2907.000000,43176.000000
52679.000000,2401.000000,2910.000000,43184.000000
52715.000000,2369.000000,2879.000000,43153.000000
52705.000000,2435.000000,2899.000000,43172.000000
52690.000000,2416.000000,2884.000000,43180.000000
52660.000000,2403.000000,2877.000000,43161.000000
52654.000000,2387.000000,2845.000000,43166.000000
52665.000000,2409.000000,2869.000000,43173.000000
52665.000000,2395.000000,2877.000000,43153.000000
52644.000000,2395.000000,2875.000000,43147.000000
52627.000000,2371.000000,2859.000000,43168.000000
52661.000000,2375.000000,2843.000000,43156.000000
52655.000000,2376.000000,2862.000000,43167.000000
52637.000000,2363.000000,2859.000000,43155.000000
52651.000000,2399.000000,2870.000000,43130.000000
52625.000000,2339.000000,2852.000000,43130.000000
52632.000000,2379.000000,2849.000000,43119.000000
52671.000000,2347.000000,2853.000000,43122.000000
52619.000000,2347.000000,2872.000000,43124.000000
52611.000000,2352.000000,2917.000000,43141.000000
52625.000000,2343.000000,2903.000000,43147.000000
52620.000000,2355.000000,2959.000000,43143.000000
52615.000000,2377.000000,2940.000000,43112.000000
52609.000000,2359.000000,2964.000000,43116.000000
52592.000000,2347.000000,2973.000000,43125.000000
52608.000000,2371.000000,2976.000000,43117.000000
52578.000000,2307.000000,2979.000000,43135.000000
52595.000000,2287.000000,2970.000000,43109.000000
52577.000000,2325.000000,3009.000000,43104.000000
52546.000000,2327.000000,3005.000000,43100.000000
52573.000000,2303.000000,2982.000000,43094.000000
52568.000000,2292.000000,3013.000000,43082.000000
52591.000000,2284.000000,3019.000000,43064.000000
52549.000000,2297.000000,3003.000000,43093.000000
52551.000000,2275.000000,2942.000000,43054.000000
52535.000000,2279.000000,2982.000000,43093.000000
52551.000000,2283.000000,2959.000000,43079.000000
52553.000000,2279.000000,2993.000000,43078.000000
52537.000000,2240.000000,2968.000000,43083.000000
52567.000000,2285.000000,2949.000000,43076.000000
52567.000000,2255.000000,2979.000000,43047.000000
52585.000000,2308.000000,2979.000000,43056.000000
52611.000000,2295.000000,2971.000000,43111.000000
52617.000000,2256.000000,2983.000000,43111.000000
52608.000000,2303.000000,2956.000000,43086.000000
52602.000000,2301.000000,2984.000000,43114.000000
52669.000000,2337.000000,2938.000000,43139.000000
52669.000000,2312.000000,2975.000000,43161.000000
52679.000000,2323.000000,2971.000000,43133.000000
52666.000000,2327.000000,2960.000000,43144.000000
52703.000000,2351.000000,2969.000000,43136.000000
52710.000000,2387.000000,2953.000000,43180.000000
52743.000000,2389.000000,2973.000000,43165.000000
52755.000000,2383.000000,2971.000000,43197.000000
52787.000000,2417.000000,2970.000000,43205.000000
52802.000000,2420.000000,2947.000000,43239.000000
52820.000000,2435.000000,2966.000000,43247.000000
52853.000000,2483.000000,2956.000000,43263.000000
52863.000000,2499.000000,2958.000000,43267.000000
52875.000000,2533.000000,2968.000000,43283.000000
52944.000000,2511.000000,2968.000000,43300.000000
52972.000000,2540.000000,2970.000000,43313.000000
52991.000000,2599.000000,2952.000000,43338.000000
53062.000000,2632.000000,2979.000000,43340.000000
53045.000000,2867.000000,2963.000000,43391.000000
53071.000000,2625.000000,2952.000000,43389.000000
53095.000000,2651.000000,2983.000000,43425.000000
53159.000000,2682.000000,2955.000000,43425.000000
53172.000000,2701.000000,2942.000000,43448.000000
53166.000000,2706.000000,2975.000000,43465.000000
53159.000000,2715.000000,2941.000000,43448.000000
53133.000000,2719.000000,2960.000000,43455.000000
53159.000000,2977.000000,2982.000000,43440.000000
53159.000000,2704.000000,2955.000000,43427.000000
53161.000000,2724.000000,2937.000000,43443.000000
53182.000000,2962.000000,2916.000000,43443.000000
53135.000000,2726.000000,2943.000000,43439.000000
53139.000000,2711.000000,2947.000000,43466.000000
53130.000000,2670.000000,2944.000000,43463.000000
53140.000000,2669.000000,2973.000000,43443.000000
53103.000000,2675.000000,2961.000000,43413.000000
53114.000000,2928.000000,2959.000000,43419.000000
53121.000000,2679.000000,2934.000000,43436.000000
53128.000000,2965.000000,2936.000000,43415.000000
53132.000000,2716.000000,2951.000000,43427.000000
53092.000000,2680.000000,2945.000000,43407.000000
53100.000000,2685.000000,2919.000000,43424.000000
53103.000000,2668.000000,2925.000000,43402.000000
53067.000000,2919.000000,2908.000000,43409.000000
53067.000000,2927.000000,2936.000000,43413.000000
53077.000000,2646.000000,2941.000000,43421.000000
53063.000000,2668.000000,2911.000000,43388.000000
53089.000000,2698.000000,2936.000000,43420.000000
53098.000000,2665.000000,2930.000000,43423.000000
53079.000000,2675.000000,2927.000000,43407.000000
53076.000000,2661.000000,2936.000000,43400.000000
53083.000000,2649.000000,2929.000000,43391.000000
53067.000000,2932.000000,2944.000000,43411.000000
53047.000000,2887.000000,2918.000000,43381.000000
53057.000000,2625.000000,2904.000000,43375.000000
53057.000000,2671.000000,2869.000000,43381.000000
53059.000000,2887.000000,2906.000000,43365.000000
53072.000000,2932.000000,2911.000000,43403.000000
53055.000000,2639.000000,2931.000000,43397.000000
53033.000000,2649.000000,2904.000000,43369.000000
53017.000000,2611.000000,2903.000000,43389.000000
53042.000000,2623.000000,2930.000000,43340.000000
53048.000000,2873.000000,2884.000000,43360.000000
53049.000000,2871.000000,2920.000000,43376.000000
53044.000000,2603.000000,2946.000000,43380.000000
52997.000000,2630.000000,2923.000000,43387.000000
53049.000000,2593.000000,2907.000000,43351.000000
53007.000000,2619.000000,2871.000000,43383.000000
53005.000000,2605.000000,2900.000000,43351.000000
53026.000000,2615.000000,2907.000000,43369.000000
53022.000000,2621.000000,2899.000000,43357.000000
53037.000000,2614.000000,2881.000000,43344.000000
52998.000000,2619.000000,2881.000000,43356.000000
52982.000000,2605.000000,2899.000000,43369.000000
52982.000000,2597.000000,2883.000000,43368.000000
52991.000000,2568.000000,2888.000000,43323.000000
52991.000000,2559.000000,2890.000000,43339.000000
52975.000000,2592.000000,2858.000000,43332.000000
52991.000000,2835.000000,2852.000000,43321.000000
52948.000000,2831.000000,2861.000000,43327.000000
53211.000000,2545.000000,2835.000000,43318.000000
52969.000000,2578.000000,2858.000000,43299.000000
52950.000000,2559.000000,2817.000000,43300.000000
52933.000000,2563.000000,2834.000000,43318.000000
52955.000000,2531.000000,2861.000000,43311.000000
52938.000000,2823.000000,2810.000000,43303.000000
52958.000000,2564.000000,2819.000000,43333.000000
52917.000000,2559.000000,2786.000000,43300.000000
52891.000000,2555.000000,2775.000000,43328.000000
52923.000000,2536.000000,2759.000000,43311.000000
52912.000000,2549.000000,2761.000000,43270.000000
52912.000000,2537.000000,2748.000000,43293.000000
52874.000000,2535.000000,2804.000000,43268.000000
52891.000000,2536.000000,2759.000000,43299.000000
52885.000000,2496.000000,2738.000000,43260.000000
52900.000000,2519.000000,2727.000000,43282.000000
52911.000000,2535.000000,2729.000000,43293.000000
52891.000000,2512.000000,2741.000000,43287.000000
52891.000000,2551.000000,2741.000000,43295.000000
52906.000000,2544.000000,2728.000000,43236.000000
52891.000000,2504.000000,2741.000000,43267.000000
52888.000000,2511.000000,2758.000000,43283.000000
52889.000000,2523.000000,2762.000000,43268.000000
52878.000000,2527.000000,2765.000000,43275.000000
52876.000000,2505.000000,2792.000000,43258.000000
52863.000000,2520.000000,2789.000000,43271.000000
52853.000000,2511.000000,2770.000000,43274.000000
52871.000000,2477.000000,2813.000000,43267.000000
52873.000000,2488.000000,2820.000000,43271.000000
52859.000000,2483.000000,2831.000000,43240.000000
52867.000000,2495.000000,2850.000000,43246.000000
52836.000000,2507.000000,2856.000000,43220.000000
52838.000000,2483.000000,2871.000000,43245.000000
52839.000000,2466.000000,2900.000000,43211.000000
52847.000000,2464.000000,2919.000000,43224.000000
52831.000000,2435.000000,2940.000000,43230.000000
52840.000000,2475.000000,2977.000000,43233.000000
52832.000000,2447.000000,2965.000000,43228.000000
52808.000000,2443.000000,2971.000000,43235.000000
52832.000000,2439.000000,2983.000000,43205.000000
52823.000000,2436.000000,2991.000000,43197.000000
52809.000000,2413.000000,3014.000000,43204.000000
52771.000000,2453.000000,3016.000000,43212.000000
52795.000000,2444.000000,2994.000000,43221.000000
52774.000000,2424.000000,2998.000000,43196.000000
52776.000000,2415.000000,2985.000000,43186.000000
52753.000000,2408.000000,3003.000000,43184.000000
52766.000000,2419.000000,2998.000000,43181.000000
53015.000000,2379.000000,3014.000000,43165.000000
52735.000000,2411.000000,2985.000000,43159.000000
52754.000000,2384.000000,2990.000000,43192.000000
52761.000000,2392.000000,3023.000000,43167.000000
52781.000000,2376.000000,3011.000000,43170.000000
52758.000000,2423.000000,2969.000000,43164.000000
52764.000000,2399.000000,2977.000000,43151.000000
52742.000000,2383.000000,2989.000000,43153.000000
52731.000000,2408.000000,2973.000000,43164.000000
53025.000000,2403.000000,3004.000000,43168.000000
52784.000000,2393.000000,2974.000000,43169.000000
52771.000000,2415.000000,2976.000000,43202.000000
52802.000000,2420.000000,2953.000000,43220.000000
52817.000000,2427.000000,2976.000000,43200.000000
52802.000000,2421.000000,2957.000000,43225.000000
52828.000000,2443.000000,2933.000000,43224.000000
52843.000000,2459.000000,2981.000000,43216.000000
52874.000000,2460.000000,2939.000000,43242.000000
52865.000000,2459.000000,2957.000000,43242.000000
52890.000000,2493.000000,2966.000000,43267.000000
52934.000000,2493.000000,2981.000000,43268.000000
52938.000000,2501.000000,2967.000000,43284.000000
52956.000000,2551.000000,2942.000000,43296.000000
52955.000000,2533.000000,2950.000000,43298.000000
52983.000000,2853.000000,2944.000000,43313.000000
52980.000000,2559.000000,2923.000000,43328.000000
52999.000000,2588.000000,2953.000000,43315.000000
53037.000000,2602.000000,2961.000000,43329.000000
53031.000000,2597.000000,2929.000000,43353.000000
53013.000000,2592.000000,2933.000000,43332.000000
53078.000000,2631.000000,2960.000000,43345.000000
53051.000000,2623.000000,2931.000000,43389.000000
53065.000000,2637.000000,2943.000000,43363.000000
53017.000000,2675.000000,2936.000000,43375.000000
53033.000000,2632.000000,2923.000000,43367.000000
53063.000000,2595.000000,2968.000000,43348.000000
53055.000000,2639.000000,2935.000000,43339.000000
53033.000000,2909.000000,2917.000000,43344.000000
53067.000000,2634.000000,2952.000000,43357.000000
53019.000000,2604.000000,2943.000000,43351.000000
53019.000000,2881.000000,2938.000000,43351.000000
53039.000000,2631.000000,2911.000000,43347.000000
53025.000000,2615.000000,2934.000000,43353.000000
53008.000000,2880.000000,2900.000000,43327.000000
53008.000000,2609.000000,2879.000000,43339.000000
53048.000000,2619.000000,2869.000000,43328.000000
53001.000000,2876.000000,2915.000000,43327.000000
53000.000000,2609.000000,2890.000000,43311.000000
53003.000000,2596.000000,2901.000000,43312.000000
52998.000000,2592.000000,2859.000000,43305.000000
52988.000000,2582.000000,2911.000000,43307.000000
53005.000000,2625.000000,2872.000000,43336.000000
52980.000000,2595.000000,2895.000000,43313.000000
52983.000000,2584.000000,2897.000000,43297.000000
52945.000000,2570.000000,2891.000000,43313.000000
52943.000000,2836.000000,2838.000000,43316.000000
52961.000000,2584.000000,2885.000000,43319.000000
52976.000000,2577.000000,2871.000000,43312.000000
52969.000000,2563.000000,2851.000000,43299.000000
52940.000000,2591.000000,2868.000000,43329.000000
52915.000000,2819.000000,2882.000000,43307.000000
52948.000000,2568.000000,2866.000000,43273.000000
52955.000000,2592.000000,2863.000000,43291.000000
52933.000000,2577.000000,2872.000000,43303.000000
52941.000000,2825.000000,2846.000000,43287.000000
52906.000000,2553.000000,2833.000000,43304.000000
52918.000000,2827.000000,2855.000000,43276.000000
52930.000000,2821.000000,2832.000000,43261.000000
52935.000000,2559.000000,2840.000000,43288.000000
52914.000000,2821.000000,2832.000000,43288.000000
52919.000000,2543.000000,2816.000000,43279.000000
52911.000000,2545.000000,2820.000000,43264.000000
52927.000000,2544.000000,2823.000000,43287.000000
52901.000000,2552.000000,2793.000000,43275.000000
52866.000000,2559.000000,2803.000000,43263.000000
52910.000000,2543.000000,2782.000000,43268.000000
52897.000000,2545.000000,2785.000000,43284.000000
52879.000000,2551.000000,2788.000000,43260.000000
52917.000000,2560.000000,2746.000000,43258.000000
52882.000000,2817.000000,2769.000000,43283.000000
52881.000000,2547.000000,2770.000000,43262.000000
52844.000000,2512.000000,2753.000000,43244.000000
52853.000000,2543.000000,2727.000000,43275.000000
52893.000000,2508.000000,2707.000000,43247.000000
52853.000000,2529.000000,2723.000000,43255.000000
52861.000000,2507.000000,2685.000000,43242.000000
52880.000000,2517.000000,2679.000000,43268.000000
52857.000000,2535.000000,2684.000000,43233.000000
52853.000000,2523.000000,2679.000000,43225.000000
52828.000000,2467.000000,2676.000000,43219.000000
52841.000000,2503.000000,2682.000000,43228.000000
52843.000000,2519.000000,2667.000000,43248.000000
53065.000000,2487.000000,2665.000000,43213.000000
52796.000000,2477.000000,2657.000000,43207.000000
52810.000000,2483.000000,2698.000000,43217.000000
52821.000000,2500.000000,2661.000000,43227.000000
52789.000000,2471.000000,2670.000000,43206.000000
52785.000000,2459.000000,2675.000000,43204.000000
52801.000000,2483.000000,2672.000000,43193.000000
52772.000000,2468.000000,2722.000000,43189.000000
52774.000000,2455.000000,2694.000000,43190.000000
52774.000000,2476.000000,2699.000000,43206.000000
52792.000000,2447.000000,2715.000000,43190.000000
52787.000000,2421.000000,2731.000000,43177.000000
52735.000000,2425.000000,2723.000000,43169.000000
52748.000000,2435.000000,2807.000000,43155.000000
52748.000000,2415.000000,2798.000000,43158.000000
53000.000000,2422.000000,2836.000000,43144.000000
52763.000000,2407.000000,2853.000000,43135.000000
52742.000000,2416.000000,2865.000000,43122.000000
52754.000000,2401.000000,2883.000000,43134.000000
52722.000000,2384.000000,2915.000000,43161.000000
52725.000000,2408.000000,2949.000000,43159.000000
52714.000000,2376.000000,2936.000000,43164.000000
52704.000000,2395.000000,2981.000000,43153.000000
52720.000000,2387.000000,3006.000000,43149.000000
52701.000000,2381.000000,3002.000000,43140.000000
52708.000000,2403.000000,3004.000000,43124.000000
52694.000000,2411.000000,3018.000000,43140.000000
52729.000000,2403.000000,2983.000000,43151.000000
52700.000000,2405.000000,3009.000000,43131.000000
52753.000000,2395.000000,3018.000000,43132.000000
52727.000000,2355.000000,3005.000000,43177.000000
52735.000000,2388.000000,3001.000000,43154.000000
52756.000000,2375.000000,2987.000000,43149.000000
52747.000000,2408.000000,2987.000000,43131.000000
52775.000000,2447.000000,3006.000000,43184.000000
52793.000000,2437.000000,2987.000000,43170.000000
52793.000000,2429.000000,2977.000000,43151.000000
52818.000000,2455.000000,3010.000000,43188.000000
52822.000000,2472.000000,3017.000000,43199.000000
52851.000000,2443.000000,3013.000000,43211.000000
52855.000000,2483.000000,2991.000000,43192.000000
52847.000000,2499.000000,2989.000000,43237.000000
52860.000000,2513.000000,2997.000000,43264.000000
52855.000000,2495.000000,3010.000000,43216.000000
52884.000000,2500.000000,3004.000000,43249.000000
52886.000000,2520.000000,3001.000000,43240.000000
52909.000000,2529.000000,2998.000000,43256.000000
52906.000000,2569.000000,2977.000000,43263.000000
52926.000000,2549.000000,3011.000000,43265.000000
52927.000000,2552.000000,3017.000000,43283.000000
52930.000000,2839.000000,2993.000000,43279.000000
52941.000000,2567.000000,3016.000000,43308.000000
52942.000000,2549.000000,3011.000000,43291.000000
52965.000000,2589.000000,2981.000000,43265.000000
52917.000000,2547.000000,3012.000000,43272.000000
52941.000000,2819.000000,3021.000000,43283.000000
52931.000000,2545.000000,2997.000000,43250.000000
52942.000000,2556.000000,2972.000000,43295.000000
52920.000000,2847.000000,2974.000000,43276.000000
52946.000000,2552.000000,2991.000000,43251.000000
52949.000000,2551.000000,2995.000000,43261.000000
52911.000000,2549.000000,3008.000000,43269.000000
52947.000000,2555.000000,2999.000000,43265.000000
53183.000000,2549.000000,3030.000000,43280.000000
52927.000000,2548.000000,2976.000000,43263.000000
52904.000000,2547.000000,2992.000000,43255.000000
52897.000000,2527.000000,2996.000000,43231.000000
52912.000000,2523.000000,2980.000000,43235.000000
52870.000000,2531.000000,3001.000000,43265.000000
52888.000000,2551.000000,2999.000000,43263.000000
52901.000000,2539.000000,2958.000000,43212.000000
52886.000000,2533.000000,2990.000000,43245.000000
52878.000000,2528.000000,2996.000000,43230.000000
52874.000000,2523.000000,2996.000000,43254.000000
52899.000000,2503.000000,2991.000000,43232.000000
52864.000000,2501.000000,3000.000000,43228.000000
52905.000000,2525.000000,2981.000000,43224.000000
52864.000000,2520.000000,3002.000000,43234.000000
52881.000000,2502.000000,2974.000000,43212.000000
52854.000000,2480.000000,2980.000000,43206.000000
52877.000000,2509.000000,2980.000000,43222.000000
52872.000000,2515.000000,3006.000000,43216.000000
52847.000000,2531.000000,2975.000000,43237.000000
52871.000000,2499.000000,2990.000000,43224.000000
52851.000000,2495.000000,2985.000000,43221.000000
52860.000000,2504.000000,2974.000000,43222.000000
52812.000000,2451.000000,2966.000000,43222.000000
52814.000000,2495.000000,3002.000000,43211.000000
52857.000000,2521.000000,2992.000000,43229.000000
52833.000000,2467.000000,2979.000000,43209.000000
52850.000000,2493.000000,2949.000000,43197.000000
52808.000000,2492.000000,2995.000000,43218.000000
53103.000000,2473.000000,2959.000000,43215.000000
52810.000000,2475.000000,3002.000000,43209.000000
52843.000000,2480.000000,2953.000000,43192.000000
52827.000000,2495.000000,2978.000000,43202.000000
52831.000000,2488.000000,2955.000000,43203.000000
52801.000000,2485.000000,2964.000000,43210.000000
52801.000000,2469.000000,2959.000000,43198.000000
52818.000000,2436.000000,2947.000000,43199.000000
52824.000000,2465.000000,2949.000000,43182.000000
52788.000000,2459.000000,2937.000000,43169.000000
52774.000000,2447.000000,2923.000000,43182.000000
52786.000000,2451.000000,2941.000000,43190.000000
52798.000000,2451.000000,2912.000000,43202.000000
52793.000000,2457.000000,2931.000000,43159.000000
52767.000000,2451.000000,2918.000000,43169.000000
52742.000000,2447.000000,2954.000000,43151.000000
52773.000000,2439.000000,2950.000000,43146.000000
52752.000000,2417.000000,2911.000000,43150.000000
52745.000000,2420.000000,2912.000000,43152.000000
52776.000000,2445.000000,2897.000000,43158.000000
52741.000000,2448.000000,2887.000000,43154.000000
52752.000000,2411.000000,2900.000000,43142.000000
52739.000000,2415.000000,2880.000000,43149.000000
52719.000000,2421.000000,2874.000000,43137.000000
52720.000000,2428.000000,2879.000000,43150.000000
52737.000000,2419.000000,2873.000000,43157.000000
52757.000000,2401.000000,2825.000000,43142.000000
52736.000000,2401.000000,2827.000000,43135.000000
52710.000000,2412.000000,2776.000000,43115.000000
52720.000000,2399.000000,2805.000000,43119.000000
52739.000000,2385.000000,2788.000000,43132.000000
52715.000000,2420.000000,2796.000000,43149.000000
52703.000000,2395.000000,2755.000000,43096.000000
52716.000000,2416.000000,2779.000000,43123.000000
52687.000000,2395.000000,2740.000000,43108.000000
52713.000000,2401.000000,2751.000000,43123.000000
52663.000000,2399.000000,2770.000000,43122.000000
52691.000000,2396.000000,2755.000000,43103.000000
52658.000000,2379.000000,2776.000000,43121.000000
52710.000000,2377.000000,2734.000000,43094.000000
52679.000000,2336.000000,2762.000000,43080.000000
52629.000000,2325.000000,2741.000000,43110.000000
52680.000000,2340.000000,2758.000000,43092.000000
52661.000000,2375.000000,2770.000000,43091.000000
52652.000000,2360.000000,2778.000000,43105.000000
52663.000000,2377.000000,2828.000000,43081.000000
52663.000000,2344.000000,2828.000000,43078.000000
52615.000000,2329.000000,2836.000000,43049.000000
52614.000000,2341.000000,2845.000000,43076.000000
52617.000000,2305.000000,2850.000000,43069.000000
52627.000000,2335.000000,2877.000000,43065.000000
52629.000000,2360.000000,2883.000000,43068.000000
52611.000000,2327.000000,2924.000000,43064.000000
52623.000000,2295.000000,2981.000000,43073.000000
52645.000000,2313.000000,2959.000000,43058.000000
52643.000000,2344.000000,3033.000000,43048.000000
52635.000000,2304.000000,3072.000000,43058.000000
52602.000000,2337.000000,3102.000000,43052.000000
52626.000000,2324.000000,3094.000000,43042.000000
52599.000000,2259.000000,3123.000000,43013.000000
52581.000000,2288.000000,3170.000000,43020.000000
52591.000000,2307.000000,3175.000000,43072.000000
52591.000000,2280.000000,3201.000000,43010.000000
52605.000000,2280.000000,3249.000000,43023.000000
52571.000000,2291.000000,3243.000000,43032.000000
52594.000000,2255.000000,3241.000000,43009.000000
52565.000000,2263.000000,3246.000000,43043.000000
52551.000000,2235.000000,3239.000000,42993.000000
52566.000000,2254.000000,3242.000000,42997.000000
52564.000000,2255.000000,3220.000000,43011.000000
52559.000000,2196.000000,3288.000000,43011.000000
52583.000000,2244.000000,3254.000000,43007.000000
52530.000000,2226.000000,3231.000000,42995.000000
52572.000000,2228.000000,3227.000000,43016.000000
52545.000000,2234.000000,3265.000000,42987.000000
52582.000000,2244.000000,3271.000000,43005.000000
52586.000000,2207.000000,3248.000000,42973.000000
52567.000000,2239.000000,3228.000000,43015.000000
52597.000000,2218.000000,3274.000000,43037.000000
52589.000000,2252.000000,3230.000000,43052.000000
52633.000000,2262.000000,3248.000000,43053.000000
52653.000000,2284.000000,3252.000000,43057.000000
52641.000000,2295.000000,3240.000000,43062.000000
52675.000000,2311.000000,3245.000000,43089.000000
52702.000000,2303.000000,3272.000000,43077.000000
52699.000000,2335.000000,3242.000000,43080.000000
52710.000000,2371.000000,3225.000000,43113.000000
52770.000000,2356.000000,3255.000000,43130.000000
52765.000000,2399.000000,3255.000000,43140.000000
52806.000000,2375.000000,3251.000000,43155.000000
53160.000000,2472.000000,3218.000000,43225.000000
52916.000000,2487.000000,3230.000000,43239.000000
52970.000000,2488.000000,3233.000000,43257.000000
53002.000000,2553.000000,3241.000000,43271.000000
53039.000000,2559.000000,3258.000000,43303.000000
53068.000000,2588.000000,3252.000000,43320.000000
53095.000000,2590.000000,3211.000000,43355.000000
53077.000000,2885.000000,3245.000000,43349.000000
53128.000000,2896.000000,3256.000000,43363.000000
53132.000000,2658.000000,3231.000000,43357.000000
53139.000000,2672.000000,3214.000000,43371.000000
53173.000000,2941.000000,3246.000000,43387.000000
53167.000000,2718.000000,3244.000000,43407.000000
53181.000000,2680.000000,3243.000000,43400.000000
53165.000000,2947.000000,3229.000000,43403.000000
53161.000000,2943.000000,3231.000000,43391.000000
53170.000000,2933.000000,3229.000000,43380.000000
53199.000000,2688.000000,3236.000000,43401.000000
53193.000000,2933.000000,3271.000000,43380.000000
53174.000000,2955.000000,3246.000000,43402.000000
53173.000000,2687.000000,3223.000000,43363.000000
53205.000000,2696.000000,3201.000000,43352.000000
53169.000000,2931.000000,3237.000000,43405.000000
53159.000000,2927.000000,3230.000000,43411.000000
53152.000000,2943.000000,3198.000000,43360.000000
53170.000000,2928.000000,3214.000000,43369.000000
53146.000000,2674.000000,3217.000000,43365.000000
53141.000000,2655.000000,3216.000000,43352.000000
53142.000000,2908.000000,3213.000000,43356.000000
53131.000000,2686.000000,3217.000000,43365.000000
53142.000000,2931.000000,3214.000000,43351.000000
53137.000000,2929.000000,3217.000000,43360.000000
53145.000000,2690.000000,3208.000000,43356.000000
53121.000000,2666.000000,3193.000000,43364.000000
53118.000000,2671.000000,3205.000000,43354.000000
53111.000000,2895.000000,3210.000000,43325.000000
53144.000000,2909.000000,3180.000000,43352.000000
53111.000000,2663.000000,3191.000000,43328.000000
53121.000000,2912.000000,3207.000000,43360.000000
53136.000000,2649.000000,3192.000000,43347.000000
53113.000000,2640.000000,3188.000000,43372.000000
53156.000000,2656.000000,3189.000000,43341.000000
53121.000000,2609.000000,3182.000000,43361.000000
53104.000000,2647.000000,3180.000000,43320.000000
53095.000000,2681.000000,3172.000000,43329.000000
53101.000000,2605.000000,3194.000000,43345.000000
53089.000000,2656.000000,3186.000000,43325.000000
53069.000000,2911.000000,3167.000000,43320.000000
53083.000000,2640.000000,3170.000000,43319.000000
53121.000000,2626.000000,3183.000000,43313.000000
53053.000000,2597.000000,3152.000000,43337.000000
53066.000000,2875.000000,3162.000000,43307.000000
53087.000000,2605.000000,3108.000000,43299.000000
53065.000000,2876.000000,3157.000000,43281.000000
53039.000000,2605.000000,3133.000000,43327.000000
53039.000000,2855.000000,3138.000000,43321.000000
53041.000000,2876.000000,3137.000000,43304.000000
53023.000000,2879.000000,3118.000000,43275.000000
53060.000000,2610.000000,3095.000000,43297.000000
53024.000000,2875.000000,3113.000000,43331.000000
53012.000000,2875.000000,3064.000000,43272.000000
53013.000000,2612.000000,3082.000000,43263.000000
53028.000000,2577.000000,3083.000000,43299.000000
53031.000000,2819.000000,3097.000000,43281.000000
53036.000000,2831.000000,3093.000000,43301.000000
53010.000000,2576.000000,3090.000000,43295.000000
53015.000000,2852.000000,3088.000000,43275.000000
53022.000000,2609.000000,3086.000000,43293.000000
52990.000000,2593.000000,3059.000000,43273.000000
52992.000000,2553.000000,3067.000000,43292.000000
52965.000000,2588.000000,3075.000000,43293.000000
52973.000000,2839.000000,3077.000000,43287.000000
52986.000000,2547.000000,3103.000000,43273.000000
52964.000000,2556.000000,3089.000000,43253.000000
52954.000000,2555.000000,3080.000000,43258.000000
52992.000000,2824.000000,3132.000000,43272.000000
53007.000000,2557.000000,3126.000000,43258.000000
52974.000000,2552.000000,3186.000000,43283.000000
52974.000000,2535.000000,3178.000000,43234.000000
52963.000000,2551.000000,3231.000000,43243.000000
52942.000000,2559.000000,3216.000000,43230.000000
52950.000000,2540.000000,3221.000000,43263.000000
52946.000000,2539.000000,3243.000000,43222.000000
53203.000000,2543.000000,3296.000000,43247.000000
52928.000000,2551.000000,3298.000000,43214.000000
52903.000000,2540.000000,3352.000000,43235.000000
52905.000000,2529.000000,3388.000000,43214.000000
52913.000000,2533.000000,3375.000000,43218.000000
52915.000000,2508.000000,3392.000000,43207.000000
52899.000000,2484.000000,3412.000000,43201.000000
52898.000000,2487.000000,3408.000000,43228.000000
53147.000000,2496.000000,3410.000000,43189.000000
53120.000000,2511.000000,3411.000000,43169.000000
52886.000000,2483.000000,3395.000000,43201.000000
52887.000000,2500.000000,3434.000000,43184.000000
52869.000000,2491.000000,3411.000000,43200.000000
52862.000000,2481.000000,3416.000000,43189.000000
52865.000000,2459.000000,3423.000000,43199.000000
52867.000000,2473.000000,3448.000000,43159.000000
52868.000000,2489.000000,3462.000000,43165.000000
52828.000000,2448.000000,3464.000000,43175.000000
52853.000000,2447.000000,3450.000000,43145.000000
52851.000000,2477.000000,3449.000000,43166.000000
52834.000000,2475.000000,3459.000000,43160.000000
52820.000000,2476.000000,3463.000000,43153.000000
52817.000000,2460.000000,3451.000000,43159.000000
52818.000000,2483.000000,3455.000000,43155.000000
52826.000000,2443.000000,3484.000000,43167.000000
52827.000000,2427.000000,3469.000000,43173.000000
52820.000000,2451.000000,3472.000000,43164.000000
52808.000000,2429.000000,3488.000000,43147.000000
52795.000000,2421.000000,3487.000000,43144.000000
52777.000000,2447.000000,3470.000000,43137.000000
52785.000000,2427.000000,3464.000000,43156.000000
52784.000000,2432.000000,3488.000000,43144.000000
52800.000000,2433.000000,3464.000000,43145.000000
52749.000000,2417.000000,3490.000000,43112.000000
52769.000000,2436.000000,3474.000000,43120.000000
52763.000000,2400.000000,3467.000000,43126.000000
52785.000000,2407.000000,3486.000000,43148.000000
52771.000000,2403.000000,3455.000000,43131.000000
52743.000000,2412.000000,3517.000000,43122.000000
52745.000000,2383.000000,3493.000000,43121.000000
52725.000000,2431.000000,3495.000000,43135.000000
52771.000000,2415.000000,3473.000000,43105.000000
52772.000000,2403.000000,3485.000000,43098.000000
52761.000000,2396.000000,3481.000000,43108.000000
52747.000000,2369.000000,3498.000000,43101.000000
52750.000000,2367.000000,3508.000000,43125.000000
52730.000000,2392.000000,3482.000000,43107.000000
52721.000000,2403.000000,3480.000000,43101.000000
52715.000000,2392.000000,3469.000000,43093.000000
52737.000000,2371.000000,3484.000000,43105.000000
52710.000000,2389.000000,3479.000000,43104.000000
52696.000000,2355.000000,3526.000000,43089.000000
52715.000000,2355.000000,3500.000000,43067.000000
52693.000000,2371.000000,3460.000000,43042.000000
52683.000000,2335.000000,3479.000000,43072.000000
52689.000000,2367.000000,3511.000000,43057.000000
52655.000000,2347.000000,3486.000000,43068.000000
52696.000000,2352.000000,3487.000000,43064.000000
52675.000000,2352.000000,3497.000000,43050.000000
52687.000000,2325.000000,3502.000000,43062.000000
52631.000000,2327.000000,3512.000000,43078.000000
52646.000000,2343.000000,3495.000000,43057.000000
52639.000000,2347.000000,3500.000000,43044.000000
52648.000000,2327.000000,3500.000000,43055.000000
52641.000000,2340.000000,3502.000000,43017.000000
52647.000000,2333.000000,3501.000000,43065.000000
52634.000000,2327.000000,3513.000000,43034.000000
52639.000000,2308.000000,3490.000000,43019.000000
52623.000000,2315.000000,3453.000000,43027.000000
52622.000000,2311.000000,3481.000000,43013.000000
52615.000000,2287.000000,3451.000000,43007.000000
52646.000000,2303.000000,3463.000000,43014.000000
52643.000000,2300.000000,3465.000000,43045.000000
52635.000000,2280.000000,3451.000000,43005.000000
52608.000000,2276.000000,3473.000000,43008.000000
52604.000000,2291.000000,3435.000000,43034.000000
52617.000000,2288.000000,3456.000000,43026.000000
52599.000000,2262.000000,3452.000000,43003.000000
52595.000000,2258.000000,3463.000000,42999.000000
52592.000000,2291.000000,3450.000000,43031.000000
52560.000000,2251.000000,3439.000000,42991.000000
52507.000000,2249.000000,3488.000000,42983.000000
52576.000000,2263.000000,3450.000000,42968.000000
52540.000000,2217.000000,3435.000000,42963.000000
52536.000000,2243.000000,3431.000000,42945.000000
52535.000000,2226.000000,3449.000000,42944.000000
52543.000000,2211.000000,3427.000000,42951.000000
52539.000000,2211.000000,3420.000000,42955.000000
52507.000000,2229.000000,3415.000000,42934.000000
52531.000000,2214.000000,3411.000000,42955.000000
52519.000000,2214.000000,3397.000000,42957.000000
52551.000000,2203.000000,3407.000000,42967.000000
52552.000000,2254.000000,3411.000000,42961.000000
52565.000000,2229.000000,3420.000000,42956.000000
52562.000000,2224.000000,3385.000000,43007.000000
52573.000000,2233.000000,3401.000000,42972.000000
52585.000000,2262.000000,3402.000000,42991.000000
52615.000000,2253.000000,3380.000000,42992.000000
52639.000000,2247.000000,3382.000000,43015.000000
52636.000000,2304.000000,3371.000000,43025.000000
52678.000000,2295.000000,3356.000000,43037.000000
52656.000000,2300.000000,3384.000000,43059.000000
52691.000000,2307.000000,3335.000000,43045.000000
52744.000000,2367.000000,3336.000000,43115.000000
52783.000000,2363.000000,3334.000000,43087.000000
52823.000000,2403.000000,3318.000000,43114.000000
52829.000000,2409.000000,3321.000000,43151.000000
52873.000000,2451.000000,3310.000000,43155.000000
52912.000000,2480.000000,3308.000000,43200.000000
52937.000000,2483.000000,3302.000000,43200.000000
